************************************************************
  HS Scan of (1) Internal mercury lamp
************************************************************
Integration time is 0.2294 seconds per sample
dh170319Manchester 53.47 2.23 2.804185pr1000
************************************************************
Dead Time -------------------------  3E-08 
Number of Cycles Used -------------  4 
Starting Wavelength (Angstroms) ---  2950 
Final Wavelength (Angstoms) -------  2984 
Wavelength Increment (Angstroms) --  .25 
Filter Wheel #1 Position ---------- (1) Ground quartz diffuser (ND=2.32)
Filter Wheel #2 Position ---------- (1) Neutral Density 0.494



************************************************************
HS scan start time = 03:16:35
Dark Count =  5.7 


Time (GMT)  Wavelength (Ang)  Step Number  Raw Counts  Counts/Second

  196.95        2950.00           1222          59.00       232.35
  197.01        2950.25           1226          60.00       236.71
  197.05        2950.50           1229          61.00       241.07
  197.08        2950.75           1232          56.00       219.27
  197.11        2951.00           1236          54.00       210.55
  197.14        2951.25           1239          53.00       206.19
  197.17        2951.50           1242          54.00       210.55
  197.20        2951.75           1246          50.00       193.11
  197.23        2952.00           1249          63.00       249.78
  197.26        2952.25           1252          51.00       197.47
  197.29        2952.50           1256          56.00       219.27
  197.33        2952.75           1259          50.00       193.11
  197.36        2953.00           1262          56.00       219.27
  197.39        2953.25           1266          54.00       210.55
  197.42        2953.50           1269          55.00       214.91
  197.45        2953.75           1272          64.00       254.14
  197.48        2954.00           1276          54.00       210.55
  197.51        2954.25           1279          57.00       223.63
  197.54        2954.50           1282          56.00       219.27
  197.57        2954.75           1286          54.00       210.55
  197.60        2955.00           1289          55.00       214.91
  197.63        2955.25           1292          58.00       227.99
  197.66        2955.50           1296          58.00       227.99
  197.69        2955.75           1299          59.00       232.35
  197.73        2956.00           1302          56.00       219.27
  197.76        2956.25           1306          53.00       206.19
  197.79        2956.50           1309          55.00       214.91
  197.82        2956.75           1312          55.00       214.91
  197.85        2957.00           1316          51.00       197.47
  197.88        2957.25           1319          52.00       201.83
  197.91        2957.50           1322          55.00       214.91
  197.94        2957.75           1326          57.00       223.63
  197.97        2958.00           1329          54.00       210.55
  198.00        2958.25           1332          52.00       201.83
  198.03        2958.50           1336          52.00       201.83
  198.07        2958.75           1339          57.00       223.63
  198.10        2959.00           1342          63.00       249.78
  198.13        2959.25           1346          48.00       184.40
  198.16        2959.50           1349          69.00       275.94
  198.19        2959.75           1352          75.00       302.10
  198.22        2960.00           1356          94.00       384.92
  198.25        2960.25           1359         130.00       541.86
  198.28        2960.50           1362         167.00       703.15
  198.31        2960.75           1366         197.00       833.94
  198.35        2961.00           1369         223.00       947.28
  198.38        2961.25           1372         268.00      1143.46
  198.41        2961.50           1376         302.00      1291.68
  198.44        2961.75           1379         380.00      1631.73
  198.47        2962.00           1382         574.00      2477.52
  198.50        2962.25           1386        1678.00      7291.48
  198.53        2962.50           1389        2908.00     12656.51
  198.56        2962.75           1392        4091.00     17818.15
  198.59        2963.00           1396        5709.00     24880.38
  198.63        2963.25           1399        6783.00     29569.81
  198.66        2963.50           1402        8093.00     35291.49
  198.69        2963.75           1406        9712.00     42365.49
  198.72        2964.00           1409       10967.00     47851.12
  198.75        2964.25           1412       12341.00     53858.97
  198.78        2964.50           1416       13988.00     61063.37
  198.81        2964.75           1419       15207.00     66397.60
  198.84        2965.00           1422       16511.00     72105.69
  198.87        2965.25           1426       18135.00     79217.25
  198.90        2965.50           1429       19235.00     84035.92
  198.94        2965.75           1432       20646.00     90219.01
  198.97        2966.00           1436       22320.00     97557.56
  199.00        2966.25           1439       23459.00    102552.60
  199.03        2966.50           1442       24511.00    107167.50
  199.06        2966.75           1446       25831.00    112959.70
  199.09        2967.00           1449       26630.00    116466.80
  199.12        2967.25           1452       26598.00    116326.40
  199.15        2967.50           1456       26587.00    116278.10
  199.18        2967.75           1459       26420.00    115545.00
  199.22        2968.00           1462       26430.00    115588.90
  199.25        2968.25           1466       26040.00    113877.10
  199.28        2968.50           1469       25140.00    109927.30
  199.31        2968.75           1472       24094.00    105338.00
  199.34        2969.00           1476       22351.00     97693.49
  199.37        2969.25           1479       21277.00     92984.84
  199.40        2969.50           1482       20115.00     87891.87
  199.43        2969.75           1486       18467.00     80671.47
  199.47        2970.00           1489       17147.00     74890.40
  199.50        2970.25           1492       16065.00     70153.15
  199.53        2970.50           1496       14465.00     63150.48
  199.56        2970.75           1499       13270.00     57922.27
  199.59        2971.00           1502       12057.00     52617.00
  199.62        2971.25           1506       10298.00     44926.69
  199.65        2971.50           1509        9012.00     39306.57
  199.68        2971.75           1513        7416.00     32334.32
  199.71        2972.00           1516        6196.00     27006.61
  199.75        2972.25           1519        5148.00     22431.39
  199.78        2972.50           1523        3539.00     15409.48
  199.81        2972.75           1526        2318.00     10082.82
  199.84        2973.00           1529        1266.00      5494.80
  199.87        2973.25           1533         453.00      1949.98
  199.90        2973.50           1536         280.00      1195.77
  199.93        2973.75           1539         240.00      1021.39
  199.96        2974.00           1543         200.00       847.01
  199.99        2974.25           1546         141.00       589.81
  200.03        2974.50           1549         119.00       493.90
  200.06        2974.75           1553          73.00       293.38
  200.09        2975.00           1556          76.00       306.45
  200.12        2975.25           1559          52.00       201.83
  200.15        2975.50           1563          61.00       241.07
  200.18        2975.75           1566          53.00       206.19
  200.21        2976.00           1569          58.00       227.99
  200.24        2976.25           1573          55.00       214.91
  200.27        2976.50           1576          57.00       223.63
  200.30        2976.75           1579          51.00       197.47
  200.33        2977.00           1583          50.00       193.11
  200.36        2977.25           1586          58.00       227.99
  200.40        2977.50           1590          50.00       193.11
  200.43        2977.75           1593          50.00       193.11
  200.46        2978.00           1596          47.00       180.04
  200.49        2978.25           1600          55.00       214.91
  200.52        2978.50           1603          51.00       197.47
  200.55        2978.75           1606          53.00       206.19
  200.58        2979.00           1610          53.00       206.19
  200.61        2979.25           1613          46.00       175.68
  200.64        2979.50           1616          53.00       206.19
  200.67        2979.75           1620          52.00       201.83
  200.70        2980.00           1623          48.00       184.40
  200.73        2980.25           1626          44.00       166.96
  200.77        2980.50           1630          50.00       193.11
  200.80        2980.75           1633          48.00       184.40
  200.83        2981.00           1637          48.00       184.40
  200.86        2981.25           1640          51.00       197.47
  200.89        2981.50           1643          48.00       184.40
  200.92        2981.75           1647          43.00       162.60
  200.95        2982.00           1650          47.00       180.04
  200.98        2982.25           1653          53.00       206.19
  201.01        2982.50           1657          51.00       197.47
  201.04        2982.75           1660          48.00       184.40
  201.07        2983.00           1663          49.00       188.75
  201.11        2983.25           1667          51.00       197.47
  201.14        2983.50           1670          57.00       223.63
  201.17        2983.75           1673          52.00       201.83
  201.20        2984.00           1677          49.00       188.75
HS scan finished at 03:21:25
end
************************************************************
  HS Scan of (1) Internal mercury lamp
************************************************************
Integration time is 0.2294 seconds per sample
dh170319Manchester 53.47 2.23 2.804185pr1000
************************************************************
Dead Time -------------------------  3E-08 
Number of Cycles Used -------------  4 
Starting Wavelength (Angstroms) ---  2950 
Final Wavelength (Angstoms) -------  2984 
Wavelength Increment (Angstroms) --  .25 
Filter Wheel #1 Position ---------- (1) Ground quartz diffuser (ND=2.32)
Filter Wheel #2 Position ---------- (1) Neutral Density 0.494



************************************************************
HS scan start time = 19:12:12
Dark Count =  7.8 


Time (GMT)  Wavelength (Ang)  Step Number  Raw Counts  Counts/Second

 1152.56        2950.00           1222          54.00       201.40
 1152.63        2950.25           1226          47.00       170.88
 1152.66        2950.50           1229          60.00       227.55
 1152.69        2950.75           1232          59.00       223.19
 1152.72        2951.00           1236          58.00       218.83
 1152.75        2951.25           1239          59.00       223.19
 1152.78        2951.50           1242          53.00       197.04
 1152.81        2951.75           1246          52.00       192.68
 1152.84        2952.00           1249          50.00       183.96
 1152.87        2952.25           1252          53.00       197.04
 1152.90        2952.50           1256          60.00       227.55
 1152.94        2952.75           1259          56.00       210.11
 1152.97        2953.00           1262          57.00       214.47
 1153.00        2953.25           1266          55.00       205.76
 1153.03        2953.50           1269          51.00       188.32
 1153.06        2953.75           1272          61.00       231.91
 1153.09        2954.00           1276          50.00       183.96
 1153.12        2954.25           1279          53.00       197.04
 1153.15        2954.50           1282          47.00       170.88
 1153.18        2954.75           1286          52.00       192.68
 1153.21        2955.00           1289          58.00       218.83
 1153.24        2955.25           1292          54.00       201.40
 1153.27        2955.50           1296          54.00       201.40
 1153.30        2955.75           1299          46.00       166.52
 1153.34        2956.00           1302          57.00       214.47
 1153.37        2956.25           1306          59.00       223.19
 1153.40        2956.50           1309          49.00       179.60
 1153.43        2956.75           1312          58.00       218.83
 1153.46        2957.00           1316          56.00       210.11
 1153.49        2957.25           1319          51.00       188.32
 1153.52        2957.50           1322          58.00       218.83
 1153.55        2957.75           1326          49.00       179.60
 1153.58        2958.00           1329          59.00       223.19
 1153.61        2958.25           1332          62.00       236.27
 1153.64        2958.50           1336          48.00       175.24
 1153.68        2958.75           1339          55.00       205.76
 1153.71        2959.00           1342          59.00       223.19
 1153.74        2959.25           1346          55.00       205.76
 1153.77        2959.50           1349          57.00       214.47
 1153.80        2959.75           1352          63.00       240.63
 1153.83        2960.00           1356          97.00       388.85
 1153.86        2960.25           1359         119.00       484.75
 1153.89        2960.50           1362         143.00       589.37
 1153.92        2960.75           1366         185.00       772.47
 1153.95        2961.00           1369         220.00       925.05
 1153.98        2961.25           1372         259.00      1095.07
 1154.01        2961.50           1376         281.00      1190.98
 1154.04        2961.75           1379         408.00      1744.64
 1154.08        2962.00           1382         783.00      3379.59
 1154.11        2962.25           1386        2013.00      8743.36
 1154.14        2962.50           1389        3158.00     13738.01
 1154.17        2962.75           1392        4316.00     18790.89
 1154.20        2963.00           1396        5818.00     25347.08
 1154.23        2963.25           1399        6987.00     30451.52
 1154.26        2963.50           1402        8236.00     35907.01
 1154.29        2963.75           1406        9858.00     42994.40
 1154.32        2964.00           1409       11112.00     48475.85
 1154.35        2964.25           1412       12311.00     53718.59
 1154.39        2964.50           1416       13964.00     60949.18
 1154.42        2964.75           1419       15170.00     66226.48
 1154.45        2965.00           1422       16485.00     71982.66
 1154.48        2965.25           1426       18164.00     79335.06
 1154.51        2965.50           1429       19390.00     84705.82
 1154.54        2965.75           1432       20458.00     89385.84
 1154.57        2966.00           1436       22286.00     97399.26
 1154.60        2966.25           1439       23392.00    102249.50
 1154.63        2966.50           1442       24523.00    107210.90
 1154.66        2966.75           1446       25769.00    112678.40
 1154.69        2967.00           1449       26269.00    114873.00
 1154.73        2967.25           1452       26404.00    115465.50
 1154.76        2967.50           1456       26381.00    115364.60
 1154.79        2967.75           1459       26522.00    115983.50
 1154.82        2968.00           1462       26355.00    115250.50
 1154.85        2968.25           1466       25716.00    112445.80
 1154.88        2968.50           1469       24747.00    108193.70
 1154.91        2968.75           1472       23681.00    103517.10
 1154.94        2969.00           1476       22205.00     97044.11
 1154.97        2969.25           1479       20938.00     91489.65
 1155.00        2969.50           1482       19891.00     86901.06
 1155.04        2969.75           1486       18362.00     80202.33
 1155.07        2970.00           1489       17114.00     74736.69
 1155.10        2970.25           1492       15926.00     69535.49
 1155.13        2970.50           1496       14145.00     61741.11
 1155.16        2970.75           1499       12944.00     56487.10
 1155.19        2971.00           1502       11704.00     51064.23
 1155.22        2971.25           1506        9979.00     43523.23
 1155.25        2971.50           1509        8740.00     38108.93
 1155.28        2971.75           1513        7125.00     31054.20
 1155.32        2972.00           1516        5918.00     25783.67
 1155.35        2972.25           1519        4646.00     20231.11
 1155.38        2972.50           1523        3210.00     13964.87
 1155.41        2972.75           1526        2155.00      9362.70
 1155.44        2973.00           1529        1072.00      4639.70
 1155.47        2973.25           1533         415.00      1775.16
 1155.50        2973.50           1536         291.00      1234.57
 1155.53        2973.75           1539         227.00       955.56
 1155.56        2974.00           1543         182.00       759.39
 1155.59        2974.25           1546         142.00       585.01
 1155.62        2974.50           1549         115.00       467.31
 1155.66        2974.75           1553          85.00       336.53
 1155.69        2975.00           1556          61.00       231.91
 1155.72        2975.25           1559          54.00       201.40
 1155.75        2975.50           1563          56.00       210.11
 1155.78        2975.75           1566          55.00       205.76
 1155.81        2976.00           1569          53.00       197.04
 1155.84        2976.25           1573          55.00       205.76
 1155.87        2976.50           1576          49.00       179.60
 1155.91        2976.75           1579          60.00       227.55
 1155.94        2977.00           1583          54.00       201.40
 1155.97        2977.25           1586          46.00       166.52
 1156.00        2977.50           1590          51.00       188.32
 1156.03        2977.75           1593          53.00       197.04
 1156.06        2978.00           1596          60.00       227.55
 1156.09        2978.25           1600          49.00       179.60
 1156.12        2978.50           1603          51.00       188.32
 1156.15        2978.75           1606          52.00       192.68
 1156.18        2979.00           1610          50.00       183.96
 1156.22        2979.25           1613          51.00       188.32
 1156.25        2979.50           1616          48.00       175.24
 1156.28        2979.75           1620          49.00       179.60
 1156.31        2980.00           1623          56.00       210.11
 1156.34        2980.25           1626          59.00       223.19
 1156.37        2980.50           1630          52.00       192.68
 1156.40        2980.75           1633          53.00       197.04
 1156.43        2981.00           1637          51.00       188.32
 1156.46        2981.25           1640          55.00       205.76
 1156.49        2981.50           1643          50.00       183.96
 1156.53        2981.75           1647          49.00       179.60
 1156.56        2982.00           1650          50.00       183.96
 1156.59        2982.25           1653          52.00       192.68
 1156.62        2982.50           1657          46.00       166.52
 1156.65        2982.75           1660          54.00       201.40
 1156.68        2983.00           1663          53.00       197.04
 1156.71        2983.25           1667          49.00       179.60
 1156.74        2983.50           1670          48.00       175.24
 1156.77        2983.75           1673          50.00       183.96
 1156.80        2984.00           1677          54.00       201.40
HS scan finished at 19:17:01
end
