************************************************************
  HS Scan of (1) Internal mercury lamp
************************************************************
Integration time is 0.2294 seconds per sample
dh160318Manchester 53.47 2.23 2.804185pr1000
************************************************************
Dead Time -------------------------  3E-08 
Number of Cycles Used -------------  4 
Starting Wavelength (Angstroms) ---  2950 
Final Wavelength (Angstoms) -------  2984 
Wavelength Increment (Angstroms) --  .25 
Filter Wheel #1 Position ---------- (1) Ground quartz diffuser (ND=2.32)
Filter Wheel #2 Position ---------- (1) Neutral Density 0.494



************************************************************
HS scan start time = 03:19:15
Dark Count =  8.600001 


Time (GMT)  Wavelength (Ang)  Step Number  Raw Counts  Counts/Second

  199.63        2950.00           1222          61.00       228.42
  199.69        2950.25           1226          61.00       228.42
  199.72        2950.50           1229          64.00       241.50
  199.75        2950.75           1232          62.00       232.78
  199.79        2951.00           1236          62.00       232.78
  199.82        2951.25           1239          62.00       232.78
  199.85        2951.50           1242          61.00       228.42
  199.88        2951.75           1246          63.00       237.14
  199.91        2952.00           1249          53.00       193.55
  199.94        2952.25           1252          58.00       215.35
  199.97        2952.50           1256          73.00       280.73
  200.00        2952.75           1259          57.00       210.99
  200.03        2953.00           1262          53.00       193.55
  200.06        2953.25           1266          56.00       206.63
  200.09        2953.50           1269          56.00       206.63
  200.12        2953.75           1272          51.00       184.83
  200.15        2954.00           1276          53.00       193.55
  200.19        2954.25           1279          66.00       250.22
  200.22        2954.50           1282          56.00       206.63
  200.25        2954.75           1286          54.00       197.91
  200.28        2955.00           1289          69.00       263.30
  200.31        2955.25           1292          61.00       228.42
  200.34        2955.50           1296          67.00       254.58
  200.37        2955.75           1299          63.00       237.14
  200.40        2956.00           1302          51.00       184.83
  200.43        2956.25           1306          52.00       189.19
  200.46        2956.50           1309          58.00       215.35
  200.49        2956.75           1312          52.00       189.19
  200.53        2957.00           1316          61.00       228.42
  200.56        2957.25           1319          61.00       228.42
  200.59        2957.50           1322          56.00       206.63
  200.62        2957.75           1326          60.00       224.06
  200.65        2958.00           1329          69.00       263.30
  200.68        2958.25           1332          58.00       215.35
  200.71        2958.50           1336          58.00       215.35
  200.74        2958.75           1339          56.00       206.63
  200.77        2959.00           1342          56.00       206.63
  200.80        2959.25           1346          60.00       224.06
  200.83        2959.50           1349          59.00       219.71
  200.86        2959.75           1352          83.00       324.33
  200.89        2960.00           1356         106.00       424.59
  200.93        2960.25           1359         126.00       511.78
  200.96        2960.50           1362         154.00       633.84
  200.99        2960.75           1366         207.00       864.89
  201.02        2961.00           1369         246.00      1034.91
  201.05        2961.25           1372         289.00      1222.36
  201.08        2961.50           1376         364.00      1549.33
  201.11        2961.75           1379         516.00      2212.00
  201.14        2962.00           1382        1096.00      4740.87
  201.18        2962.25           1386        2810.00     12216.33
  201.21        2962.50           1389        4281.00     18634.65
  201.24        2962.75           1392        5822.00     25361.05
  201.27        2963.00           1396        7713.00     33618.90
  201.30        2963.25           1399        9131.00     39813.88
  201.33        2963.50           1402       10704.00     46688.72
  201.36        2963.75           1406       12660.00     55241.43
  201.39        2964.00           1409       14266.00     62267.05
  201.42        2964.25           1412       15826.00     69094.25
  201.46        2964.50           1416       17888.00     78122.72
  201.49        2964.75           1419       19249.00     84084.56
  201.52        2965.00           1422       20898.00     91310.82
  201.55        2965.25           1426       22931.00    100224.20
  201.58        2965.50           1429       24381.00    106584.40
  201.61        2965.75           1432       25942.00    113434.20
  201.64        2966.00           1436       27990.00    122425.30
  201.67        2966.25           1439       29214.00    127801.20
  201.71        2966.50           1442       30525.00    133561.10
  201.74        2966.75           1446       31821.00    139257.10
  201.77        2967.00           1449       32163.00    140760.60
  201.80        2967.25           1452       32165.00    140769.40
  201.83        2967.50           1456       32281.00    141279.30
  201.86        2967.75           1459       32195.00    140901.20
  201.89        2968.00           1462       31883.00    139529.70
  201.92        2968.25           1466       31016.00    135718.90
  201.95        2968.50           1469       29575.00    129387.10
  201.98        2968.75           1472       28403.00    124239.00
  202.02        2969.00           1476       26331.00    115141.60
  202.05        2969.25           1479       24754.00    108220.90
  202.08        2969.50           1482       23411.00    102329.40
  202.11        2969.75           1486       21529.00     94076.83
  202.14        2970.00           1489       19907.00     86967.68
  202.17        2970.25           1492       18732.00     81819.60
  202.20        2970.50           1496       16670.00     72789.12
  202.23        2970.75           1499       15286.00     66730.66
  202.26        2971.00           1502       13681.00     59707.55
  202.30        2971.25           1506       11584.00     50536.02
  202.33        2971.50           1509       10097.00     44035.47
  202.36        2971.75           1513        8164.00     35588.98
  202.39        2972.00           1516        6604.00     28775.49
  202.42        2972.25           1519        5325.00     23191.37
  202.45        2972.50           1523        3450.00     15008.50
  202.48        2972.75           1526        2091.00      9080.07
  202.51        2973.00           1529         954.00      4121.70
  202.54        2973.25           1533         393.00      1675.76
  202.57        2973.50           1536         312.00      1322.63
  202.61        2973.75           1539         276.00      1165.69
  202.64        2974.00           1543         236.00       991.31
  202.67        2974.25           1546         164.00       677.43
  202.70        2974.50           1549         132.00       537.93
  202.73        2974.75           1553          96.00       381.00
  202.76        2975.00           1556          76.00       293.81
  202.79        2975.25           1559          59.00       219.71
  202.82        2975.50           1563          58.00       215.35
  202.85        2975.75           1566          56.00       206.63
  202.88        2976.00           1569          61.00       228.42
  202.91        2976.25           1573          58.00       215.35
  202.95        2976.50           1576          56.00       206.63
  202.98        2976.75           1579          55.00       202.27
  203.01        2977.00           1583          48.00       171.75
  203.04        2977.25           1586          59.00       219.71
  203.07        2977.50           1590          61.00       228.42
  203.10        2977.75           1593          60.00       224.06
  203.13        2978.00           1596          54.00       197.91
  203.16        2978.25           1600          51.00       184.83
  203.19        2978.50           1603          65.00       245.86
  203.22        2978.75           1606          52.00       189.19
  203.25        2979.00           1610          58.00       215.35
  203.29        2979.25           1613          57.00       210.99
  203.32        2979.50           1616          52.00       189.19
  203.35        2979.75           1620          65.00       245.86
  203.38        2980.00           1623          55.00       202.27
  203.41        2980.25           1626          56.00       206.63
  203.44        2980.50           1630          60.00       224.06
  203.47        2980.75           1633          60.00       224.06
  203.50        2981.00           1637          54.00       197.91
  203.53        2981.25           1640          59.00       219.71
  203.56        2981.50           1643          51.00       184.83
  203.59        2981.75           1647          48.00       171.75
  203.62        2982.00           1650          52.00       189.19
  203.66        2982.25           1653          51.00       184.83
  203.69        2982.50           1657          55.00       202.27
  203.72        2982.75           1660          55.00       202.27
  203.75        2983.00           1663          52.00       189.19
  203.78        2983.25           1667          43.00       149.96
  203.81        2983.50           1670          53.00       193.55
  203.84        2983.75           1673          53.00       193.55
  203.87        2984.00           1677          48.00       171.75
HS scan finished at 03:24:05
end
************************************************************
  HS Scan of (1) Internal mercury lamp
************************************************************
Integration time is 0.2294 seconds per sample
dh160318Manchester 53.47 2.23 2.804185pr1000
************************************************************
Dead Time -------------------------  3E-08 
Number of Cycles Used -------------  4 
Starting Wavelength (Angstroms) ---  2950 
Final Wavelength (Angstoms) -------  2984 
Wavelength Increment (Angstroms) --  .25 
Filter Wheel #1 Position ---------- (1) Ground quartz diffuser (ND=2.32)
Filter Wheel #2 Position ---------- (1) Neutral Density 0.494



************************************************************
HS scan start time = 19:12:03
Dark Count =  6.2 


Time (GMT)  Wavelength (Ang)  Step Number  Raw Counts  Counts/Second

 1152.43        2950.00           1222          57.00       221.45
 1152.49        2950.25           1226          66.00       260.68
 1152.52        2950.50           1229          55.00       212.73
 1152.55        2950.75           1232          58.00       225.81
 1152.58        2951.00           1236          56.00       217.09
 1152.61        2951.25           1239          53.00       204.01
 1152.64        2951.50           1242          53.00       204.01
 1152.68        2951.75           1246          61.00       238.89
 1152.71        2952.00           1249          61.00       238.89
 1152.74        2952.25           1252          67.00       265.04
 1152.77        2952.50           1256          57.00       221.45
 1152.80        2952.75           1259          67.00       265.04
 1152.83        2953.00           1262          58.00       225.81
 1152.86        2953.25           1266          76.00       304.27
 1152.89        2953.50           1269          68.00       269.40
 1152.92        2953.75           1272          62.00       243.25
 1152.95        2954.00           1276          57.00       221.45
 1152.98        2954.25           1279          55.00       212.73
 1153.02        2954.50           1282          55.00       212.73
 1153.05        2954.75           1286          58.00       225.81
 1153.08        2955.00           1289          61.00       238.89
 1153.11        2955.25           1292          59.00       230.17
 1153.14        2955.50           1296          62.00       243.25
 1153.17        2955.75           1299          64.00       251.96
 1153.20        2956.00           1302          56.00       217.09
 1153.23        2956.25           1306          62.00       243.25
 1153.26        2956.50           1309          61.00       238.89
 1153.29        2956.75           1312          57.00       221.45
 1153.32        2957.00           1316          59.00       230.17
 1153.35        2957.25           1319          58.00       225.81
 1153.38        2957.50           1322          61.00       238.89
 1153.41        2957.75           1326          62.00       243.25
 1153.45        2958.00           1329          60.00       234.53
 1153.48        2958.25           1332          57.00       221.45
 1153.51        2958.50           1336          63.00       247.60
 1153.54        2958.75           1339          69.00       273.76
 1153.57        2959.00           1342          63.00       247.60
 1153.60        2959.25           1346          62.00       243.25
 1153.63        2959.50           1349          70.00       278.12
 1153.66        2959.75           1352          69.00       273.76
 1153.69        2960.00           1356         106.00       435.05
 1153.72        2960.25           1359         129.00       535.32
 1153.75        2960.50           1362         184.00       775.08
 1153.78        2960.75           1366         248.00      1054.09
 1153.81        2961.00           1369         255.00      1084.60
 1153.84        2961.25           1372         289.00      1232.83
 1153.88        2961.50           1376         363.00      1555.43
 1153.91        2961.75           1379         458.00      1969.60
 1153.94        2962.00           1382        1006.00      4358.90
 1153.97        2962.25           1386        2532.00     11014.10
 1154.00        2962.50           1389        3929.00     17109.04
 1154.03        2962.75           1392        5373.00     23411.38
 1154.06        2963.00           1396        7126.00     31065.56
 1154.09        2963.25           1399        8587.00     37447.45
 1154.12        2963.50           1402       10028.00     43744.39
 1154.16        2963.75           1406       12124.00     52907.80
 1154.19        2964.00           1409       13628.00     59486.19
 1154.22        2964.25           1412       15277.00     66701.78
 1154.25        2964.50           1416       17424.00     76101.18
 1154.28        2964.75           1419       18794.00     82101.71
 1154.31        2965.00           1422       20467.00     89432.31
 1154.34        2965.25           1426       22440.00     98081.56
 1154.37        2965.50           1429       23817.00    104120.70
 1154.40        2965.75           1432       25499.00    111500.50
 1154.43        2966.00           1436       27399.00    119840.70
 1154.47        2966.25           1439       28712.00    125606.70
 1154.50        2966.50           1442       29942.00    131010.00
 1154.53        2966.75           1446       31646.00    138498.40
 1154.56        2967.00           1449       32057.00    140305.10
 1154.59        2967.25           1452       32019.00    140138.10
 1154.62        2967.50           1456       32035.00    140208.40
 1154.65        2967.75           1459       32024.00    140160.10
 1154.68        2968.00           1462       31759.00    138995.10
 1154.71        2968.25           1466       30775.00    134670.30
 1154.74        2968.50           1469       29512.00    129120.80
 1154.77        2968.75           1472       28141.00    123098.90
 1154.80        2969.00           1476       26164.00    114419.10
 1154.84        2969.25           1479       24841.00    108613.10
 1154.87        2969.50           1482       23287.00    101796.00
 1154.90        2969.75           1486       21557.00     94210.09
 1154.93        2970.00           1489       20127.00     87942.27
 1154.96        2970.25           1492       18520.00     80901.43
 1154.99        2970.50           1496       16490.00     72011.55
 1155.02        2970.75           1499       14909.00     65091.24
 1155.05        2971.00           1502       13455.00     58729.37
 1155.08        2971.25           1506       11437.00     49903.78
 1155.11        2971.50           1509        9883.00     43110.65
 1155.15        2971.75           1513        8090.00     35276.20
 1155.18        2972.00           1516        6784.00     29572.00
 1155.21        2972.25           1519        5417.00     23603.46
 1155.24        2972.50           1523        3374.00     14687.38
 1155.27        2972.75           1526        1966.00      8545.35
 1155.30        2973.00           1529         862.00      3731.02
 1155.33        2973.25           1533         401.00      1721.10
 1155.36        2973.50           1536         309.00      1320.02
 1155.39        2973.75           1539         277.00      1180.51
 1155.42        2974.00           1543         235.00       997.41
 1155.45        2974.25           1546         173.00       727.13
 1155.49        2974.50           1549         142.00       591.99
 1155.52        2974.75           1553         101.00       413.26
 1155.55        2975.00           1556          79.00       317.35
 1155.58        2975.25           1559          59.00       230.17
 1155.61        2975.50           1563          52.00       199.65
 1155.64        2975.75           1566          55.00       212.73
 1155.67        2976.00           1569          51.00       195.29
 1155.70        2976.25           1573          58.00       225.81
 1155.73        2976.50           1576          55.00       212.73
 1155.76        2976.75           1579          62.00       243.25
 1155.80        2977.00           1583          55.00       212.73
 1155.83        2977.25           1586          56.00       217.09
 1155.86        2977.50           1590          49.00       186.57
 1155.89        2977.75           1593          56.00       217.09
 1155.92        2978.00           1596          59.00       230.17
 1155.95        2978.25           1600          58.00       225.81
 1155.98        2978.50           1603          54.00       208.37
 1156.01        2978.75           1606          65.00       256.32
 1156.04        2979.00           1610          56.00       217.09
 1156.07        2979.25           1613          58.00       225.81
 1156.10        2979.50           1616          56.00       217.09
 1156.13        2979.75           1620          52.00       199.65
 1156.16        2980.00           1623          62.00       243.25
 1156.19        2980.25           1626          60.00       234.53
 1156.23        2980.50           1630          49.00       186.57
 1156.26        2980.75           1633          51.00       195.29
 1156.29        2981.00           1637          58.00       225.81
 1156.32        2981.25           1640          52.00       199.65
 1156.35        2981.50           1643          54.00       208.37
 1156.38        2981.75           1647          70.00       278.12
 1156.41        2982.00           1650          52.00       199.65
 1156.44        2982.25           1653          64.00       251.96
 1156.47        2982.50           1657          71.00       282.48
 1156.50        2982.75           1660          63.00       247.60
 1156.53        2983.00           1663          56.00       217.09
 1156.56        2983.25           1667          54.00       208.37
 1156.59        2983.50           1670          53.00       204.01
 1156.63        2983.75           1673          57.00       221.45
 1156.66        2984.00           1677          54.00       208.37
HS scan finished at 19:16:52
end
