************************************************************
  HS Scan of (1) Internal mercury lamp
************************************************************
Integration time is 0.2294 seconds per sample
dh140317Manchester 53.47 2.23 2.804185pr1000
************************************************************
Dead Time -------------------------  3E-08 
Number of Cycles Used -------------  4 
Starting Wavelength (Angstroms) ---  2950 
Final Wavelength (Angstoms) -------  2984 
Wavelength Increment (Angstroms) --  .25 
Filter Wheel #1 Position ---------- (1) Ground quartz diffuser (ND=2.32)
Filter Wheel #2 Position ---------- (1) Neutral Density 0.494



************************************************************
HS scan start time = 03:25:41
Dark Count =  6.5 


Time (GMT)  Wavelength (Ang)  Step Number  Raw Counts  Counts/Second

  206.05        2950.00           1222          45.00       167.83
  206.12        2950.25           1226          43.00       159.11
  206.15        2950.50           1229          45.00       167.83
  206.18        2950.75           1232          47.00       176.55
  206.21        2951.00           1236          43.00       159.11
  206.24        2951.25           1239          44.00       163.47
  206.27        2951.50           1242          46.00       172.19
  206.30        2951.75           1246          48.00       180.91
  206.33        2952.00           1249          50.00       189.63
  206.36        2952.25           1252          48.00       180.91
  206.39        2952.50           1256          43.00       159.11
  206.42        2952.75           1259          45.00       167.83
  206.45        2953.00           1262          43.00       159.11
  206.49        2953.25           1266          44.00       163.47
  206.52        2953.50           1269          55.00       211.42
  206.55        2953.75           1272          50.00       189.63
  206.58        2954.00           1276          45.00       167.83
  206.61        2954.25           1279          45.00       167.83
  206.64        2954.50           1282          43.00       159.11
  206.67        2954.75           1286          47.00       176.55
  206.70        2955.00           1289          38.00       137.32
  206.73        2955.25           1292          46.00       172.19
  206.76        2955.50           1296          44.00       163.47
  206.79        2955.75           1299          42.00       154.75
  206.82        2956.00           1302          48.00       180.91
  206.85        2956.25           1306          51.00       193.99
  206.88        2956.50           1309          53.00       202.70
  206.91        2956.75           1312          44.00       163.47
  206.94        2957.00           1316          51.00       193.99
  206.97        2957.25           1319          49.00       185.27
  207.01        2957.50           1322          41.00       150.39
  207.04        2957.75           1326          52.00       198.34
  207.07        2958.00           1329          48.00       180.91
  207.10        2958.25           1332          47.00       176.55
  207.13        2958.50           1336          48.00       180.91
  207.16        2958.75           1339          51.00       193.99
  207.19        2959.00           1342          47.00       176.55
  207.22        2959.25           1346          46.00       172.19
  207.25        2959.50           1349          51.00       193.99
  207.28        2959.75           1352          57.00       220.14
  207.31        2960.00           1356          83.00       333.48
  207.34        2960.25           1359         102.00       416.31
  207.38        2960.50           1362         144.00       599.40
  207.41        2960.75           1366         207.00       874.04
  207.44        2961.00           1369         238.00      1009.18
  207.47        2961.25           1372         299.00      1275.11
  207.50        2961.50           1376         347.00      1484.37
  207.53        2961.75           1379         478.00      2055.49
  207.56        2962.00           1382         863.00      3734.07
  207.59        2962.25           1386        2306.00     10026.99
  207.62        2962.50           1389        3853.00     16776.10
  207.66        2962.75           1392        5390.00     23484.28
  207.69        2963.00           1396        7606.00     33160.70
  207.72        2963.25           1399        9205.00     40146.40
  207.75        2963.50           1402       10796.00     47100.07
  207.78        2963.75           1406       13052.00     56965.19
  207.81        2964.00           1409       14796.00     64595.42
  207.84        2964.25           1412       16424.00     71721.29
  207.87        2964.50           1416       18703.00     81701.75
  207.90        2964.75           1419       20340.00     88874.40
  207.94        2965.00           1422       22005.00     96172.90
  207.97        2965.25           1426       24196.00    105782.00
  208.00        2965.50           1429       25666.00    112232.10
  208.03        2965.75           1432       27350.00    119624.30
  208.06        2966.00           1436       29682.00    129866.40
  208.09        2966.25           1439       31303.00    136989.50
  208.12        2966.50           1442       32962.00    144282.70
  208.15        2966.75           1446       34877.00    152705.40
  208.18        2967.00           1449       35798.00    156757.70
  208.22        2967.25           1452       35674.00    156212.10
  208.25        2967.50           1456       35940.00    157382.60
  208.28        2967.75           1459       35823.00    156867.70
  208.31        2968.00           1462       35612.00    155939.20
  208.34        2968.25           1466       35200.00    154126.40
  208.37        2968.50           1469       34207.00    149758.10
  208.40        2968.75           1472       32565.00    142537.20
  208.43        2969.00           1476       30484.00    133390.20
  208.46        2969.25           1479       28780.00    125904.10
  208.49        2969.50           1482       27162.00    118798.90
  208.53        2969.75           1486       24824.00    108537.20
  208.56        2970.00           1489       23305.00    101873.70
  208.59        2970.25           1492       21672.00     94712.94
  208.62        2970.50           1496       19505.00     85215.40
  208.65        2970.75           1499       18061.00     78889.63
  208.68        2971.00           1502       16409.00     71655.61
  208.71        2971.25           1506       14201.00     61991.82
  208.74        2971.50           1509       12436.00     54270.94
  208.77        2971.75           1513       10208.00     44529.81
  208.81        2972.00           1516        8572.00     37380.61
  208.84        2972.25           1519        6853.00     29872.01
  208.87        2972.50           1523        4862.00     21179.54
  208.90        2972.75           1526        3203.00     13940.01
  208.93        2973.00           1529        1747.00      7588.91
  208.96        2973.25           1533         611.00      2635.34
  208.99        2973.50           1536         363.00      1554.13
  209.02        2973.75           1539         310.00      1323.07
  209.05        2974.00           1543         271.00      1153.05
  209.08        2974.25           1546         187.00       786.85
  209.11        2974.50           1549         153.00       638.63
  209.14        2974.75           1553         108.00       442.46
  209.17        2975.00           1556          76.00       302.97
  209.21        2975.25           1559          65.00       255.02
  209.24        2975.50           1563          45.00       167.83
  209.27        2975.75           1566          73.00       289.89
  209.30        2976.00           1569          47.00       176.55
  209.33        2976.25           1573          41.00       150.39
  209.36        2976.50           1576          38.00       137.32
  209.39        2976.75           1579          41.00       150.39
  209.42        2977.00           1583          46.00       172.19
  209.45        2977.25           1586          41.00       150.39
  209.48        2977.50           1590          53.00       202.70
  209.51        2977.75           1593          51.00       193.99
  209.54        2978.00           1596          46.00       172.19
  209.58        2978.25           1600          49.00       185.27
  209.61        2978.50           1603          42.00       154.75
  209.64        2978.75           1606          50.00       189.63
  209.67        2979.00           1610          48.00       180.91
  209.70        2979.25           1613          52.00       198.34
  209.73        2979.50           1616          51.00       193.99
  209.76        2979.75           1620          40.00       146.03
  209.79        2980.00           1623          41.00       150.39
  209.82        2980.25           1626          44.00       163.47
  209.85        2980.50           1630          52.00       198.34
  209.88        2980.75           1633          47.00       176.55
  209.91        2981.00           1637          44.00       163.47
  209.94        2981.25           1640          45.00       167.83
  209.98        2981.50           1643          47.00       176.55
  210.01        2981.75           1647          39.00       141.67
  210.04        2982.00           1650          46.00       172.19
  210.07        2982.25           1653          48.00       180.91
  210.10        2982.50           1657          38.00       137.32
  210.13        2982.75           1660          44.00       163.47
  210.16        2983.00           1663          41.00       150.39
  210.19        2983.25           1667          47.00       176.55
  210.22        2983.50           1670          43.00       159.11
  210.25        2983.75           1673          40.00       146.03
  210.28        2984.00           1677          42.00       154.75
HS scan finished at 03:30:30
end
************************************************************
  HS Scan of (1) Internal mercury lamp
************************************************************
Integration time is 0.2294 seconds per sample
dh140317Manchester 53.47 2.23 2.804185pr1000
************************************************************
Dead Time -------------------------  3E-08 
Number of Cycles Used -------------  4 
Starting Wavelength (Angstroms) ---  2950 
Final Wavelength (Angstoms) -------  2984 
Wavelength Increment (Angstroms) --  .25 
Filter Wheel #1 Position ---------- (1) Ground quartz diffuser (ND=2.32)
Filter Wheel #2 Position ---------- (1) Neutral Density 0.494



************************************************************
HS scan start time = 19:12:00
Dark Count =  5.5 


Time (GMT)  Wavelength (Ang)  Step Number  Raw Counts  Counts/Second

 1152.38        2950.00           1222          45.00       172.19
 1152.44        2950.25           1226          42.00       159.11
 1152.47        2950.50           1229          51.00       198.34
 1152.51        2950.75           1232          36.00       132.96
 1152.54        2951.00           1236          55.00       215.78
 1152.57        2951.25           1239          44.00       167.83
 1152.60        2951.50           1242          48.00       185.27
 1152.63        2951.75           1246          45.00       172.19
 1152.66        2952.00           1249          48.00       185.27
 1152.69        2952.25           1252          46.00       176.55
 1152.72        2952.50           1256          41.00       154.75
 1152.75        2952.75           1259          43.00       163.47
 1152.78        2953.00           1262          46.00       176.55
 1152.81        2953.25           1266          45.00       172.19
 1152.84        2953.50           1269          53.00       207.06
 1152.87        2953.75           1272          46.00       176.55
 1152.90        2954.00           1276          54.00       211.42
 1152.94        2954.25           1279          44.00       167.83
 1152.97        2954.50           1282          46.00       176.55
 1153.00        2954.75           1286          49.00       189.63
 1153.03        2955.00           1289          41.00       154.75
 1153.06        2955.25           1292          45.00       172.19
 1153.09        2955.50           1296          47.00       180.91
 1153.12        2955.75           1299          50.00       193.99
 1153.15        2956.00           1302          54.00       211.42
 1153.18        2956.25           1306          41.00       154.75
 1153.21        2956.50           1309          48.00       185.27
 1153.24        2956.75           1312          46.00       176.55
 1153.27        2957.00           1316          56.00       220.14
 1153.30        2957.25           1319          42.00       159.11
 1153.33        2957.50           1322          43.00       163.47
 1153.37        2957.75           1326          39.00       146.03
 1153.40        2958.00           1329          46.00       176.55
 1153.43        2958.25           1332          47.00       180.91
 1153.46        2958.50           1336          46.00       176.55
 1153.49        2958.75           1339          45.00       172.19
 1153.52        2959.00           1342          50.00       193.99
 1153.55        2959.25           1346          57.00       224.50
 1153.58        2959.50           1349          64.00       255.02
 1153.61        2959.75           1352          72.00       289.89
 1153.64        2960.00           1356         111.00       459.90
 1153.67        2960.25           1359         139.00       581.96
 1153.70        2960.50           1362         175.00       738.90
 1153.73        2960.75           1366         248.00      1057.14
 1153.77        2961.00           1369         271.00      1157.41
 1153.80        2961.25           1372         325.00      1392.82
 1153.83        2961.50           1376         402.00      1728.51
 1153.86        2961.75           1379         622.00      2687.66
 1153.89        2962.00           1382        1346.00      5844.53
 1153.92        2962.25           1386        3126.00     13608.43
 1153.95        2962.50           1389        4724.00     20581.58
 1153.98        2962.75           1392        6305.00     27483.42
 1154.01        2963.00           1396        8501.00     37074.78
 1154.04        2963.25           1399        9973.00     43507.06
 1154.07        2963.50           1402       11638.00     50785.69
 1154.11        2963.75           1406       13840.00     60416.73
 1154.14        2964.00           1409       15538.00     67847.21
 1154.17        2964.25           1412       17284.00     75491.19
 1154.20        2964.50           1416       19457.00     85009.46
 1154.23        2964.75           1419       21159.00     92468.46
 1154.26        2965.00           1422       23006.00    100566.70
 1154.29        2965.25           1426       25297.00    110617.10
 1154.32        2965.50           1429       26981.00    118008.60
 1154.35        2965.75           1432       28591.00    125078.30
 1154.39        2966.00           1436       30769.00    134647.00
 1154.42        2966.25           1439       32369.00    141679.80
 1154.45        2966.50           1442       33782.00    147893.20
 1154.48        2966.75           1446       35253.00    154364.00
 1154.51        2967.00           1449       35532.00    155591.60
 1154.54        2967.25           1452       35643.00    156080.10
 1154.57        2967.50           1456       35703.00    156344.10
 1154.60        2967.75           1459       35580.00    155802.90
 1154.63        2968.00           1462       35134.00    153840.50
 1154.66        2968.25           1466       34034.00    149001.50
 1154.69        2968.50           1469       32715.00    143201.10
 1154.73        2968.75           1472       30962.00    135495.20
 1154.76        2969.00           1476       28883.00    126360.90
 1154.79        2969.25           1479       27611.00    120774.70
 1154.82        2969.50           1482       25918.00    113342.50
 1154.85        2969.75           1486       23767.00    103904.50
 1154.88        2970.00           1489       22227.00     97150.65
 1154.91        2970.25           1492       20601.00     90022.66
 1154.94        2970.50           1496       18428.00     80501.51
 1154.97        2970.75           1499       16585.00     72430.54
 1155.00        2971.00           1502       15030.00     65623.84
 1155.04        2971.25           1506       12832.00     56007.28
 1155.07        2971.50           1509       11066.00     48284.80
 1155.10        2971.75           1513        9010.00     39298.70
 1155.13        2972.00           1516        7401.00     32269.68
 1155.16        2972.25           1519        5705.00     24863.79
 1155.19        2972.50           1523        3617.00     15750.69
 1155.22        2972.75           1526        2160.00      9394.54
 1155.25        2973.00           1529        1090.00      4728.22
 1155.28        2973.25           1533         443.00      1907.26
 1155.32        2973.50           1536         305.00      1305.63
 1155.35        2973.75           1539         266.00      1135.61
 1155.38        2974.00           1543         225.00       956.87
 1155.41        2974.25           1546         159.00       669.15
 1155.44        2974.50           1549         115.00       477.34
 1155.47        2974.75           1553          72.00       289.89
 1155.50        2975.00           1556          61.00       241.94
 1155.53        2975.25           1559          47.00       180.91
 1155.56        2975.50           1563          45.00       172.19
 1155.60        2975.75           1566          50.00       193.99
 1155.63        2976.00           1569          55.00       215.78
 1155.66        2976.25           1573          52.00       202.70
 1155.69        2976.50           1576          44.00       167.83
 1155.72        2976.75           1579          43.00       163.47
 1155.75        2977.00           1583          47.00       180.91
 1155.78        2977.25           1586          43.00       163.47
 1155.81        2977.50           1590          45.00       172.19
 1155.84        2977.75           1593          42.00       159.11
 1155.87        2978.00           1596          47.00       180.91
 1155.90        2978.25           1600          54.00       211.42
 1155.93        2978.50           1603          46.00       176.55
 1155.97        2978.75           1606          44.00       167.83
 1156.00        2979.00           1610          49.00       189.63
 1156.03        2979.25           1613          45.00       172.19
 1156.06        2979.50           1616          45.00       172.19
 1156.09        2979.75           1620          47.00       180.91
 1156.12        2980.00           1623          45.00       172.19
 1156.15        2980.25           1626          45.00       172.19
 1156.18        2980.50           1630          48.00       185.27
 1156.21        2980.75           1633          43.00       163.47
 1156.24        2981.00           1637          45.00       172.19
 1156.27        2981.25           1640          45.00       172.19
 1156.31        2981.50           1643          48.00       185.27
 1156.34        2981.75           1647          49.00       189.63
 1156.37        2982.00           1650          46.00       176.55
 1156.40        2982.25           1653          43.00       163.47
 1156.43        2982.50           1657          44.00       167.83
 1156.46        2982.75           1660          47.00       180.91
 1156.49        2983.00           1663          49.00       189.63
 1156.52        2983.25           1667          44.00       167.83
 1156.55        2983.50           1670          47.00       180.91
 1156.58        2983.75           1673          47.00       180.91
 1156.61        2984.00           1677          48.00       185.27
HS scan finished at 19:16:50
end
