************************************************************
  HS Scan of (1) Internal mercury lamp
************************************************************
Integration time is 0.2294 seconds per sample
dh180319Manchester 53.47 2.23 2.804185pr1000
************************************************************
Dead Time -------------------------  3E-08 
Number of Cycles Used -------------  4 
Starting Wavelength (Angstroms) ---  2950 
Final Wavelength (Angstoms) -------  2984 
Wavelength Increment (Angstroms) --  .25 
Filter Wheel #1 Position ---------- (1) Ground quartz diffuser (ND=2.32)
Filter Wheel #2 Position ---------- (1) Neutral Density 0.494



************************************************************
HS scan start time = 03:12:39
Dark Count =  6.1 


Time (GMT)  Wavelength (Ang)  Step Number  Raw Counts  Counts/Second

  193.02        2950.00           1222          57.00       221.88
  193.09        2950.25           1226          56.00       217.53
  193.12        2950.50           1229          58.00       226.24
  193.15        2950.75           1232          61.00       239.32
  193.18        2951.00           1236          54.00       208.81
  193.21        2951.25           1239          53.00       204.45
  193.24        2951.50           1242          57.00       221.88
  193.27        2951.75           1246          67.00       265.48
  193.30        2952.00           1249          57.00       221.88
  193.33        2952.25           1252          53.00       204.45
  193.36        2952.50           1256          54.00       208.81
  193.40        2952.75           1259          52.00       200.09
  193.43        2953.00           1262          60.00       234.96
  193.46        2953.25           1266          62.00       243.68
  193.49        2953.50           1269          50.00       191.37
  193.52        2953.75           1272          49.00       187.01
  193.55        2954.00           1276          50.00       191.37
  193.58        2954.25           1279          51.00       195.73
  193.61        2954.50           1282          51.00       195.73
  193.64        2954.75           1286          48.00       182.65
  193.68        2955.00           1289          56.00       217.53
  193.71        2955.25           1292          55.00       213.17
  193.74        2955.50           1296          52.00       200.09
  193.77        2955.75           1299          57.00       221.88
  193.80        2956.00           1302          56.00       217.53
  193.83        2956.25           1306          58.00       226.24
  193.86        2956.50           1309          58.00       226.24
  193.89        2956.75           1312          58.00       226.24
  193.92        2957.00           1316          61.00       239.32
  193.95        2957.25           1319          52.00       200.09
  193.98        2957.50           1322          58.00       226.24
  194.01        2957.75           1326          46.00       173.93
  194.04        2958.00           1329          53.00       204.45
  194.08        2958.25           1332          53.00       204.45
  194.11        2958.50           1336          61.00       239.32
  194.14        2958.75           1339          54.00       208.81
  194.17        2959.00           1342          64.00       252.40
  194.20        2959.25           1346          58.00       226.24
  194.23        2959.50           1349          64.00       252.40
  194.26        2959.75           1352          73.00       291.63
  194.29        2960.00           1356          92.00       374.46
  194.32        2960.25           1359         106.00       435.49
  194.36        2960.50           1362         140.00       583.71
  194.39        2960.75           1366         176.00       740.64
  194.42        2961.00           1369         205.00       867.07
  194.45        2961.25           1372         265.00      1128.63
  194.48        2961.50           1376         297.00      1268.14
  194.51        2961.75           1379         370.00      1586.39
  194.54        2962.00           1382         653.00      2820.20
  194.57        2962.25           1386        1734.00      7533.96
  194.60        2962.50           1389        2948.00     12829.26
  194.63        2962.75           1392        4094.00     17829.50
  194.67        2963.00           1396        5716.00     24909.19
  194.70        2963.25           1399        6872.00     29956.73
  194.73        2963.50           1402        8024.00     34988.32
  194.76        2963.75           1406        9758.00     42564.79
  194.79        2964.00           1409       11050.00     48212.23
  194.82        2964.25           1412       12394.00     54089.01
  194.85        2964.50           1416       13958.00     60930.38
  194.88        2964.75           1419       15143.00     66115.76
  194.91        2965.00           1422       16296.00     71162.66
  194.95        2965.25           1426       18136.00     79219.88
  194.98        2965.50           1429       19279.00     84226.94
  195.01        2965.75           1432       20638.00     90182.19
  195.04        2966.00           1436       22186.00     96968.25
  195.07        2966.25           1439       23292.00    101818.40
  195.10        2966.50           1442       24567.00    107411.40
  195.13        2966.75           1446       25895.00    113238.90
  195.16        2967.00           1449       26348.00    115227.20
  195.19        2967.25           1452       26470.00    115762.70
  195.22        2967.50           1456       26472.00    115771.50
  195.26        2967.75           1459       26480.00    115806.60
  195.29        2968.00           1462       26330.00    115148.20
  195.32        2968.25           1466       25851.00    113045.80
  195.35        2968.50           1469       24937.00    109034.80
  195.38        2968.75           1472       23815.00    104112.40
  195.41        2969.00           1476       22228.00     97152.41
  195.44        2969.25           1479       20913.00     91387.53
  195.47        2969.50           1482       19819.00     86593.02
  195.50        2969.75           1486       18213.00     79557.15
  195.54        2970.00           1489       16898.00     73798.35
  195.57        2970.25           1492       15671.00     68426.73
  195.60        2970.50           1496       14298.00     62418.00
  195.63        2970.75           1499       13038.00     56905.70
  195.66        2971.00           1502       11835.00     51644.48
  195.69        2971.25           1506       10177.00     44396.06
  195.72        2971.50           1509        9036.00     39409.69
  195.75        2971.75           1513        7346.00     32026.84
  195.79        2972.00           1516        6042.00     26332.48
  195.82        2972.25           1519        4898.00     21338.42
  195.85        2972.50           1523        3271.00     14238.43
  195.88        2972.75           1526        2134.00      9278.52
  195.91        2973.00           1529        1116.00      4838.98
  195.94        2973.25           1533         403.00      1730.26
  195.97        2973.50           1536         271.00      1154.79
  196.00        2973.75           1539         216.00       915.02
  196.03        2974.00           1543         176.00       740.64
  196.06        2974.25           1546         143.00       596.78
  196.10        2974.50           1549         112.00       461.65
  196.13        2974.75           1553          79.00       317.79
  196.16        2975.00           1556          65.00       256.76
  196.19        2975.25           1559          58.00       226.24
  196.22        2975.50           1563          51.00       195.73
  196.25        2975.75           1566          56.00       217.53
  196.28        2976.00           1569          53.00       204.45
  196.31        2976.25           1573          50.00       191.37
  196.34        2976.50           1576          48.00       182.65
  196.38        2976.75           1579          59.00       230.60
  196.41        2977.00           1583          52.00       200.09
  196.44        2977.25           1586          47.00       178.29
  196.47        2977.50           1590          50.00       191.37
  196.50        2977.75           1593          54.00       208.81
  196.53        2978.00           1596          55.00       213.17
  196.56        2978.25           1600          48.00       182.65
  196.59        2978.50           1603          55.00       213.17
  196.62        2978.75           1606          55.00       213.17
  196.66        2979.00           1610          49.00       187.01
  196.69        2979.25           1613          54.00       208.81
  196.72        2979.50           1616          53.00       204.45
  196.75        2979.75           1620          47.00       178.29
  196.78        2980.00           1623          59.00       230.60
  196.81        2980.25           1626          56.00       217.53
  196.84        2980.50           1630          55.00       213.17
  196.87        2980.75           1633          51.00       195.73
  196.90        2981.00           1637          53.00       204.45
  196.93        2981.25           1640          57.00       221.88
  196.96        2981.50           1643          53.00       204.45
  196.99        2981.75           1647          44.00       165.21
  197.03        2982.00           1650          46.00       173.93
  197.06        2982.25           1653          59.00       230.60
  197.09        2982.50           1657          53.00       204.45
  197.12        2982.75           1660          49.00       187.01
  197.15        2983.00           1663          51.00       195.73
  197.18        2983.25           1667          49.00       187.01
  197.21        2983.50           1670          49.00       187.01
  197.24        2983.75           1673          52.00       200.09
  197.27        2984.00           1677          48.00       182.65
HS scan finished at 03:17:29
end
************************************************************
  HS Scan of (1) Internal mercury lamp
************************************************************
Integration time is 0.2294 seconds per sample
dh180319Manchester 53.47 2.23 2.804185pr1000
************************************************************
Dead Time -------------------------  3E-08 
Number of Cycles Used -------------  4 
Starting Wavelength (Angstroms) ---  2950 
Final Wavelength (Angstoms) -------  2984 
Wavelength Increment (Angstroms) --  .25 
Filter Wheel #1 Position ---------- (1) Ground quartz diffuser (ND=2.32)
Filter Wheel #2 Position ---------- (1) Neutral Density 0.494



************************************************************
HS scan start time = 19:12:07
Dark Count =  6.3 


Time (GMT)  Wavelength (Ang)  Step Number  Raw Counts  Counts/Second

 1152.49        2950.00           1222          56.00       216.65
 1152.55        2950.25           1226          45.00       168.70
 1152.58        2950.50           1229          60.00       234.09
 1152.62        2950.75           1232          52.00       199.22
 1152.65        2951.00           1236          55.00       212.29
 1152.68        2951.25           1239          51.00       194.86
 1152.71        2951.50           1242          53.00       203.58
 1152.74        2951.75           1246          55.00       212.29
 1152.77        2952.00           1249          54.00       207.94
 1152.80        2952.25           1252          55.00       212.29
 1152.83        2952.50           1256          54.00       207.94
 1152.86        2952.75           1259          53.00       203.58
 1152.89        2953.00           1262          52.00       199.22
 1152.92        2953.25           1266          55.00       212.29
 1152.95        2953.50           1269          55.00       212.29
 1152.98        2953.75           1272          55.00       212.29
 1153.02        2954.00           1276          63.00       247.17
 1153.05        2954.25           1279          53.00       203.58
 1153.08        2954.50           1282          53.00       203.58
 1153.11        2954.75           1286          49.00       186.14
 1153.14        2955.00           1289          52.00       199.22
 1153.17        2955.25           1292          49.00       186.14
 1153.20        2955.50           1296          57.00       221.01
 1153.23        2955.75           1299          56.00       216.65
 1153.26        2956.00           1302          60.00       234.09
 1153.29        2956.25           1306          56.00       216.65
 1153.32        2956.50           1309          55.00       212.29
 1153.35        2956.75           1312          59.00       229.73
 1153.38        2957.00           1316          57.00       221.01
 1153.41        2957.25           1319          50.00       190.50
 1153.45        2957.50           1322          45.00       168.70
 1153.48        2957.75           1326          55.00       212.29
 1153.51        2958.00           1329          63.00       247.17
 1153.54        2958.25           1332          49.00       186.14
 1153.57        2958.50           1336          52.00       199.22
 1153.60        2958.75           1339          54.00       207.94
 1153.63        2959.00           1342          61.00       238.45
 1153.66        2959.25           1346          53.00       203.58
 1153.69        2959.50           1349          69.00       273.32
 1153.72        2959.75           1352          71.00       282.04
 1153.75        2960.00           1356          89.00       360.51
 1153.78        2960.25           1359         109.00       447.70
 1153.82        2960.50           1362         149.00       622.07
 1153.85        2960.75           1366         189.00       796.44
 1153.88        2961.00           1369         234.00       992.62
 1153.91        2961.25           1372         255.00      1084.17
 1153.94        2961.50           1376         302.00      1289.06
 1153.97        2961.75           1379         434.00      1864.53
 1154.00        2962.00           1382         931.00      4031.44
 1154.03        2962.25           1386        2252.00      9792.33
 1154.06        2962.50           1389        3399.00     14796.02
 1154.09        2962.75           1392        4634.00     20185.28
 1154.12        2963.00           1396        6258.00     27274.71
 1154.16        2963.25           1399        7422.00     32357.90
 1154.19        2963.50           1402        8641.00     37682.95
 1154.22        2963.75           1406       10235.00     44648.70
 1154.25        2964.00           1409       11506.00     50205.03
 1154.28        2964.25           1412       12841.00     56043.15
 1154.31        2964.50           1416       14376.00     62758.42
 1154.34        2964.75           1419       15629.00     68242.01
 1154.37        2965.00           1422       16907.00     73836.87
 1154.40        2965.25           1426       18527.00     80931.66
 1154.43        2965.50           1429       19640.00     85807.78
 1154.47        2965.75           1432       20847.00     91097.36
 1154.50        2966.00           1436       22370.00     97774.18
 1154.53        2966.25           1439       23466.00    102580.70
 1154.56        2966.50           1442       24545.00    107314.00
 1154.59        2966.75           1446       25773.00    112702.60
 1154.62        2967.00           1449       26295.00    114993.70
 1154.65        2967.25           1452       26316.00    115085.90
 1154.68        2967.50           1456       26292.00    114980.50
 1154.71        2967.75           1459       26228.00    114699.60
 1154.75        2968.00           1462       26091.00    114098.30
 1154.78        2968.25           1466       25508.00    111539.60
 1154.81        2968.50           1469       24246.00    106002.20
 1154.84        2968.75           1472       23227.00    101532.40
 1154.87        2969.00           1476       21707.00     94867.26
 1154.90        2969.25           1479       20520.00     89664.14
 1154.93        2969.50           1482       19515.00     85260.08
 1154.96        2969.75           1486       17849.00     77962.00
 1154.99        2970.00           1489       16776.00     73263.29
 1155.02        2970.25           1492       15453.00     67471.66
 1155.06        2970.50           1496       13786.00     60176.99
 1155.09        2970.75           1499       12495.00     54529.85
 1155.12        2971.00           1502       11182.00     48788.45
 1155.15        2971.25           1506        9583.00     41799.12
 1155.18        2971.50           1509        8410.00     36673.72
 1155.21        2971.75           1513        6915.00     30143.64
 1155.24        2972.00           1516        5744.00     25030.56
 1155.27        2972.25           1519        4490.00     19556.81
 1155.30        2972.50           1523        2964.00     12898.19
 1155.33        2972.75           1526        1850.00      8038.99
 1155.36        2973.00           1529         805.00      3482.06
 1155.40        2973.25           1533         333.00      1424.21
 1155.43        2973.50           1536         281.00      1197.51
 1155.46        2973.75           1539         202.00       853.12
 1155.49        2974.00           1543         184.00       774.65
 1155.52        2974.25           1546         136.00       565.40
 1155.55        2974.50           1549         109.00       447.70
 1155.58        2974.75           1553          80.00       321.28
 1155.61        2975.00           1556          66.00       260.25
 1155.64        2975.25           1559          66.00       260.25
 1155.67        2975.50           1563          55.00       212.29
 1155.70        2975.75           1566          49.00       186.14
 1155.73        2976.00           1569          55.00       212.29
 1155.76        2976.25           1573          58.00       225.37
 1155.80        2976.50           1576          51.00       194.86
 1155.83        2976.75           1579          49.00       186.14
 1155.86        2977.00           1583          50.00       190.50
 1155.89        2977.25           1586          56.00       216.65
 1155.92        2977.50           1590          60.00       234.09
 1155.95        2977.75           1593          53.00       203.58
 1155.98        2978.00           1596          49.00       186.14
 1156.01        2978.25           1600          47.00       177.42
 1156.04        2978.50           1603          59.00       229.73
 1156.07        2978.75           1606          49.00       186.14
 1156.10        2979.00           1610          46.00       173.06
 1156.13        2979.25           1613          54.00       207.94
 1156.17        2979.50           1616          54.00       207.94
 1156.20        2979.75           1620          48.00       181.78
 1156.23        2980.00           1623          53.00       203.58
 1156.26        2980.25           1626          52.00       199.22
 1156.29        2980.50           1630          49.00       186.14
 1156.32        2980.75           1633          58.00       225.37
 1156.35        2981.00           1637          51.00       194.86
 1156.38        2981.25           1640          56.00       216.65
 1156.41        2981.50           1643          57.00       221.01
 1156.44        2981.75           1647          49.00       186.14
 1156.47        2982.00           1650          54.00       207.94
 1156.51        2982.25           1653          51.00       194.86
 1156.54        2982.50           1657          51.00       194.86
 1156.57        2982.75           1660          62.00       242.81
 1156.60        2983.00           1663          45.00       168.70
 1156.63        2983.25           1667          49.00       186.14
 1156.66        2983.50           1670          51.00       194.86
 1156.69        2983.75           1673          48.00       181.78
 1156.72        2984.00           1677          46.00       173.06
HS scan finished at 19:16:56
end
