************************************************************
  HS Scan of (1) Internal mercury lamp
************************************************************
Integration time is 0.2294 seconds per sample
dh250317Manchester 53.47 2.23 2.750537pr1000
************************************************************
Dead Time -------------------------  3E-08 
Number of Cycles Used -------------  4 
Starting Wavelength (Angstroms) ---  2950 
Final Wavelength (Angstoms) -------  2984 
Wavelength Increment (Angstroms) --  .25 
Filter Wheel #1 Position ---------- (1) Ground quartz diffuser (ND=2.32)
Filter Wheel #2 Position ---------- (1) Neutral Density 0.494



************************************************************
HS scan start time = 02:39:56
Dark Count =  6.2 


Time (GMT)  Wavelength (Ang)  Step Number  Raw Counts  Counts/Second

  160.31        2950.00           1222          50.00       190.93
  160.37        2950.25           1226          45.00       169.14
  160.40        2950.50           1229          48.00       182.22
  160.43        2950.75           1232          47.00       177.86
  160.46        2951.00           1236          46.00       173.50
  160.50        2951.25           1239          55.00       212.73
  160.53        2951.50           1242          61.00       238.89
  160.56        2951.75           1246          51.00       195.29
  160.59        2952.00           1249          46.00       173.50
  160.62        2952.25           1252          48.00       182.22
  160.65        2952.50           1256          49.00       186.57
  160.68        2952.75           1259          47.00       177.86
  160.71        2953.00           1262          40.00       147.34
  160.74        2953.25           1266          44.00       164.78
  160.77        2953.50           1269          43.00       160.42
  160.80        2953.75           1272          52.00       199.65
  160.83        2954.00           1276          45.00       169.14
  160.87        2954.25           1279          46.00       173.50
  160.90        2954.50           1282          38.00       138.62
  160.93        2954.75           1286          46.00       173.50
  160.96        2955.00           1289          71.00       282.48
  160.99        2955.25           1292          47.00       177.86
  161.02        2955.50           1296          43.00       160.42
  161.05        2955.75           1299          41.00       151.70
  161.08        2956.00           1302          46.00       173.50
  161.11        2956.25           1306          39.00       142.98
  161.14        2956.50           1309          49.00       186.57
  161.17        2956.75           1312          44.00       164.78
  161.20        2957.00           1316          45.00       169.14
  161.23        2957.25           1319          52.00       199.65
  161.27        2957.50           1322          54.00       208.37
  161.30        2957.75           1326          42.00       156.06
  161.33        2958.00           1329          45.00       169.14
  161.36        2958.25           1332          48.00       182.22
  161.39        2958.50           1336          45.00       169.14
  161.42        2958.75           1339          45.00       169.14
  161.45        2959.00           1342          43.00       160.42
  161.48        2959.25           1346          45.00       169.14
  161.51        2959.50           1349          57.00       221.45
  161.54        2959.75           1352          68.00       269.40
  161.57        2960.00           1356          88.00       356.59
  161.61        2960.25           1359         118.00       487.37
  161.64        2960.50           1362         150.00       626.86
  161.67        2960.75           1366         211.00       892.79
  161.70        2961.00           1369         263.00      1119.48
  161.73        2961.25           1372         284.00      1211.03
  161.76        2961.50           1376         375.00      1607.75
  161.79        2961.75           1379         538.00      2318.38
  161.82        2962.00           1382        1045.00      4528.95
  161.85        2962.25           1386        2527.00     10992.29
  161.89        2962.50           1389        4192.00     18256.73
  161.92        2962.75           1392        5748.00     25048.46
  161.95        2963.00           1396        7908.00     34481.16
  161.98        2963.25           1399        9603.00     41886.95
  162.01        2963.50           1402       11265.00     49151.76
  162.04        2963.75           1406       13466.00     58777.49
  162.07        2964.00           1409       15184.00     66294.75
  162.10        2964.25           1412       16845.00     73565.85
  162.13        2964.50           1416       19024.00     83109.31
  162.16        2964.75           1419       20784.00     90821.66
  162.19        2965.00           1422       22213.00     97086.21
  162.22        2965.25           1426       24594.00    107529.40
  162.25        2965.50           1429       26106.00    114164.60
  162.29        2965.75           1432       27951.00    122264.60
  162.32        2966.00           1436       30078.00    131607.50
  162.35        2966.25           1439       31743.00    138924.80
  162.38        2966.50           1442       33240.00    145506.50
  162.41        2966.75           1446       34851.00    152592.30
  162.44        2967.00           1449       35599.00    155883.40
  162.47        2967.25           1452       35646.00    156090.20
  162.50        2967.50           1456       35601.00    155892.10
  162.53        2967.75           1459       35701.00    156332.20
  162.57        2968.00           1462       35599.00    155883.40
  162.60        2968.25           1466       34845.00    152565.90
  162.63        2968.50           1469       33491.00    146610.30
  162.66        2968.75           1472       31831.00    139311.60
  162.69        2969.00           1476       29721.00    130039.00
  162.72        2969.25           1479       28098.00    122910.10
  162.75        2969.50           1482       26519.00    115977.40
  162.78        2969.75           1486       24381.00    106594.90
  162.81        2970.00           1489       22729.00     99348.85
  162.85        2970.25           1492       21121.00     92298.82
  162.88        2970.50           1496       19118.00     83521.13
  162.91        2970.75           1499       17475.00     76324.53
  162.94        2971.00           1502       15810.00     69034.72
  162.97        2971.25           1506       13479.00     58834.35
  163.00        2971.50           1509       11750.00     51272.36
  163.03        2971.75           1513        9629.00     42000.58
  163.06        2972.00           1516        8116.00     35389.78
  163.09        2972.25           1519        6289.00     27410.50
  163.13        2972.50           1523        4089.00     17807.25
  163.16        2972.75           1526        2527.00     10992.29
  163.19        2973.00           1529        1318.00      5719.38
  163.22        2973.25           1533         508.00      2187.59
  163.25        2973.50           1536         354.00      1516.20
  163.28        2973.75           1539         313.00      1337.46
  163.31        2974.00           1543         247.00      1049.73
  163.34        2974.25           1546         199.00       840.47
  163.37        2974.50           1549         156.00       653.02
  163.41        2974.75           1553          94.00       382.74
  163.44        2975.00           1556          69.00       273.76
  163.47        2975.25           1559          58.00       225.81
  163.50        2975.50           1563          47.00       177.86
  163.53        2975.75           1566          48.00       182.22
  163.56        2976.00           1569          49.00       186.57
  163.59        2976.25           1573          45.00       169.14
  163.62        2976.50           1576          48.00       182.22
  163.65        2976.75           1579          48.00       182.22
  163.68        2977.00           1583          46.00       173.50
  163.71        2977.25           1586          55.00       212.73
  163.74        2977.50           1590          48.00       182.22
  163.77        2977.75           1593          50.00       190.93
  163.80        2978.00           1596          53.00       204.01
  163.83        2978.25           1600          40.00       147.34
  163.87        2978.50           1603          53.00       204.01
  163.90        2978.75           1606          42.00       156.06
  163.93        2979.00           1610          49.00       186.57
  163.96        2979.25           1613          43.00       160.42
  163.99        2979.50           1616          51.00       195.29
  164.02        2979.75           1620          44.00       164.78
  164.05        2980.00           1623          47.00       177.86
  164.08        2980.25           1626          53.00       204.01
  164.11        2980.50           1630          46.00       173.50
  164.14        2980.75           1633          47.00       177.86
  164.17        2981.00           1637          48.00       182.22
  164.20        2981.25           1640          44.00       164.78
  164.23        2981.50           1643          42.00       156.06
  164.26        2981.75           1647          45.00       169.14
  164.30        2982.00           1650          43.00       160.42
  164.33        2982.25           1653          47.00       177.86
  164.36        2982.50           1657          42.00       156.06
  164.39        2982.75           1660          41.00       151.70
  164.42        2983.00           1663          50.00       190.93
  164.45        2983.25           1667          44.00       164.78
  164.48        2983.50           1670          44.00       164.78
  164.51        2983.75           1673          42.00       156.06
  164.54        2984.00           1677          49.00       186.57
HS scan finished at 02:44:46
end
************************************************************
  HS Scan of (1) Internal mercury lamp
************************************************************
Integration time is 0.2294 seconds per sample
dh250317Manchester 53.47 2.23 2.804185pr1000
************************************************************
Dead Time -------------------------  3E-08 
Number of Cycles Used -------------  4 
Starting Wavelength (Angstroms) ---  2950 
Final Wavelength (Angstoms) -------  2984 
Wavelength Increment (Angstroms) --  .25 
Filter Wheel #1 Position ---------- (1) Ground quartz diffuser (ND=2.32)
Filter Wheel #2 Position ---------- (1) Neutral Density 0.494



************************************************************
HS scan start time = 19:42:04
Dark Count =  7.4 


Time (GMT)  Wavelength (Ang)  Step Number  Raw Counts  Counts/Second

 1182.44        2950.00           1222          46.00       168.27
 1182.51        2950.25           1226          49.00       181.34
 1182.54        2950.50           1229          56.00       211.86
 1182.57        2950.75           1232          49.00       181.34
 1182.60        2951.00           1236          45.00       163.91
 1182.63        2951.25           1239          54.00       203.14
 1182.66        2951.50           1242          56.00       211.86
 1182.69        2951.75           1246          45.00       163.91
 1182.72        2952.00           1249          48.00       176.98
 1182.76        2952.25           1252          49.00       181.34
 1182.79        2952.50           1256          55.00       207.50
 1182.82        2952.75           1259          45.00       163.91
 1182.85        2953.00           1262          47.00       172.63
 1182.88        2953.25           1266          43.00       155.19
 1182.91        2953.50           1269          48.00       176.98
 1182.94        2953.75           1272          48.00       176.98
 1182.97        2954.00           1276          50.00       185.70
 1183.00        2954.25           1279          43.00       155.19
 1183.04        2954.50           1282          42.00       150.83
 1183.07        2954.75           1286          47.00       172.63
 1183.10        2955.00           1289          39.00       137.75
 1183.13        2955.25           1292          46.00       168.27
 1183.16        2955.50           1296          59.00       224.94
 1183.19        2955.75           1299          48.00       176.98
 1183.22        2956.00           1302          56.00       211.86
 1183.25        2956.25           1306          46.00       168.27
 1183.28        2956.50           1309          43.00       155.19
 1183.32        2956.75           1312          47.00       172.63
 1183.35        2957.00           1316          51.00       190.06
 1183.38        2957.25           1319          51.00       190.06
 1183.41        2957.50           1322          42.00       150.83
 1183.44        2957.75           1326          47.00       172.63
 1183.47        2958.00           1329          43.00       155.19
 1183.50        2958.25           1332          40.00       142.11
 1183.53        2958.50           1336          55.00       207.50
 1183.56        2958.75           1339          55.00       207.50
 1183.59        2959.00           1342          49.00       181.34
 1183.62        2959.25           1346          48.00       176.98
 1183.65        2959.50           1349          56.00       211.86
 1183.69        2959.75           1352          61.00       233.65
 1183.72        2960.00           1356          98.00       394.95
 1183.75        2960.25           1359         124.00       508.29
 1183.78        2960.50           1362         163.00       678.31
 1183.81        2960.75           1366         227.00       957.31
 1183.84        2961.00           1369         276.00      1170.92
 1183.87        2961.25           1372         308.00      1310.43
 1183.90        2961.50           1376         409.00      1750.75
 1183.93        2961.75           1379         594.00      2557.30
 1183.96        2962.00           1382        1256.00      5443.78
 1183.99        2962.25           1386        3065.00     13334.02
 1184.02        2962.50           1389        4593.00     20001.54
 1184.06        2962.75           1392        6257.00     27265.54
 1184.09        2963.00           1396        8253.00     35983.02
 1184.12        2963.25           1399        9869.00     43044.21
 1184.15        2963.50           1402       11381.00     49653.69
 1184.18        2963.75           1406       13568.00     59218.45
 1184.21        2964.00           1409       15341.00     66976.63
 1184.24        2964.25           1412       17030.00     74370.63
 1184.27        2964.50           1416       19363.00     84589.28
 1184.30        2964.75           1419       20916.00     91394.98
 1184.33        2965.00           1422       22453.00     98133.29
 1184.36        2965.25           1426       24796.00    108410.40
 1184.40        2965.50           1429       26391.00    115410.20
 1184.43        2965.75           1432       28164.00    123194.70
 1184.46        2966.00           1436       30324.00    132683.20
 1184.49        2966.25           1439       31934.00    139759.10
 1184.52        2966.50           1442       33291.00    145725.50
 1184.55        2966.75           1446       35037.00    153405.40
 1184.58        2967.00           1449       35625.00    155992.50
 1184.61        2967.25           1452       35591.00    155842.90
 1184.64        2967.50           1456       35708.00    156357.70
 1184.68        2967.75           1459       35641.00    156062.90
 1184.71        2968.00           1462       35425.00    155112.50
 1184.74        2968.25           1466       34441.00    150783.40
 1184.77        2968.50           1469       33147.00    145092.30
 1184.80        2968.75           1472       31686.00    138669.00
 1184.83        2969.00           1476       29355.00    128425.90
 1184.86        2969.25           1479       27857.00    121846.50
 1184.89        2969.50           1482       26257.00    114822.10
 1184.92        2969.75           1486       24008.00    104953.30
 1184.95        2970.00           1489       22440.00     98076.28
 1184.99        2970.25           1492       20773.00     90768.19
 1185.02        2970.50           1496       18854.00     82359.31
 1185.05        2970.75           1499       17105.00     74699.03
 1185.08        2971.00           1502       15350.00     67016.03
 1185.11        2971.25           1506       13191.00     57569.26
 1185.14        2971.50           1509       11454.00     49972.86
 1185.17        2971.75           1513        9340.00     40732.39
 1185.20        2972.00           1516        7799.00     33999.79
 1185.23        2972.25           1519        6008.00     26178.36
 1185.26        2972.50           1523        3887.00     16920.53
 1185.29        2972.75           1526        2477.00     10768.96
 1185.32        2973.00           1529        1217.00      5273.72
 1185.36        2973.25           1533         496.00      2130.04
 1185.39        2973.50           1536         373.00      1593.80
 1185.42        2973.75           1539         295.00      1253.75
 1185.45        2974.00           1543         238.00      1005.26
 1185.48        2974.25           1546         191.00       800.37
 1185.51        2974.50           1549         136.00       560.60
 1185.54        2974.75           1553         105.00       425.46
 1185.57        2975.00           1556          60.00       229.30
 1185.60        2975.25           1559          55.00       207.50
 1185.63        2975.50           1563          55.00       207.50
 1185.66        2975.75           1566          42.00       150.83
 1185.69        2976.00           1569          42.00       150.83
 1185.73        2976.25           1573          47.00       172.63
 1185.76        2976.50           1576          46.00       168.27
 1185.79        2976.75           1579          45.00       163.91
 1185.82        2977.00           1583          46.00       168.27
 1185.85        2977.25           1586          49.00       181.34
 1185.88        2977.50           1590          52.00       194.42
 1185.91        2977.75           1593          44.00       159.55
 1185.94        2978.00           1596          40.00       142.11
 1185.97        2978.25           1600          41.00       146.47
 1186.00        2978.50           1603          48.00       176.98
 1186.03        2978.75           1606          47.00       172.63
 1186.07        2979.00           1610          40.00       142.11
 1186.10        2979.25           1613          51.00       190.06
 1186.13        2979.50           1616          49.00       181.34
 1186.16        2979.75           1620          48.00       176.98
 1186.19        2980.00           1623          53.00       198.78
 1186.22        2980.25           1626          43.00       155.19
 1186.25        2980.50           1630          49.00       181.34
 1186.28        2980.75           1633          45.00       163.91
 1186.31        2981.00           1637          46.00       168.27
 1186.34        2981.25           1640          46.00       168.27
 1186.37        2981.50           1643          47.00       172.63
 1186.40        2981.75           1647          40.00       142.11
 1186.43        2982.00           1650          51.00       190.06
 1186.47        2982.25           1653          49.00       181.34
 1186.50        2982.50           1657          44.00       159.55
 1186.53        2982.75           1660          43.00       155.19
 1186.56        2983.00           1663          43.00       155.19
 1186.59        2983.25           1667          39.00       137.75
 1186.62        2983.50           1670          38.00       133.39
 1186.65        2983.75           1673          47.00       172.63
 1186.68        2984.00           1677          46.00       168.27
HS scan finished at 19:46:54
end
