************************************************************
  HS Scan of (1) Internal mercury lamp
************************************************************
Integration time is 0.2294 seconds per sample
dh230317Manchester 53.47 2.23 2.750537pr1000
************************************************************
Dead Time -------------------------  3E-08 
Number of Cycles Used -------------  4 
Starting Wavelength (Angstroms) ---  2950 
Final Wavelength (Angstoms) -------  2984 
Wavelength Increment (Angstroms) --  .25 
Filter Wheel #1 Position ---------- (1) Ground quartz diffuser (ND=2.32)
Filter Wheel #2 Position ---------- (1) Neutral Density 0.494



************************************************************
HS scan start time = 02:49:24
Dark Count =  5.9 


Time (GMT)  Wavelength (Ang)  Step Number  Raw Counts  Counts/Second

  169.77        2950.00           1222          45.00       170.45
  169.83        2950.25           1226          47.00       179.16
  169.86        2950.50           1229          45.00       170.45
  169.90        2950.75           1232          52.00       200.96
  169.93        2951.00           1236          51.00       196.60
  169.96        2951.25           1239          45.00       170.45
  169.99        2951.50           1242          46.00       174.80
  170.02        2951.75           1246          41.00       153.01
  170.05        2952.00           1249          44.00       166.09
  170.08        2952.25           1252          44.00       166.09
  170.11        2952.50           1256          49.00       187.88
  170.14        2952.75           1259          42.00       157.37
  170.17        2953.00           1262          47.00       179.16
  170.20        2953.25           1266          47.00       179.16
  170.23        2953.50           1269          47.00       179.16
  170.27        2953.75           1272          54.00       209.68
  170.30        2954.00           1276          46.00       174.80
  170.33        2954.25           1279          44.00       166.09
  170.36        2954.50           1282          43.00       161.73
  170.39        2954.75           1286          41.00       153.01
  170.42        2955.00           1289          50.00       192.24
  170.45        2955.25           1292          46.00       174.80
  170.48        2955.50           1296          53.00       205.32
  170.51        2955.75           1299          37.00       135.57
  170.54        2956.00           1302          49.00       187.88
  170.57        2956.25           1306          46.00       174.80
  170.60        2956.50           1309          48.00       183.52
  170.64        2956.75           1312          54.00       209.68
  170.67        2957.00           1316          50.00       192.24
  170.70        2957.25           1319          38.00       139.93
  170.73        2957.50           1322          44.00       166.09
  170.76        2957.75           1326          43.00       161.73
  170.79        2958.00           1329          44.00       166.09
  170.82        2958.25           1332          57.00       222.76
  170.85        2958.50           1336          56.00       218.40
  170.88        2958.75           1339          43.00       161.73
  170.91        2959.00           1342          41.00       153.01
  170.95        2959.25           1346          56.00       218.40
  170.98        2959.50           1349          48.00       183.52
  171.01        2959.75           1352          57.00       222.76
  171.04        2960.00           1356          83.00       336.10
  171.07        2960.25           1359         111.00       458.16
  171.10        2960.50           1362         134.00       558.42
  171.13        2960.75           1366         192.00       811.27
  171.16        2961.00           1369         254.00      1081.55
  171.19        2961.25           1372         285.00      1216.70
  171.22        2961.50           1376         355.00      1521.87
  171.25        2961.75           1379         508.00      2188.90
  171.29        2962.00           1382        1017.00      4408.17
  171.32        2962.25           1386        2650.00     11530.14
  171.35        2962.50           1389        4090.00     17812.92
  171.38        2962.75           1392        5569.00     24268.32
  171.41        2963.00           1396        7697.00     33560.80
  171.44        2963.25           1399        9317.00     40638.44
  171.47        2963.50           1402       11004.00     48012.00
  171.50        2963.75           1406       13111.00     57225.89
  171.53        2964.00           1409       14876.00     64948.14
  171.57        2964.25           1412       16708.00     72967.31
  171.60        2964.50           1416       18812.00     82181.88
  171.63        2964.75           1419       20458.00     89394.18
  171.66        2965.00           1422       22312.00     97521.60
  171.69        2965.25           1426       24519.00    107201.70
  171.72        2965.50           1429       26272.00    114894.50
  171.75        2965.75           1432       27872.00    121919.00
  171.78        2966.00           1436       29985.00    131200.20
  171.81        2966.25           1439       31522.00    137954.70
  171.84        2966.50           1442       33135.00    145046.10
  171.88        2966.75           1446       34699.00    151924.90
  171.91        2967.00           1449       35475.00    155339.10
  171.94        2967.25           1452       35625.00    155999.10
  171.97        2967.50           1456       35766.00    156619.50
  172.00        2967.75           1459       35965.00    157495.20
  172.03        2968.00           1462       35739.00    156500.70
  172.06        2968.25           1466       35027.00    153368.00
  172.09        2968.50           1469       33645.00    147288.90
  172.12        2968.75           1472       32210.00    140979.10
  172.15        2969.00           1476       30079.00    131613.20
  172.19        2969.25           1479       28450.00    124457.30
  172.22        2969.50           1482       26755.00    117014.70
  172.25        2969.75           1486       24746.00    108197.60
  172.28        2970.00           1489       23066.00    100828.10
  172.31        2970.25           1492       21398.00     93514.38
  172.34        2970.50           1496       19298.00     84311.06
  172.37        2970.75           1499       17552.00     76663.03
  172.40        2971.00           1502       15968.00     69727.66
  172.43        2971.25           1506       13609.00     59404.38
  172.47        2971.50           1509       11889.00     51881.48
  172.50        2971.75           1513        9703.00     42325.29
  172.53        2972.00           1516        8071.00     35194.51
  172.56        2972.25           1519        6530.00     28464.14
  172.59        2972.50           1523        4498.00     19593.47
  172.62        2972.75           1526        2942.00     12803.96
  172.65        2973.00           1529        1546.00      6714.95
  172.68        2973.25           1533         562.00      2424.33
  172.71        2973.50           1536         377.00      1617.78
  172.74        2973.75           1539         287.00      1225.42
  172.77        2974.00           1543         243.00      1033.60
  172.81        2974.25           1546         179.00       754.59
  172.84        2974.50           1549         143.00       597.66
  172.87        2974.75           1553          92.00       375.33
  172.90        2975.00           1556          75.00       301.22
  172.93        2975.25           1559          55.00       214.04
  172.96        2975.50           1563          52.00       200.96
  172.99        2975.75           1566          46.00       174.80
  173.02        2976.00           1569          56.00       218.40
  173.05        2976.25           1573          49.00       187.88
  173.08        2976.50           1576          52.00       200.96
  173.11        2976.75           1579          51.00       196.60
  173.14        2977.00           1583          47.00       179.16
  173.18        2977.25           1586          44.00       166.09
  173.21        2977.50           1590          46.00       174.80
  173.24        2977.75           1593          49.00       187.88
  173.27        2978.00           1596          45.00       170.45
  173.30        2978.25           1600          50.00       192.24
  173.33        2978.50           1603          47.00       179.16
  173.36        2978.75           1606          46.00       174.80
  173.39        2979.00           1610          39.00       144.29
  173.42        2979.25           1613          52.00       200.96
  173.45        2979.50           1616          36.00       131.21
  173.49        2979.75           1620          45.00       170.45
  173.52        2980.00           1623          46.00       174.80
  173.55        2980.25           1626          38.00       139.93
  173.58        2980.50           1630          46.00       174.80
  173.61        2980.75           1633          43.00       161.73
  173.64        2981.00           1637          43.00       161.73
  173.67        2981.25           1640          45.00       170.45
  173.70        2981.50           1643          41.00       153.01
  173.73        2981.75           1647          45.00       170.45
  173.76        2982.00           1650          44.00       166.09
  173.79        2982.25           1653          42.00       157.37
  173.83        2982.50           1657          40.00       148.65
  173.86        2982.75           1660          46.00       174.80
  173.89        2983.00           1663          41.00       153.01
  173.92        2983.25           1667          48.00       183.52
  173.95        2983.50           1670          46.00       174.80
  173.98        2983.75           1673          56.00       218.40
  174.01        2984.00           1677          39.00       144.29
HS scan finished at 02:54:14
end
************************************************************
  HS Scan of (1) Internal mercury lamp
************************************************************
Integration time is 0.2294 seconds per sample
dh230317Manchester 53.47 2.23 2.750537pr1000
************************************************************
Dead Time -------------------------  3E-08 
Number of Cycles Used -------------  4 
Starting Wavelength (Angstroms) ---  2950 
Final Wavelength (Angstoms) -------  2984 
Wavelength Increment (Angstroms) --  .25 
Filter Wheel #1 Position ---------- (1) Ground quartz diffuser (ND=2.32)
Filter Wheel #2 Position ---------- (1) Neutral Density 0.494



************************************************************
HS scan start time = 19:42:02
Dark Count =  7.3 


Time (GMT)  Wavelength (Ang)  Step Number  Raw Counts  Counts/Second

 1182.41        2950.00           1222          42.00       151.26
 1182.47        2950.25           1226          47.00       173.06
 1182.50        2950.50           1229          45.00       164.34
 1182.54        2950.75           1232          40.00       142.55
 1182.57        2951.00           1236          42.00       151.26
 1182.60        2951.25           1239          49.00       181.78
 1182.63        2951.50           1242          48.00       177.42
 1182.66        2951.75           1246          45.00       164.34
 1182.69        2952.00           1249          47.00       173.06
 1182.72        2952.25           1252          48.00       177.42
 1182.75        2952.50           1256          38.00       133.83
 1182.78        2952.75           1259          40.00       142.55
 1182.81        2953.00           1262          44.00       159.98
 1182.84        2953.25           1266          39.00       138.19
 1182.88        2953.50           1269          55.00       207.94
 1182.91        2953.75           1272          37.00       129.47
 1182.94        2954.00           1276          45.00       164.34
 1182.97        2954.25           1279          48.00       177.42
 1183.00        2954.50           1282          46.00       168.70
 1183.03        2954.75           1286          46.00       168.70
 1183.06        2955.00           1289          49.00       181.78
 1183.09        2955.25           1292          51.00       190.50
 1183.12        2955.50           1296          45.00       164.34
 1183.15        2955.75           1299          45.00       164.34
 1183.18        2956.00           1302          50.00       186.14
 1183.21        2956.25           1306          46.00       168.70
 1183.24        2956.50           1309          45.00       164.34
 1183.27        2956.75           1312          48.00       177.42
 1183.31        2957.00           1316          41.00       146.91
 1183.34        2957.25           1319          41.00       146.91
 1183.37        2957.50           1322          48.00       177.42
 1183.40        2957.75           1326          48.00       177.42
 1183.43        2958.00           1329          46.00       168.70
 1183.46        2958.25           1332          49.00       181.78
 1183.49        2958.50           1336          44.00       159.98
 1183.52        2958.75           1339          42.00       151.26
 1183.55        2959.00           1342          49.00       181.78
 1183.58        2959.25           1346          50.00       186.14
 1183.61        2959.50           1349          50.00       186.14
 1183.65        2959.75           1352          65.00       251.53
 1183.68        2960.00           1356          80.00       316.92
 1183.71        2960.25           1359         112.00       456.41
 1183.74        2960.50           1362         160.00       665.66
 1183.77        2960.75           1366         210.00       883.63
 1183.80        2961.00           1369         269.00      1140.84
 1183.83        2961.25           1372         310.00      1319.58
 1183.86        2961.50           1376         422.00      1807.86
 1183.89        2961.75           1379         696.00      3002.45
 1183.92        2962.00           1382        1462.00      6342.53
 1183.96        2962.25           1386        3345.00     14556.05
 1183.99        2962.50           1389        5008.00     21813.31
 1184.02        2962.75           1392        6494.00     28300.83
 1184.05        2963.00           1396        8580.00     37412.06
 1184.08        2963.25           1399       10206.00     44517.57
 1184.11        2963.50           1402       11792.00     51451.20
 1184.14        2963.75           1406       14075.00     61437.02
 1184.17        2964.00           1409       15711.00     68596.56
 1184.20        2964.25           1412       17388.00     75938.71
 1184.24        2964.50           1416       19740.00     86241.59
 1184.27        2964.75           1419       21349.00     93293.44
 1184.30        2965.00           1422       23097.00    100957.90
 1184.33        2965.25           1426       25271.00    110495.10
 1184.36        2965.50           1429       26792.00    117171.00
 1184.39        2965.75           1432       28468.00    124530.20
 1184.42        2966.00           1436       30846.00    134977.50
 1184.45        2966.25           1439       32353.00    141601.60
 1184.48        2966.50           1442       33777.00    147863.30
 1184.51        2966.75           1446       35086.00    153621.40
 1184.55        2967.00           1449       35490.00    155398.90
 1184.58        2967.25           1452       35702.00    156331.80
 1184.61        2967.50           1456       35399.00    154998.50
 1184.64        2967.75           1459       35499.00    155438.50
 1184.67        2968.00           1462       35265.00    154408.90
 1184.70        2968.25           1466       33959.00    148663.70
 1184.73        2968.50           1469       32604.00    142705.10
 1184.76        2968.75           1472       31272.00    136849.70
 1184.79        2969.00           1476       28996.00    126849.30
 1184.83        2969.25           1479       27610.00    120762.40
 1184.86        2969.50           1482       25938.00    113422.30
 1184.89        2969.75           1486       23708.00    103637.80
 1184.92        2970.00           1489       22168.00     96884.06
 1184.95        2970.25           1492       20292.00     88660.53
 1184.98        2970.50           1496       18358.00     80187.00
 1185.01        2970.75           1499       16638.00     72654.70
 1185.04        2971.00           1502       14971.00     65357.76
 1185.07        2971.25           1506       12663.00     55260.24
 1185.10        2971.50           1509       10962.00     47822.27
 1185.14        2971.75           1513        8815.00     38438.81
 1185.17        2972.00           1516        7252.00     31611.05
 1185.20        2972.25           1519        5673.00     24716.23
 1185.23        2972.50           1523        3600.00     15668.65
 1185.26        2972.75           1526        2132.00      9264.56
 1185.29        2973.00           1529        1020.00      4415.14
 1185.32        2973.25           1533         459.00      1969.17
 1185.35        2973.50           1536         346.00      1476.53
 1185.38        2973.75           1539         282.00      1197.51
 1185.41        2974.00           1543         247.00      1044.93
 1185.45        2974.25           1546         183.00       765.93
 1185.48        2974.50           1549         134.00       552.32
 1185.51        2974.75           1553         100.00       404.10
 1185.54        2975.00           1556          68.00       264.61
 1185.57        2975.25           1559          67.00       260.25
 1185.60        2975.50           1563          46.00       168.70
 1185.63        2975.75           1566          48.00       177.42
 1185.66        2976.00           1569          49.00       181.78
 1185.69        2976.25           1573          42.00       151.26
 1185.72        2976.50           1576          49.00       181.78
 1185.76        2976.75           1579          50.00       186.14
 1185.79        2977.00           1583          51.00       190.50
 1185.82        2977.25           1586          44.00       159.98
 1185.85        2977.50           1590          47.00       173.06
 1185.88        2977.75           1593          54.00       203.58
 1185.91        2978.00           1596          44.00       159.98
 1185.94        2978.25           1600          44.00       159.98
 1185.97        2978.50           1603          50.00       186.14
 1186.00        2978.75           1606          50.00       186.14
 1186.03        2979.00           1610          49.00       181.78
 1186.07        2979.25           1613          37.00       129.47
 1186.10        2979.50           1616          48.00       177.42
 1186.13        2979.75           1620          44.00       159.98
 1186.16        2980.00           1623          47.00       173.06
 1186.19        2980.25           1626          47.00       173.06
 1186.22        2980.50           1630          45.00       164.34
 1186.25        2980.75           1633          49.00       181.78
 1186.28        2981.00           1637          43.00       155.62
 1186.31        2981.25           1640          42.00       151.26
 1186.34        2981.50           1643          48.00       177.42
 1186.37        2981.75           1647          42.00       151.26
 1186.40        2982.00           1650          39.00       138.19
 1186.43        2982.25           1653          53.00       199.22
 1186.46        2982.50           1657          44.00       159.98
 1186.50        2982.75           1660          42.00       151.26
 1186.53        2983.00           1663          45.00       164.34
 1186.56        2983.25           1667          46.00       168.70
 1186.59        2983.50           1670          45.00       164.34
 1186.62        2983.75           1673          47.00       173.06
 1186.65        2984.00           1677          50.00       186.14
HS scan finished at 19:46:52
end
