************************************************************
  HS Scan of (1) Internal mercury lamp
************************************************************
Integration time is 0.2294 seconds per sample
dh220319Manchester 53.47 2.23 2.804185pr1000
************************************************************
Dead Time -------------------------  3E-08 
Number of Cycles Used -------------  4 
Starting Wavelength (Angstroms) ---  2950 
Final Wavelength (Angstoms) -------  2984 
Wavelength Increment (Angstroms) --  .25 
Filter Wheel #1 Position ---------- (1) Ground quartz diffuser (ND=2.32)
Filter Wheel #2 Position ---------- (1) Neutral Density 0.494



************************************************************
HS scan start time = 02:56:06
Dark Count =  7.7 


Time (GMT)  Wavelength (Ang)  Step Number  Raw Counts  Counts/Second

  176.47        2950.00           1222          50.00       184.40
  176.54        2950.25           1226          53.00       197.47
  176.57        2950.50           1229          54.00       201.83
  176.60        2950.75           1232          60.00       227.99
  176.63        2951.00           1236          60.00       227.99
  176.66        2951.25           1239          65.00       249.78
  176.69        2951.50           1242          61.00       232.35
  176.72        2951.75           1246          58.00       219.27
  176.75        2952.00           1249          53.00       197.47
  176.79        2952.25           1252          60.00       227.99
  176.82        2952.50           1256          50.00       184.40
  176.85        2952.75           1259          58.00       219.27
  176.88        2953.00           1262          51.00       188.75
  176.91        2953.25           1266          57.00       214.91
  176.94        2953.50           1269          54.00       201.83
  176.97        2953.75           1272          54.00       201.83
  177.00        2954.00           1276          53.00       197.47
  177.03        2954.25           1279          46.00       166.96
  177.06        2954.50           1282          52.00       193.11
  177.09        2954.75           1286          56.00       210.55
  177.13        2955.00           1289          56.00       210.55
  177.16        2955.25           1292          53.00       197.47
  177.19        2955.50           1296          59.00       223.63
  177.22        2955.75           1299          51.00       188.75
  177.25        2956.00           1302          58.00       219.27
  177.28        2956.25           1306          61.00       232.35
  177.31        2956.50           1309          53.00       197.47
  177.34        2956.75           1312          55.00       206.19
  177.37        2957.00           1316          60.00       227.99
  177.40        2957.25           1319          53.00       197.47
  177.43        2957.50           1322          47.00       171.32
  177.46        2957.75           1326          57.00       214.91
  177.49        2958.00           1329          56.00       210.55
  177.53        2958.25           1332          59.00       223.63
  177.56        2958.50           1336          60.00       227.99
  177.59        2958.75           1339          58.00       219.27
  177.62        2959.00           1342          54.00       201.83
  177.65        2959.25           1346          54.00       201.83
  177.68        2959.50           1349          63.00       241.07
  177.71        2959.75           1352          64.00       245.42
  177.74        2960.00           1356          81.00       319.53
  177.77        2960.25           1359         108.00       437.23
  177.80        2960.50           1362         133.00       546.22
  177.83        2960.75           1366         187.00       781.62
  177.87        2961.00           1369         210.00       881.89
  177.90        2961.25           1372         238.00      1003.95
  177.93        2961.50           1376         299.00      1269.88
  177.96        2961.75           1379         404.00      1727.64
  177.99        2962.00           1382         868.00      3750.64
  178.02        2962.25           1386        2134.00      9271.54
  178.05        2962.50           1389        3283.00     14283.80
  178.08        2962.75           1392        4518.00     19672.90
  178.11        2963.00           1396        5996.00     26124.65
  178.14        2963.25           1399        7141.00     31124.51
  178.17        2963.50           1402        8378.00     36527.80
  178.21        2963.75           1406       10015.00     43681.01
  178.24        2964.00           1409       11204.00     48878.51
  178.27        2964.25           1412       12571.00     54856.11
  178.30        2964.50           1416       14236.00     62139.71
  178.33        2964.75           1419       15491.00     67631.85
  178.36        2965.00           1422       16668.00     72784.31
  178.39        2965.25           1426       18258.00     79747.24
  178.42        2965.50           1429       19545.00     85385.40
  178.45        2965.75           1432       20783.00     90810.71
  178.49        2966.00           1436       22408.00     97934.66
  178.52        2966.25           1439       23715.00    103666.70
  178.55        2966.50           1442       24907.00    108896.20
  178.58        2966.75           1446       25859.00    113073.90
  178.61        2967.00           1449       26336.00    115167.50
  178.64        2967.25           1452       26395.00    115426.50
  178.67        2967.50           1456       26417.00    115523.10
  178.70        2967.75           1459       26352.00    115237.70
  178.73        2968.00           1462       26273.00    114891.00
  178.77        2968.25           1466       25774.00    112700.80
  178.80        2968.50           1469       24718.00    108066.90
  178.83        2968.75           1472       23518.00    102802.60
  178.86        2969.00           1476       22128.00     96706.93
  178.89        2969.25           1479       20910.00     91367.36
  178.92        2969.50           1482       19820.00     86590.39
  178.95        2969.75           1486       18131.00     79190.97
  178.98        2970.00           1489       16854.00     73598.68
  179.01        2970.25           1492       15785.00     68918.72
  179.05        2970.50           1496       14250.00     62200.97
  179.08        2970.75           1499       12995.00     56710.62
  179.11        2971.00           1502       11813.00     51541.28
  179.14        2971.25           1506       10222.00     44585.76
  179.17        2971.50           1509        8846.00     38572.51
  179.20        2971.75           1513        7217.00     31456.44
  179.23        2972.00           1516        6064.00     26421.55
  179.26        2972.25           1519        5000.00     21776.65
  179.29        2972.50           1523        3506.00     15256.76
  179.33        2972.75           1526        2314.00     10056.65
  179.36        2973.00           1529        1197.00      5185.20
  179.39        2973.25           1533         430.00      1840.99
  179.42        2973.50           1536         288.00      1221.93
  179.45        2973.75           1539         246.00      1038.83
  179.48        2974.00           1543         203.00       851.37
  179.51        2974.25           1546         149.00       615.97
  179.54        2974.50           1549         134.00       550.58
  179.57        2974.75           1553         101.00       406.72
  179.60        2975.00           1556          76.00       297.74
  179.63        2975.25           1559          64.00       245.42
  179.67        2975.50           1563          55.00       206.19
  179.70        2975.75           1566          51.00       188.75
  179.73        2976.00           1569          62.00       236.71
  179.76        2976.25           1573          58.00       219.27
  179.79        2976.50           1576          57.00       214.91
  179.82        2976.75           1579          51.00       188.75
  179.85        2977.00           1583          61.00       232.35
  179.88        2977.25           1586          53.00       197.47
  179.91        2977.50           1590          54.00       201.83
  179.95        2977.75           1593          54.00       201.83
  179.98        2978.00           1596          48.00       175.68
  180.01        2978.25           1600          46.00       166.96
  180.04        2978.50           1603          54.00       201.83
  180.07        2978.75           1606          53.00       197.47
  180.10        2979.00           1610          53.00       197.47
  180.13        2979.25           1613          55.00       206.19
  180.16        2979.50           1616          50.00       184.40
  180.19        2979.75           1620          52.00       193.11
  180.23        2980.00           1623          58.00       219.27
  180.26        2980.25           1626          53.00       197.47
  180.29        2980.50           1630          45.00       162.60
  180.32        2980.75           1633          51.00       188.75
  180.35        2981.00           1637          49.00       180.04
  180.38        2981.25           1640          42.00       149.52
  180.41        2981.50           1643          58.00       219.27
  180.44        2981.75           1647          49.00       180.04
  180.48        2982.00           1650          54.00       201.83
  180.51        2982.25           1653          50.00       184.40
  180.54        2982.50           1657          48.00       175.68
  180.57        2982.75           1660          47.00       171.32
  180.60        2983.00           1663          49.00       180.04
  180.63        2983.25           1667          46.00       166.96
  180.66        2983.50           1670          49.00       180.04
  180.69        2983.75           1673          47.00       171.32
  180.72        2984.00           1677          54.00       201.83
HS scan finished at 03:00:56
end
************************************************************
  HS Scan of (1) Internal mercury lamp
************************************************************
Integration time is 0.2294 seconds per sample
dh220319Manchester 53.47 2.23 2.804185pr1000
************************************************************
Dead Time -------------------------  3E-08 
Number of Cycles Used -------------  4 
Starting Wavelength (Angstroms) ---  2950 
Final Wavelength (Angstoms) -------  2984 
Wavelength Increment (Angstroms) --  .25 
Filter Wheel #1 Position ---------- (1) Ground quartz diffuser (ND=2.32)
Filter Wheel #2 Position ---------- (1) Neutral Density 0.494



************************************************************
HS scan start time = 19:12:11
Dark Count =  7.9 


Time (GMT)  Wavelength (Ang)  Step Number  Raw Counts  Counts/Second

 1152.55        2950.00           1222          58.00       218.40
 1152.62        2950.25           1226          51.00       187.88
 1152.65        2950.50           1229          52.00       192.24
 1152.68        2950.75           1232          56.00       209.68
 1152.71        2951.00           1236          59.00       222.76
 1152.74        2951.25           1239          57.00       214.04
 1152.77        2951.50           1242          55.00       205.32
 1152.80        2951.75           1246          62.00       235.83
 1152.83        2952.00           1249          55.00       205.32
 1152.86        2952.25           1252          55.00       205.32
 1152.89        2952.50           1256          55.00       205.32
 1152.92        2952.75           1259          50.00       183.52
 1152.96        2953.00           1262          48.00       174.80
 1152.99        2953.25           1266          53.00       196.60
 1153.02        2953.50           1269          56.00       209.68
 1153.05        2953.75           1272          57.00       214.04
 1153.08        2954.00           1276          51.00       187.88
 1153.11        2954.25           1279          48.00       174.80
 1153.14        2954.50           1282          59.00       222.76
 1153.17        2954.75           1286          49.00       179.16
 1153.20        2955.00           1289          56.00       209.68
 1153.23        2955.25           1292          62.00       235.83
 1153.27        2955.50           1296          62.00       235.83
 1153.30        2955.75           1299          59.00       222.76
 1153.33        2956.00           1302          55.00       205.32
 1153.36        2956.25           1306          55.00       205.32
 1153.39        2956.50           1309          49.00       179.16
 1153.42        2956.75           1312          50.00       183.52
 1153.45        2957.00           1316          45.00       161.73
 1153.48        2957.25           1319          46.00       166.09
 1153.51        2957.50           1322          61.00       231.48
 1153.54        2957.75           1326          53.00       196.60
 1153.57        2958.00           1329          59.00       222.76
 1153.61        2958.25           1332          59.00       222.76
 1153.64        2958.50           1336          55.00       205.32
 1153.67        2958.75           1339          55.00       205.32
 1153.70        2959.00           1342          53.00       196.60
 1153.73        2959.25           1346          57.00       214.04
 1153.76        2959.50           1349          57.00       214.04
 1153.79        2959.75           1352          73.00       283.79
 1153.82        2960.00           1356          89.00       353.53
 1153.85        2960.25           1359         121.00       493.03
 1153.88        2960.50           1362         149.00       615.09
 1153.91        2960.75           1366         184.00       767.67
 1153.94        2961.00           1369         223.00       937.69
 1153.97        2961.25           1372         247.00      1042.32
 1154.01        2961.50           1376         338.00      1439.03
 1154.04        2961.75           1379         403.00      1722.41
 1154.07        2962.00           1382         787.00      3396.60
 1154.10        2962.25           1386        2042.00      8869.40
 1154.13        2962.50           1389        3306.00     14383.28
 1154.16        2962.75           1392        4472.00     19471.27
 1154.19        2963.00           1396        6052.00     26368.28
 1154.22        2963.25           1399        7219.00     31464.30
 1154.25        2963.50           1402        8380.00     36535.67
 1154.28        2963.75           1406       10054.00     43850.59
 1154.31        2964.00           1409       11148.00     48632.80
 1154.34        2964.25           1412       12510.00     54588.46
 1154.38        2964.50           1416       14316.00     62488.88
 1154.41        2964.75           1419       15472.00     67547.81
 1154.44        2965.00           1422       16657.00     72735.25
 1154.47        2965.25           1426       18258.00     79746.35
 1154.50        2965.50           1429       19396.00     84731.68
 1154.53        2965.75           1432       20696.00     90428.51
 1154.56        2966.00           1436       22100.00     96583.28
 1154.59        2966.25           1439       23167.00    101262.30
 1154.62        2966.50           1442       24388.00    106618.20
 1154.66        2966.75           1446       25721.00    112467.30
 1154.69        2967.00           1449       26154.00    114367.80
 1154.72        2967.25           1452       26262.00    114841.80
 1154.75        2967.50           1456       26359.00    115267.60
 1154.78        2967.75           1459       26146.00    114332.60
 1154.81        2968.00           1462       26188.00    114517.00
 1154.84        2968.25           1466       25551.00    111721.30
 1154.87        2968.50           1469       24718.00    108066.00
 1154.91        2968.75           1472       23615.00    103227.20
 1154.94        2969.00           1476       22127.00     96701.66
 1154.97        2969.25           1479       20885.00     91256.91
 1155.00        2969.50           1482       19829.00     86628.94
 1155.03        2969.75           1486       18055.00     78857.22
 1155.06        2970.00           1489       16918.00     73878.04
 1155.09        2970.25           1492       15541.00     67849.82
 1155.12        2970.50           1496       13894.00     60642.48
 1155.15        2970.75           1499       12757.00     55668.74
 1155.18        2971.00           1502       11518.00     50250.50
 1155.22        2971.25           1506        9786.00     42679.28
 1155.25        2971.50           1509        8609.00     37536.14
 1155.28        2971.75           1513        7110.00     30988.26
 1155.31        2972.00           1516        5928.00     25826.89
 1155.34        2972.25           1519        4840.00     21077.41
 1155.37        2972.50           1523        3256.00     14165.13
 1155.40        2972.75           1526        2014.00      8747.28
 1155.43        2973.00           1529         983.00      4251.20
 1155.46        2973.25           1533         375.00      1600.34
 1155.49        2973.50           1536         264.00      1116.43
 1155.53        2973.75           1539         213.00       894.10
 1155.56        2974.00           1543         181.00       754.59
 1155.59        2974.25           1546         131.00       536.63
 1155.62        2974.50           1549         111.00       449.44
 1155.65        2974.75           1553          79.00       309.94
 1155.68        2975.00           1556          60.00       227.12
 1155.71        2975.25           1559          56.00       209.68
 1155.74        2975.50           1563          62.00       235.83
 1155.77        2975.75           1566          54.00       200.96
 1155.80        2976.00           1569          52.00       192.24
 1155.84        2976.25           1573          48.00       174.80
 1155.87        2976.50           1576          55.00       205.32
 1155.90        2976.75           1579          53.00       196.60
 1155.93        2977.00           1583          43.00       153.01
 1155.96        2977.25           1586          53.00       196.60
 1155.99        2977.50           1590          57.00       214.04
 1156.02        2977.75           1593          54.00       200.96
 1156.05        2978.00           1596          52.00       192.24
 1156.08        2978.25           1600          46.00       166.09
 1156.11        2978.50           1603          51.00       187.88
 1156.14        2978.75           1606          46.00       166.09
 1156.18        2979.00           1610          56.00       209.68
 1156.21        2979.25           1613          49.00       179.16
 1156.24        2979.50           1616          53.00       196.60
 1156.27        2979.75           1620          43.00       153.01
 1156.30        2980.00           1623          57.00       214.04
 1156.33        2980.25           1626          60.00       227.12
 1156.36        2980.50           1630          40.00       139.93
 1156.39        2980.75           1633          47.00       170.45
 1156.42        2981.00           1637          48.00       174.80
 1156.45        2981.25           1640          55.00       205.32
 1156.49        2981.50           1643          51.00       187.88
 1156.52        2981.75           1647          45.00       161.73
 1156.55        2982.00           1650          56.00       209.68
 1156.58        2982.25           1653          56.00       209.68
 1156.61        2982.50           1657          47.00       170.45
 1156.64        2982.75           1660          64.00       244.55
 1156.67        2983.00           1663          48.00       174.80
 1156.70        2983.25           1667          49.00       179.16
 1156.73        2983.50           1670          49.00       179.16
 1156.78        2983.75           1673          45.00       161.73
 1156.81        2984.00           1677          57.00       214.04
HS scan finished at 19:17:02
end
