************************************************************
  HS Scan of (1) Internal mercury lamp
************************************************************
Integration time is 0.2294 seconds per sample
dh280318Manchester 53.47 2.23 2.804185pr1000
************************************************************
Dead Time -------------------------  3E-08 
Number of Cycles Used -------------  4 
Starting Wavelength (Angstroms) ---  2950 
Final Wavelength (Angstoms) -------  2984 
Wavelength Increment (Angstroms) --  .25 
Filter Wheel #1 Position ---------- (1) Ground quartz diffuser (ND=2.32)
Filter Wheel #2 Position ---------- (1) Neutral Density 0.494



************************************************************
HS scan start time = 02:25:29
Dark Count =  8.3 


Time (GMT)  Wavelength (Ang)  Step Number  Raw Counts  Counts/Second

  145.86        2950.00           1222          62.00       234.09
  145.93        2950.25           1226          62.00       234.09
  145.96        2950.50           1229          51.00       186.14
  145.99        2950.75           1232          57.00       212.29
  146.02        2951.00           1236          55.00       203.58
  146.05        2951.25           1239          66.00       251.53
  146.08        2951.50           1242          64.00       242.81
  146.11        2951.75           1246          65.00       247.17
  146.14        2952.00           1249          58.00       216.65
  146.17        2952.25           1252          54.00       199.22
  146.20        2952.50           1256          57.00       212.29
  146.23        2952.75           1259          57.00       212.29
  146.27        2953.00           1262          62.00       234.09
  146.30        2953.25           1266          56.00       207.94
  146.33        2953.50           1269          58.00       216.65
  146.36        2953.75           1272          63.00       238.45
  146.39        2954.00           1276          57.00       212.29
  146.42        2954.25           1279          54.00       199.22
  146.45        2954.50           1282          62.00       234.09
  146.48        2954.75           1286          64.00       242.81
  146.51        2955.00           1289          66.00       251.53
  146.54        2955.25           1292          55.00       203.58
  146.57        2955.50           1296          62.00       234.09
  146.60        2955.75           1299          66.00       251.53
  146.63        2956.00           1302          55.00       203.58
  146.66        2956.25           1306          56.00       207.94
  146.69        2956.50           1309          54.00       199.22
  146.72        2956.75           1312          64.00       242.81
  146.75        2957.00           1316          60.00       225.37
  146.79        2957.25           1319          62.00       234.09
  146.82        2957.50           1322          52.00       190.50
  146.85        2957.75           1326          56.00       207.94
  146.88        2958.00           1329          56.00       207.94
  146.91        2958.25           1332          62.00       234.09
  146.94        2958.50           1336          63.00       238.45
  146.97        2958.75           1339          60.00       225.37
  147.00        2959.00           1342          61.00       229.73
  147.03        2959.25           1346          56.00       207.94
  147.06        2959.50           1349          62.00       234.09
  147.09        2959.75           1352          77.00       299.48
  147.12        2960.00           1356         115.00       465.13
  147.15        2960.25           1359         137.00       561.04
  147.18        2960.50           1362         165.00       683.10
  147.22        2960.75           1366         219.00       918.51
  147.25        2961.00           1369         259.00      1092.89
  147.28        2961.25           1372         300.00      1271.63
  147.31        2961.50           1376         349.00      1485.25
  147.34        2961.75           1379         432.00      1847.09
  147.37        2962.00           1382         731.00      3150.69
  147.40        2962.25           1386        1904.00      8265.78
  147.43        2962.50           1389        3338.00     14521.15
  147.46        2962.75           1392        4848.00     21110.58
  147.49        2963.00           1396        6793.00     29602.13
  147.52        2963.25           1399        8184.00     35677.66
  147.56        2963.50           1402        9476.00     41322.77
  147.59        2963.75           1406       11677.00     50943.98
  147.62        2964.00           1409       13165.00     57451.60
  147.65        2964.25           1412       14811.00     64653.18
  147.68        2964.50           1416       16837.00     73521.62
  147.71        2964.75           1419       18218.00     79569.40
  147.74        2965.00           1422       19644.00     85816.55
  147.77        2965.25           1426       21675.00     94718.21
  147.80        2965.50           1429       23304.00    101861.40
  147.84        2965.75           1432       24900.00    108862.80
  147.87        2966.00           1436       26735.00    116916.40
  147.90        2966.25           1439       28234.00    123498.10
  147.93        2966.50           1442       29721.00    130029.80
  147.96        2966.75           1446       31323.00    137069.50
  147.99        2967.00           1449       32039.00    140216.70
  148.02        2967.25           1452       32290.00    141320.20
  148.05        2967.50           1456       32400.00    141803.80
  148.08        2967.75           1459       32386.00    141742.30
  148.11        2968.00           1462       32578.00    142586.40
  148.14        2968.25           1466       31706.00    138752.90
  148.17        2968.50           1469       30885.00    135144.50
  148.20        2968.75           1472       29454.00    128856.80
  148.24        2969.00           1476       27547.00    120481.30
  148.27        2969.25           1479       25966.00    113540.80
  148.30        2969.50           1482       24590.00    107502.60
  148.33        2969.75           1486       22593.00     98743.25
  148.36        2970.00           1489       21219.00     92719.19
  148.39        2970.25           1492       19650.00     85842.84
  148.42        2970.50           1496       17832.00     77878.78
  148.45        2970.75           1499       16133.00     70439.45
  148.49        2971.00           1502       14917.00     65117.06
  148.52        2971.25           1506       12770.00     55723.85
  148.55        2971.50           1509       11239.00     49028.91
  148.58        2971.75           1513        9370.00     40859.56
  148.61        2972.00           1516        7826.00     34113.80
  148.64        2972.25           1519        6428.00     28008.27
  148.67        2972.50           1523        4384.00     19085.47
  148.70        2972.75           1526        2997.00     13033.43
  148.73        2973.00           1529        1704.00      7393.53
  148.77        2973.25           1533         554.00      2378.98
  148.80        2973.50           1536         318.00      1350.10
  148.83        2973.75           1539         265.00      1119.04
  148.86        2974.00           1543         219.00       918.51
  148.89        2974.25           1546         174.00       722.33
  148.92        2974.50           1549         128.00       521.80
  148.95        2974.75           1553          87.00       343.07
  148.98        2975.00           1556          79.00       308.20
  149.01        2975.25           1559          65.00       247.17
  149.04        2975.50           1563          59.00       221.01
  149.07        2975.75           1566          61.00       229.73
  149.10        2976.00           1569          59.00       221.01
  149.14        2976.25           1573          57.00       212.29
  149.17        2976.50           1576          59.00       221.01
  149.20        2976.75           1579          60.00       225.37
  149.23        2977.00           1583          65.00       247.17
  149.26        2977.25           1586          59.00       221.01
  149.29        2977.50           1590          58.00       216.65
  149.32        2977.75           1593          58.00       216.65
  149.35        2978.00           1596          55.00       203.58
  149.38        2978.25           1600          56.00       207.94
  149.41        2978.50           1603          58.00       216.65
  149.44        2978.75           1606          50.00       181.78
  149.47        2979.00           1610          58.00       216.65
  149.50        2979.25           1613          56.00       207.94
  149.53        2979.50           1616          65.00       247.17
  149.56        2979.75           1620          62.00       234.09
  149.59        2980.00           1623          53.00       194.86
  149.62        2980.25           1626          54.00       199.22
  149.66        2980.50           1630          54.00       199.22
  149.69        2980.75           1633          54.00       199.22
  149.72        2981.00           1637          61.00       229.73
  149.75        2981.25           1640          52.00       190.50
  149.78        2981.50           1643          60.00       225.37
  149.81        2981.75           1647          49.00       177.42
  149.84        2982.00           1650          56.00       207.94
  149.87        2982.25           1653          57.00       212.29
  149.90        2982.50           1657          55.00       203.58
  149.93        2982.75           1660          61.00       229.73
  149.96        2983.00           1663          62.00       234.09
  149.99        2983.25           1667          48.00       173.06
  150.02        2983.50           1670          54.00       199.22
  150.05        2983.75           1673          52.00       190.50
  150.08        2984.00           1677          56.00       207.94
HS scan finished at 02:30:18
end
************************************************************
  HS Scan of (1) Internal mercury lamp
************************************************************
Integration time is 0.2294 seconds per sample
dh280318Manchester 53.47 2.23 2.804185pr1000
************************************************************
Dead Time -------------------------  3E-08 
Number of Cycles Used -------------  4 
Starting Wavelength (Angstroms) ---  2950 
Final Wavelength (Angstoms) -------  2984 
Wavelength Increment (Angstroms) --  .25 
Filter Wheel #1 Position ---------- (1) Ground quartz diffuser (ND=2.32)
Filter Wheel #2 Position ---------- (1) Neutral Density 0.494



************************************************************
HS scan start time = 19:42:00
Dark Count =  6.2 


Time (GMT)  Wavelength (Ang)  Step Number  Raw Counts  Counts/Second

 1182.38        2950.00           1222          53.00       204.01
 1182.44        2950.25           1226          68.00       269.40
 1182.47        2950.50           1229          60.00       234.53
 1182.51        2950.75           1232          58.00       225.81
 1182.54        2951.00           1236          55.00       212.73
 1182.57        2951.25           1239          64.00       251.96
 1182.60        2951.50           1242          60.00       234.53
 1182.63        2951.75           1246          69.00       273.76
 1182.66        2952.00           1249          66.00       260.68
 1182.69        2952.25           1252          61.00       238.89
 1182.72        2952.50           1256          61.00       238.89
 1182.75        2952.75           1259          56.00       217.09
 1182.78        2953.00           1262          58.00       225.81
 1182.81        2953.25           1266          60.00       234.53
 1182.84        2953.50           1269          51.00       195.29
 1182.87        2953.75           1272          67.00       265.04
 1182.90        2954.00           1276          55.00       212.73
 1182.93        2954.25           1279          52.00       199.65
 1182.97        2954.50           1282          59.00       230.17
 1183.00        2954.75           1286          67.00       265.04
 1183.03        2955.00           1289          65.00       256.32
 1183.06        2955.25           1292          54.00       208.37
 1183.09        2955.50           1296          48.00       182.22
 1183.12        2955.75           1299          57.00       221.45
 1183.15        2956.00           1302          57.00       221.45
 1183.18        2956.25           1306          56.00       217.09
 1183.21        2956.50           1309          63.00       247.60
 1183.24        2956.75           1312          59.00       230.17
 1183.27        2957.00           1316          61.00       238.89
 1183.30        2957.25           1319          56.00       217.09
 1183.33        2957.50           1322          52.00       199.65
 1183.36        2957.75           1326          53.00       204.01
 1183.39        2958.00           1329          58.00       225.81
 1183.43        2958.25           1332          53.00       204.01
 1183.46        2958.50           1336          62.00       243.25
 1183.49        2958.75           1339          59.00       230.17
 1183.52        2959.00           1342          62.00       243.25
 1183.55        2959.25           1346          64.00       251.96
 1183.58        2959.50           1349          81.00       326.07
 1183.61        2959.75           1352          93.00       378.38
 1183.64        2960.00           1356         139.00       578.91
 1183.67        2960.25           1359         150.00       626.86
 1183.70        2960.50           1362         183.00       770.72
 1183.73        2960.75           1366         251.00      1067.17
 1183.77        2961.00           1369         276.00      1176.15
 1183.80        2961.25           1372         309.00      1320.02
 1183.83        2961.50           1376         394.00      1690.58
 1183.86        2961.75           1379         581.00      2505.86
 1183.89        2962.00           1382        1216.00      5274.59
 1183.92        2962.25           1386        2854.00     12418.75
 1183.95        2962.50           1389        4297.00     18714.95
 1183.98        2962.75           1392        5715.00     24904.39
 1184.01        2963.00           1396        7636.00     33293.05
 1184.04        2963.25           1399        9097.00     39675.80
 1184.08        2963.50           1402       10652.00     46471.89
 1184.11        2963.75           1406       12673.00     55308.78
 1184.14        2964.00           1409       14243.00     62176.90
 1184.17        2964.25           1412       15593.00     68084.88
 1184.20        2964.50           1416       17700.00     77309.88
 1184.23        2964.75           1419       19144.00     83635.05
 1184.26        2965.00           1422       20596.00     89997.68
 1184.29        2965.25           1426       22587.00     98726.15
 1184.32        2965.50           1429       24142.00    105546.40
 1184.35        2965.75           1432       25488.00    111452.30
 1184.38        2966.00           1436       27570.00    120591.60
 1184.42        2966.25           1439       28818.00    126072.30
 1184.45        2966.50           1442       30194.00    132117.20
 1184.48        2966.75           1446       31784.00    139105.00
 1184.51        2967.00           1449       32028.00    140177.60
 1184.54        2967.25           1452       32098.00    140485.40
 1184.57        2967.50           1456       32168.00    140793.10
 1184.60        2967.75           1459       31946.00    139817.20
 1184.63        2968.00           1462       31847.00    139382.00
 1184.66        2968.25           1466       30923.00    135320.70
 1184.70        2968.50           1469       29553.00    129301.00
 1184.73        2968.75           1472       28175.00    123248.30
 1184.76        2969.00           1476       26299.00    115011.70
 1184.79        2969.25           1479       24775.00    108323.60
 1184.82        2969.50           1482       23140.00    101151.30
 1184.85        2969.75           1486       21423.00     93622.66
 1184.88        2970.00           1489       19783.00     86434.83
 1184.91        2970.25           1492       18523.00     80914.58
 1184.94        2970.50           1496       16633.00     72637.63
 1184.97        2970.75           1499       15055.00     65730.18
 1185.00        2971.00           1502       13518.00     59004.96
 1185.03        2971.25           1506       11595.00     50594.61
 1185.06        2971.50           1509       10181.00     44413.10
 1185.10        2971.75           1513        8058.00     35136.41
 1185.13        2972.00           1516        6542.00     28515.23
 1185.16        2972.25           1519        5141.00     22398.66
 1185.19        2972.50           1523        3177.00     13827.88
 1185.22        2972.75           1526        1879.00      8165.91
 1185.25        2973.00           1529         799.00      3456.33
 1185.28        2973.25           1533         374.00      1603.39
 1185.31        2973.50           1536         299.00      1276.42
 1185.34        2973.75           1539         258.00      1097.68
 1185.37        2974.00           1543         210.00       888.43
 1185.40        2974.25           1546         151.00       631.22
 1185.43        2974.50           1549         119.00       491.72
 1185.46        2974.75           1553          86.00       347.87
 1185.50        2975.00           1556          68.00       269.40
 1185.53        2975.25           1559          49.00       186.57
 1185.56        2975.50           1563          63.00       247.60
 1185.59        2975.75           1566          57.00       221.45
 1185.62        2976.00           1569          60.00       234.53
 1185.65        2976.25           1573          62.00       243.25
 1185.68        2976.50           1576          55.00       212.73
 1185.71        2976.75           1579          52.00       199.65
 1185.74        2977.00           1583          53.00       204.01
 1185.77        2977.25           1586          58.00       225.81
 1185.80        2977.50           1590          56.00       217.09
 1185.83        2977.75           1593          57.00       221.45
 1185.87        2978.00           1596          55.00       212.73
 1185.90        2978.25           1600          56.00       217.09
 1185.93        2978.50           1603          62.00       243.25
 1185.96        2978.75           1606          54.00       208.37
 1185.99        2979.00           1610          62.00       243.25
 1186.02        2979.25           1613          51.00       195.29
 1186.05        2979.50           1616          56.00       217.09
 1186.08        2979.75           1620          47.00       177.86
 1186.11        2980.00           1623          60.00       234.53
 1186.14        2980.25           1626          52.00       199.65
 1186.17        2980.50           1630          51.00       195.29
 1186.20        2980.75           1633          47.00       177.86
 1186.23        2981.00           1637          58.00       225.81
 1186.26        2981.25           1640          50.00       190.93
 1186.30        2981.50           1643          61.00       238.89
 1186.33        2981.75           1647          56.00       217.09
 1186.36        2982.00           1650          53.00       204.01
 1186.39        2982.25           1653          52.00       199.65
 1186.42        2982.50           1657          55.00       212.73
 1186.45        2982.75           1660          59.00       230.17
 1186.48        2983.00           1663          54.00       208.37
 1186.51        2983.25           1667          51.00       195.29
 1186.54        2983.50           1670          53.00       204.01
 1186.57        2983.75           1673          56.00       217.09
 1186.60        2984.00           1677          58.00       225.81
HS scan finished at 19:46:49
end
