************************************************************
  HS Scan of (1) Internal mercury lamp
************************************************************
Integration time is 0.2294 seconds per sample
dh290319Manchester 53.47 2.23 2.804185pr1000
************************************************************
Dead Time -------------------------  3E-08 
Number of Cycles Used -------------  4 
Starting Wavelength (Angstroms) ---  2950 
Final Wavelength (Angstoms) -------  2984 
Wavelength Increment (Angstroms) --  .25 
Filter Wheel #1 Position ---------- (1) Ground quartz diffuser (ND=2.32)
Filter Wheel #2 Position ---------- (1) Neutral Density 0.494



************************************************************
HS scan start time = 02:21:21
Dark Count =  5.5 


Time (GMT)  Wavelength (Ang)  Step Number  Raw Counts  Counts/Second

  141.72        2950.00           1222          59.00       233.22
  141.79        2950.25           1226          67.00       268.09
  141.82        2950.50           1229          56.00       220.14
  141.85        2950.75           1232          59.00       233.22
  141.88        2951.00           1236          62.00       246.30
  141.92        2951.25           1239          55.00       215.78
  141.95        2951.50           1242          58.00       228.86
  141.98        2951.75           1246          59.00       233.22
  142.01        2952.00           1249          65.00       259.37
  142.04        2952.25           1252          56.00       220.14
  142.07        2952.50           1256          49.00       189.63
  142.10        2952.75           1259          65.00       259.37
  142.13        2953.00           1262          58.00       228.86
  142.16        2953.25           1266          55.00       215.78
  142.19        2953.50           1269          49.00       189.63
  142.22        2953.75           1272          53.00       207.06
  142.26        2954.00           1276          60.00       237.58
  142.29        2954.25           1279          52.00       202.70
  142.32        2954.50           1282          64.00       255.02
  142.35        2954.75           1286          63.00       250.66
  142.38        2955.00           1289          54.00       211.42
  142.41        2955.25           1292          54.00       211.42
  142.44        2955.50           1296          51.00       198.34
  142.47        2955.75           1299          58.00       228.86
  142.50        2956.00           1302          60.00       237.58
  142.53        2956.25           1306          57.00       224.50
  142.56        2956.50           1309          52.00       202.70
  142.60        2956.75           1312          54.00       211.42
  142.63        2957.00           1316          54.00       211.42
  142.66        2957.25           1319          51.00       198.34
  142.69        2957.50           1322          61.00       241.94
  142.72        2957.75           1326          55.00       215.78
  142.75        2958.00           1329          57.00       224.50
  142.78        2958.25           1332          62.00       246.30
  142.81        2958.50           1336          56.00       220.14
  142.84        2958.75           1339          54.00       211.42
  142.88        2959.00           1342          56.00       220.14
  142.91        2959.25           1346          61.00       241.94
  142.94        2959.50           1349          68.00       272.45
  142.97        2959.75           1352          71.00       285.53
  143.00        2960.00           1356          90.00       368.36
  143.03        2960.25           1359         122.00       507.85
  143.06        2960.50           1362         145.00       608.12
  143.09        2960.75           1366         192.00       813.01
  143.12        2961.00           1369         209.00       887.12
  143.15        2961.25           1372         240.00      1022.26
  143.18        2961.50           1376         310.00      1327.43
  143.21        2961.75           1379         418.00      1798.27
  143.25        2962.00           1382         873.00      3782.03
  143.28        2962.25           1386        2126.00      9246.24
  143.31        2962.50           1389        3290.00     14323.94
  143.34        2962.75           1392        4459.00     19425.00
  143.37        2963.00           1396        6156.00     26832.84
  143.40        2963.25           1399        7364.00     32108.07
  143.43        2963.50           1402        8617.00     37581.58
  143.46        2963.75           1406       10194.00     44472.98
  143.49        2964.00           1409       11533.00     50326.58
  143.52        2964.25           1412       12742.00     55613.64
  143.55        2964.50           1416       14466.00     63155.73
  143.58        2964.75           1419       15695.00     68534.41
  143.62        2965.00           1422       16839.00     73542.65
  143.65        2965.25           1426       18564.00     81097.25
  143.68        2965.50           1429       19759.00     86332.74
  143.71        2965.75           1432       20852.00     91122.78
  143.74        2966.00           1436       22522.00     98444.19
  143.77        2966.25           1439       23552.00    102961.40
  143.80        2966.50           1442       24768.00    108295.90
  143.83        2966.75           1446       25948.00    113474.10
  143.86        2967.00           1449       26410.00    115502.00
  143.90        2967.25           1452       26504.00    115914.60
  143.93        2967.50           1456       26431.00    115594.20
  143.96        2967.75           1459       26466.00    115747.80
  143.99        2968.00           1462       26415.00    115523.90
  144.02        2968.25           1466       25817.00    112899.20
  144.05        2968.50           1469       24625.00    107668.50
  144.08        2968.75           1472       23383.00    102220.10
  144.11        2969.00           1476       21998.00     96146.59
  144.15        2969.25           1479       20840.00     91070.19
  144.18        2969.50           1482       19552.00     85425.71
  144.21        2969.75           1486       17809.00     77790.31
  144.24        2970.00           1489       16624.00     72601.30
  144.27        2970.25           1492       15586.00     68057.30
  144.30        2970.50           1496       13802.00     60250.48
  144.33        2970.75           1499       12471.00     54428.39
  144.36        2971.00           1502       11417.00     49819.39
  144.39        2971.25           1506        9817.00     42825.26
  144.42        2971.50           1509        8523.00     37170.90
  144.46        2971.75           1513        6957.00     30330.55
  144.49        2972.00           1516        5721.00     24933.64
  144.52        2972.25           1519        4568.00     19900.72
  144.55        2972.50           1523        3015.00     13124.17
  144.58        2972.75           1526        1799.00      7820.06
  144.61        2973.00           1529         801.00      3468.10
  144.64        2973.25           1533         365.00      1567.21
  144.67        2973.50           1536         284.00      1214.08
  144.70        2973.75           1539         239.00      1017.90
  144.73        2974.00           1543         216.00       917.64
  144.77        2974.25           1546         160.00       673.51
  144.80        2974.50           1549         143.00       599.40
  144.83        2974.75           1553          92.00       377.07
  144.86        2975.00           1556          64.00       255.02
  144.89        2975.25           1559          64.00       255.02
  144.92        2975.50           1563          49.00       189.63
  144.95        2975.75           1566          55.00       215.78
  144.98        2976.00           1569          49.00       189.63
  145.01        2976.25           1573          44.00       167.83
  145.05        2976.50           1576          51.00       198.34
  145.08        2976.75           1579          48.00       185.27
  145.11        2977.00           1583          56.00       220.14
  145.14        2977.25           1586          56.00       220.14
  145.17        2977.50           1590          52.00       202.70
  145.20        2977.75           1593          53.00       207.06
  145.23        2978.00           1596          57.00       224.50
  145.26        2978.25           1600          46.00       176.55
  145.29        2978.50           1603          41.00       154.75
  145.32        2978.75           1606          48.00       185.27
  145.36        2979.00           1610          45.00       172.19
  145.39        2979.25           1613          50.00       193.99
  145.42        2979.50           1616          55.00       215.78
  145.45        2979.75           1620          53.00       207.06
  145.48        2980.00           1623          50.00       193.99
  145.51        2980.25           1626          49.00       189.63
  145.54        2980.50           1630          47.00       180.91
  145.57        2980.75           1633          56.00       220.14
  145.60        2981.00           1637          44.00       167.83
  145.63        2981.25           1640          44.00       167.83
  145.66        2981.50           1643          53.00       207.06
  145.69        2981.75           1647          51.00       198.34
  145.73        2982.00           1650          48.00       185.27
  145.76        2982.25           1653          54.00       211.42
  145.79        2982.50           1657          47.00       180.91
  145.82        2982.75           1660          50.00       193.99
  145.85        2983.00           1663          48.00       185.27
  145.88        2983.25           1667          50.00       193.99
  145.91        2983.50           1670          47.00       180.91
  145.94        2983.75           1673          52.00       202.70
  145.97        2984.00           1677          50.00       193.99
HS scan finished at 02:26:11
end
************************************************************
  HS Scan of (1) Internal mercury lamp
************************************************************
Integration time is 0.2294 seconds per sample
dh290319Manchester 53.47 2.23 2.804185pr1000
************************************************************
Dead Time -------------------------  3E-08 
Number of Cycles Used -------------  4 
Starting Wavelength (Angstroms) ---  2950 
Final Wavelength (Angstoms) -------  2984 
Wavelength Increment (Angstroms) --  .25 
Filter Wheel #1 Position ---------- (1) Ground quartz diffuser (ND=2.32)
Filter Wheel #2 Position ---------- (1) Neutral Density 0.494



************************************************************
HS scan start time = 19:42:14
Dark Count =  7.6 


Time (GMT)  Wavelength (Ang)  Step Number  Raw Counts  Counts/Second

 1182.61        2950.00           1222          61.00       232.78
 1182.68        2950.25           1226          56.00       210.99
 1182.71        2950.50           1229          55.00       206.63
 1182.74        2950.75           1232          53.00       197.91
 1182.77        2951.00           1236          52.00       193.55
 1182.80        2951.25           1239          50.00       184.83
 1182.83        2951.50           1242          44.00       158.68
 1182.86        2951.75           1246          52.00       193.55
 1182.90        2952.00           1249          54.00       202.27
 1182.93        2952.25           1252          51.00       189.19
 1182.96        2952.50           1256          53.00       197.91
 1182.99        2952.75           1259          62.00       237.14
 1183.02        2953.00           1262          51.00       189.19
 1183.05        2953.25           1266          48.00       176.11
 1183.08        2953.50           1269          56.00       210.99
 1183.11        2953.75           1272          52.00       193.55
 1183.14        2954.00           1276          57.00       215.35
 1183.18        2954.25           1279          55.00       206.63
 1183.21        2954.50           1282          49.00       180.47
 1183.24        2954.75           1286          55.00       206.63
 1183.27        2955.00           1289          50.00       184.83
 1183.30        2955.25           1292          54.00       202.27
 1183.33        2955.50           1296          60.00       228.42
 1183.36        2955.75           1299          58.00       219.71
 1183.39        2956.00           1302          58.00       219.71
 1183.42        2956.25           1306          53.00       197.91
 1183.45        2956.50           1309          55.00       206.63
 1183.48        2956.75           1312          57.00       215.35
 1183.52        2957.00           1316          63.00       241.50
 1183.55        2957.25           1319          56.00       210.99
 1183.58        2957.50           1322          58.00       219.71
 1183.61        2957.75           1326          60.00       228.42
 1183.64        2958.00           1329          56.00       210.99
 1183.67        2958.25           1332          52.00       193.55
 1183.70        2958.50           1336          54.00       202.27
 1183.73        2958.75           1339          57.00       215.35
 1183.76        2959.00           1342          64.00       245.86
 1183.80        2959.25           1346          64.00       245.86
 1183.83        2959.50           1349          60.00       228.42
 1183.86        2959.75           1352          71.00       276.38
 1183.89        2960.00           1356         103.00       415.87
 1183.92        2960.25           1359         120.00       489.98
 1183.95        2960.50           1362         151.00       625.12
 1183.98        2960.75           1366         200.00       838.73
 1184.01        2961.00           1369         218.00       917.20
 1184.04        2961.25           1372         259.00      1095.94
 1184.08        2961.50           1376         323.00      1374.95
 1184.11        2961.75           1379         390.00      1667.04
 1184.14        2962.00           1382         771.00      3328.14
 1184.17        2962.25           1386        1909.00      8290.64
 1184.20        2962.50           1389        3167.00     13778.14
 1184.23        2962.75           1392        4393.00     19127.80
 1184.26        2963.00           1396        5993.00     26111.99
 1184.29        2963.25           1399        7178.00     31286.55
 1184.32        2963.50           1402        8400.00     36624.36
 1184.35        2963.75           1406       10135.00     44205.93
 1184.38        2964.00           1409       11304.00     49316.16
 1184.42        2964.25           1412       12635.00     55136.47
 1184.45        2964.50           1416       14381.00     62774.61
 1184.48        2964.75           1419       15487.00     67614.79
 1184.51        2965.00           1422       16588.00     72434.49
 1184.54        2965.25           1426       18247.00     79699.49
 1184.57        2965.50           1429       19575.00     85517.29
 1184.60        2965.75           1432       20910.00     91367.81
 1184.63        2966.00           1436       22567.00     98632.31
 1184.66        2966.25           1439       23738.00    103768.10
 1184.69        2966.50           1442       24968.00    109164.30
 1184.73        2966.75           1446       26142.00    114316.40
 1184.76        2967.00           1449       26455.00    115690.30
 1184.79        2967.25           1452       26510.00    115931.70
 1184.82        2967.50           1456       26586.00    116265.30
 1184.85        2967.75           1459       26368.00    115308.40
 1184.88        2968.00           1462       26385.00    115383.00
 1184.91        2968.25           1466       25825.00    112925.10
 1184.94        2968.50           1469       24728.00    108111.20
 1184.97        2968.75           1472       23552.00    102952.20
 1185.01        2969.00           1476       22067.00     96439.91
 1185.04        2969.25           1479       20721.00     90539.40
 1185.07        2969.50           1482       19576.00     85521.68
 1185.10        2969.75           1486       17848.00     77951.91
 1185.13        2970.00           1489       16677.00     72824.15
 1185.16        2970.25           1492       15503.00     67684.81
 1185.19        2970.50           1496       13920.00     60757.56
 1185.22        2970.75           1499       12678.00     55324.53
 1185.25        2971.00           1502       11592.00     50575.37
 1185.29        2971.25           1506        9954.00     43414.84
 1185.32        2971.50           1509        8748.00     38144.76
 1185.35        2971.75           1513        7110.00     30989.56
 1185.38        2972.00           1516        5929.00     25832.57
 1185.41        2972.25           1519        4618.00     20109.77
 1185.44        2972.50           1523        3076.00     13381.13
 1185.47        2972.75           1526        1939.00      8421.48
 1185.50        2973.00           1529         930.00      4021.41
 1185.53        2973.25           1533         344.00      1466.50
 1185.57        2973.50           1536         256.00      1082.86
 1185.60        2973.75           1539         222.00       934.64
 1185.63        2974.00           1543         185.00       773.34
 1185.66        2974.25           1546         134.00       551.01
 1185.69        2974.50           1549         102.00       411.51
 1185.72        2974.75           1553          74.00       289.45
 1185.75        2975.00           1556          62.00       237.14
 1185.78        2975.25           1559          54.00       202.27
 1185.81        2975.50           1563          55.00       206.63
 1185.85        2975.75           1566          54.00       202.27
 1185.88        2976.00           1569          48.00       176.11
 1185.91        2976.25           1573          58.00       219.71
 1185.94        2976.50           1576          51.00       189.19
 1185.97        2976.75           1579          57.00       215.35
 1186.00        2977.00           1583          48.00       176.11
 1186.03        2977.25           1586          49.00       180.47
 1186.06        2977.50           1590          48.00       176.11
 1186.09        2977.75           1593          58.00       219.71
 1186.12        2978.00           1596          59.00       224.06
 1186.15        2978.25           1600          49.00       180.47
 1186.18        2978.50           1603          50.00       184.83
 1186.22        2978.75           1606          57.00       215.35
 1186.25        2979.00           1610          60.00       228.42
 1186.28        2979.25           1613          50.00       184.83
 1186.31        2979.50           1616          48.00       176.11
 1186.34        2979.75           1620          47.00       171.75
 1186.37        2980.00           1623          55.00       206.63
 1186.40        2980.25           1626          49.00       180.47
 1186.43        2980.50           1630          50.00       184.83
 1186.46        2980.75           1633          66.00       254.58
 1186.49        2981.00           1637          49.00       180.47
 1186.52        2981.25           1640          51.00       189.19
 1186.56        2981.50           1643          53.00       197.91
 1186.59        2981.75           1647          41.00       145.60
 1186.62        2982.00           1650          54.00       202.27
 1186.65        2982.25           1653          60.00       228.42
 1186.68        2982.50           1657          50.00       184.83
 1186.71        2982.75           1660          48.00       176.11
 1186.74        2983.00           1663          46.00       167.39
 1186.77        2983.25           1667          49.00       180.47
 1186.80        2983.50           1670          53.00       197.91
 1186.83        2983.75           1673          47.00       171.75
 1186.87        2984.00           1677          54.00       202.27
HS scan finished at 19:47:05
end
