************************************************************
  HS Scan of (1) Internal mercury lamp
************************************************************
Integration time is 0.2294 seconds per sample
dh270319Manchester 53.47 2.23 2.804185pr1000
************************************************************
Dead Time -------------------------  3E-08 
Number of Cycles Used -------------  4 
Starting Wavelength (Angstroms) ---  2950 
Final Wavelength (Angstoms) -------  2984 
Wavelength Increment (Angstroms) --  .25 
Filter Wheel #1 Position ---------- (1) Ground quartz diffuser (ND=2.32)
Filter Wheel #2 Position ---------- (1) Neutral Density 0.494



************************************************************
HS scan start time = 02:32:18
Dark Count =  6.1 


Time (GMT)  Wavelength (Ang)  Step Number  Raw Counts  Counts/Second

  152.67        2950.00           1222          56.00       217.53
  152.73        2950.25           1226          51.00       195.73
  152.76        2950.50           1229          54.00       208.81
  152.80        2950.75           1232          58.00       226.24
  152.83        2951.00           1236          59.00       230.60
  152.86        2951.25           1239          63.00       248.04
  152.89        2951.50           1242          52.00       200.09
  152.92        2951.75           1246          46.00       173.93
  152.95        2952.00           1249          61.00       239.32
  152.98        2952.25           1252          59.00       230.60
  153.01        2952.50           1256          60.00       234.96
  153.04        2952.75           1259          49.00       187.01
  153.07        2953.00           1262          59.00       230.60
  153.10        2953.25           1266          52.00       200.09
  153.13        2953.50           1269          52.00       200.09
  153.17        2953.75           1272          58.00       226.24
  153.20        2954.00           1276          51.00       195.73
  153.23        2954.25           1279          74.00       295.99
  153.26        2954.50           1282          53.00       204.45
  153.29        2954.75           1286          48.00       182.65
  153.32        2955.00           1289          53.00       204.45
  153.35        2955.25           1292          59.00       230.60
  153.38        2955.50           1296          56.00       217.53
  153.41        2955.75           1299          51.00       195.73
  153.44        2956.00           1302          58.00       226.24
  153.47        2956.25           1306          58.00       226.24
  153.51        2956.50           1309          57.00       221.88
  153.54        2956.75           1312          62.00       243.68
  153.57        2957.00           1316          62.00       243.68
  153.60        2957.25           1319          47.00       178.29
  153.63        2957.50           1322          52.00       200.09
  153.66        2957.75           1326          53.00       204.45
  153.69        2958.00           1329          51.00       195.73
  153.72        2958.25           1332          57.00       221.88
  153.75        2958.50           1336          55.00       213.17
  153.78        2958.75           1339          58.00       226.24
  153.81        2959.00           1342          57.00       221.88
  153.84        2959.25           1346          52.00       200.09
  153.87        2959.50           1349          57.00       221.88
  153.90        2959.75           1352          69.00       274.20
  153.93        2960.00           1356          82.00       330.87
  153.96        2960.25           1359         103.00       422.41
  154.00        2960.50           1362         125.00       518.32
  154.03        2960.75           1366         185.00       779.88
  154.06        2961.00           1369         184.00       775.52
  154.09        2961.25           1372         238.00      1010.93
  154.12        2961.50           1376         293.00      1250.70
  154.15        2961.75           1379         462.00      1987.48
  154.18        2962.00           1382        1117.00      4843.34
  154.21        2962.25           1386        2551.00     11097.42
  154.24        2962.50           1389        3736.00     16267.31
  154.27        2962.75           1392        4991.00     21744.35
  154.30        2963.00           1396        6635.00     28921.77
  154.34        2963.25           1399        7633.00     33280.38
  154.37        2963.50           1402        8890.00     38771.75
  154.40        2963.75           1406       10475.00     45698.62
  154.43        2964.00           1409       11764.00     51334.01
  154.46        2964.25           1412       13078.00     57080.67
  154.49        2964.50           1416       14639.00     63910.13
  154.52        2964.75           1419       15990.00     69823.09
  154.55        2965.00           1422       17296.00     75541.10
  154.58        2965.25           1426       19152.00     83670.53
  154.61        2965.50           1429       20367.00     88994.48
  154.65        2965.75           1432       21350.00     93303.09
  154.68        2966.00           1436       23030.00    100669.30
  154.71        2966.25           1439       24299.00    106235.60
  154.74        2966.50           1442       25303.00    110640.80
  154.77        2966.75           1446       26392.00    115420.30
  154.80        2967.00           1449       26352.00    115244.70
  154.83        2967.25           1452       26446.00    115657.40
  154.86        2967.50           1456       26391.00    115416.00
  154.89        2967.75           1459       26505.00    115916.40
  154.92        2968.00           1462       26045.00    113897.20
  154.96        2968.25           1466       25165.00    110035.30
  154.99        2968.50           1469       24170.00    105669.70
  155.02        2968.75           1472       22858.00     99915.00
  155.05        2969.00           1476       21304.00     93101.44
  155.08        2969.25           1479       20124.00     87929.56
  155.11        2969.50           1482       19019.00     83087.85
  155.14        2969.75           1486       17488.00     76381.88
  155.17        2970.00           1489       16268.00     71040.09
  155.21        2970.25           1492       15242.00     66549.03
  155.24        2970.50           1496       13447.00     58694.81
  155.27        2970.75           1499       12196.00     53223.11
  155.30        2971.00           1502       10931.00     47691.99
  155.33        2971.25           1506        9312.00     40615.72
  155.36        2971.50           1509        8158.00     35573.69
  155.39        2971.75           1513        6449.00     28109.57
  155.42        2972.00           1516        5262.00     22927.27
  155.45        2972.25           1519        4000.00     17419.30
  155.48        2972.50           1523        2471.00     10748.45
  155.51        2972.75           1526        1386.00      6016.34
  155.55        2973.00           1529         637.00      2750.44
  155.58        2973.25           1533         345.00      1477.40
  155.61        2973.50           1536         281.00      1198.39
  155.64        2973.75           1539         254.00      1080.68
  155.67        2974.00           1543         201.00       849.63
  155.70        2974.25           1546         145.00       605.50
  155.73        2974.50           1549         127.00       527.04
  155.76        2974.75           1553          86.00       348.30
  155.79        2975.00           1556          75.00       300.35
  155.82        2975.25           1559          62.00       243.68
  155.85        2975.50           1563          63.00       248.04
  155.88        2975.75           1566          57.00       221.88
  155.91        2976.00           1569          50.00       191.37
  155.95        2976.25           1573          57.00       221.88
  155.98        2976.50           1576          58.00       226.24
  156.01        2976.75           1579          54.00       208.81
  156.04        2977.00           1583          57.00       221.88
  156.07        2977.25           1586          59.00       230.60
  156.10        2977.50           1590          56.00       217.53
  156.13        2977.75           1593          50.00       191.37
  156.16        2978.00           1596          48.00       182.65
  156.19        2978.25           1600          55.00       213.17
  156.22        2978.50           1603          45.00       169.57
  156.26        2978.75           1606          61.00       239.32
  156.29        2979.00           1610          58.00       226.24
  156.32        2979.25           1613          54.00       208.81
  156.35        2979.50           1616          55.00       213.17
  156.38        2979.75           1620          48.00       182.65
  156.41        2980.00           1623          53.00       204.45
  156.44        2980.25           1626          49.00       187.01
  156.47        2980.50           1630          67.00       265.48
  156.50        2980.75           1633          54.00       208.81
  156.53        2981.00           1637          48.00       182.65
  156.56        2981.25           1640          49.00       187.01
  156.60        2981.50           1643          46.00       173.93
  156.63        2981.75           1647          56.00       217.53
  156.66        2982.00           1650          52.00       200.09
  156.69        2982.25           1653          50.00       191.37
  156.72        2982.50           1657          45.00       169.57
  156.75        2982.75           1660          57.00       221.88
  156.78        2983.00           1663          48.00       182.65
  156.81        2983.25           1667          44.00       165.21
  156.84        2983.50           1670          44.00       165.21
  156.87        2983.75           1673          55.00       213.17
  156.91        2984.00           1677          47.00       178.29
HS scan finished at 02:37:07
end
************************************************************
  HS Scan of (1) Internal mercury lamp
************************************************************
Integration time is 0.2294 seconds per sample
dh270319Manchester 53.47 2.23 2.804185pr1000
************************************************************
Dead Time -------------------------  3E-08 
Number of Cycles Used -------------  4 
Starting Wavelength (Angstroms) ---  2950 
Final Wavelength (Angstoms) -------  2984 
Wavelength Increment (Angstroms) --  .25 
Filter Wheel #1 Position ---------- (1) Ground quartz diffuser (ND=2.32)
Filter Wheel #2 Position ---------- (1) Neutral Density 0.494



************************************************************
HS scan start time = 19:43:26
Dark Count =  8.100001 


Time (GMT)  Wavelength (Ang)  Step Number  Raw Counts  Counts/Second

 1183.80        2950.00           1222          56.00       208.81
 1183.87        2950.25           1226          51.00       187.01
 1183.90        2950.50           1229          64.00       243.68
 1183.93        2950.75           1232          58.00       217.53
 1183.96        2951.00           1236          61.00       230.60
 1183.99        2951.25           1239          61.00       230.60
 1184.02        2951.50           1242          53.00       195.73
 1184.05        2951.75           1246          52.00       191.37
 1184.08        2952.00           1249          52.00       191.37
 1184.12        2952.25           1252          51.00       187.01
 1184.15        2952.50           1256          54.00       200.09
 1184.18        2952.75           1259          55.00       204.45
 1184.21        2953.00           1262          54.00       200.09
 1184.24        2953.25           1266          56.00       208.81
 1184.27        2953.50           1269          58.00       217.53
 1184.30        2953.75           1272          53.00       195.73
 1184.33        2954.00           1276          57.00       213.17
 1184.36        2954.25           1279          56.00       208.81
 1184.39        2954.50           1282          55.00       204.45
 1184.42        2954.75           1286          61.00       230.60
 1184.46        2955.00           1289          54.00       200.09
 1184.49        2955.25           1292          57.00       213.17
 1184.52        2955.50           1296          65.00       248.04
 1184.55        2955.75           1299          57.00       213.17
 1184.58        2956.00           1302          51.00       187.01
 1184.61        2956.25           1306          49.00       178.29
 1184.64        2956.50           1309          57.00       213.17
 1184.67        2956.75           1312          54.00       200.09
 1184.70        2957.00           1316          58.00       217.53
 1184.74        2957.25           1319          51.00       187.01
 1184.77        2957.50           1322          56.00       208.81
 1184.80        2957.75           1326          53.00       195.73
 1184.83        2958.00           1329          51.00       187.01
 1184.86        2958.25           1332          51.00       187.01
 1184.89        2958.50           1336          48.00       173.93
 1184.92        2958.75           1339          48.00       173.93
 1184.95        2959.00           1342          52.00       191.37
 1184.98        2959.25           1346          54.00       200.09
 1185.02        2959.50           1349          59.00       221.88
 1185.05        2959.75           1352          62.00       234.96
 1185.08        2960.00           1356          81.00       317.79
 1185.11        2960.25           1359         100.00       400.62
 1185.14        2960.50           1362         124.00       505.24
 1185.17        2960.75           1366         172.00       714.49
 1185.20        2961.00           1369         207.00       867.07
 1185.23        2961.25           1372         248.00      1045.80
 1185.27        2961.50           1376         269.00      1137.35
 1185.30        2961.75           1379         325.00      1381.49
 1185.33        2962.00           1382         507.00      2174.95
 1185.36        2962.25           1386        1427.00      6186.41
 1185.39        2962.50           1389        2538.00     11031.99
 1185.42        2962.75           1392        3672.00     15979.32
 1185.45        2963.00           1396        5388.00     23468.57
 1185.48        2963.25           1399        6642.00     28943.60
 1185.51        2963.50           1402        7752.00     33791.43
 1185.55        2963.75           1406        9525.00     41537.79
 1185.58        2964.00           1409       10719.00     46756.48
 1185.61        2964.25           1412       11980.00     52269.78
 1185.64        2964.50           1416       13630.00     59486.63
 1185.67        2964.75           1419       14833.00     64750.33
 1185.70        2965.00           1422       16016.00     69928.15
 1185.73        2965.25           1426       17800.00     77739.51
 1185.76        2965.50           1429       18882.00     82478.90
 1185.79        2965.75           1432       20109.00     87855.06
 1185.83        2966.00           1436       21774.00     95153.10
 1185.86        2966.25           1439       23069.00    100831.60
 1185.89        2966.50           1442       24203.00    105805.70
 1185.92        2966.75           1446       25560.00    111759.90
 1185.95        2967.00           1449       26050.00    113910.40
 1185.98        2967.25           1452       26274.00    114893.60
 1186.01        2967.50           1456       26310.00    115051.60
 1186.04        2967.75           1459       26351.00    115231.60
 1186.07        2968.00           1462       26284.00    114937.50
 1186.11        2968.25           1466       25757.00    112624.50
 1186.15        2968.50           1469       24974.00    109188.40
 1186.19        2968.75           1472       23840.00    104213.30
 1186.22        2969.00           1476       22224.00     97126.09
 1186.26        2969.25           1479       21172.00     92514.04
 1186.29        2969.50           1482       19879.00     86847.16
 1186.33        2969.75           1486       18075.00     78943.94
 1186.36        2970.00           1489       16960.00     74061.06
 1186.39        2970.25           1492       15764.00     68825.05
 1186.42        2970.50           1496       14140.00     61717.92
 1186.45        2970.75           1499       13009.00     56770.11
 1186.48        2971.00           1502       11903.00     51933.08
 1186.51        2971.25           1506       10370.00     45230.91
 1186.54        2971.50           1509        9076.00     39575.73
 1186.57        2971.75           1513        7479.00     32599.00
 1186.61        2972.00           1516        6204.00     27031.07
 1186.64        2972.25           1519        4941.00     21517.38
 1186.67        2972.50           1523        3380.00     14705.27
 1186.70        2972.75           1526        2226.00      9671.07
 1186.73        2973.00           1529        1129.00      4886.94
 1186.76        2973.25           1533         444.00      1900.28
 1186.79        2973.50           1536         297.00      1259.42
 1186.82        2973.75           1539         242.00      1019.65
 1186.85        2974.00           1543         223.00       936.82
 1186.88        2974.25           1546         178.00       740.64
 1186.92        2974.50           1549         140.00       574.99
 1186.95        2974.75           1553         102.00       409.33
 1186.98        2975.00           1556          79.00       309.07
 1187.01        2975.25           1559          76.00       295.99
 1187.04        2975.50           1563          63.00       239.32
 1187.07        2975.75           1566          55.00       204.45
 1187.10        2976.00           1569          51.00       187.01
 1187.13        2976.25           1573          51.00       187.01
 1187.16        2976.50           1576          53.00       195.73
 1187.19        2976.75           1579          53.00       195.73
 1187.22        2977.00           1583          53.00       195.73
 1187.25        2977.25           1586          47.00       169.57
 1187.28        2977.50           1590          49.00       178.29
 1187.31        2977.75           1593          55.00       204.45
 1187.35        2978.00           1596          52.00       191.37
 1187.38        2978.25           1600          54.00       200.09
 1187.41        2978.50           1603          51.00       187.01
 1187.44        2978.75           1606          52.00       191.37
 1187.47        2979.00           1610          47.00       169.57
 1187.50        2979.25           1613          57.00       213.17
 1187.53        2979.50           1616          50.00       182.65
 1187.56        2979.75           1620          54.00       200.09
 1187.59        2980.00           1623          54.00       200.09
 1187.62        2980.25           1626          43.00       152.14
 1187.65        2980.50           1630          56.00       208.81
 1187.68        2980.75           1633          47.00       169.57
 1187.72        2981.00           1637          51.00       187.01
 1187.75        2981.25           1640          49.00       178.29
 1187.78        2981.50           1643          54.00       200.09
 1187.81        2981.75           1647          58.00       217.53
 1187.84        2982.00           1650          42.00       147.78
 1187.87        2982.25           1653          51.00       187.01
 1187.90        2982.50           1657          47.00       169.57
 1187.93        2982.75           1660          46.00       165.21
 1187.96        2983.00           1663          55.00       204.45
 1187.99        2983.25           1667          51.00       187.01
 1188.03        2983.50           1670          50.00       182.65
 1188.06        2983.75           1673          48.00       173.93
 1188.09        2984.00           1677          52.00       191.37
HS scan finished at 19:48:18
end
