************************************************************
  HS Scan of (1) Internal mercury lamp
************************************************************
Integration time is 0.2294 seconds per sample
dh290317Manchester 53.47 2.23 2.804185pr1000
************************************************************
Dead Time -------------------------  3E-08 
Number of Cycles Used -------------  4 
Starting Wavelength (Angstroms) ---  2950 
Final Wavelength (Angstoms) -------  2984 
Wavelength Increment (Angstroms) --  .25 
Filter Wheel #1 Position ---------- (1) Ground quartz diffuser (ND=2.32)
Filter Wheel #2 Position ---------- (1) Neutral Density 0.494



************************************************************
HS scan start time = 02:18:24
Dark Count =  6.7 


Time (GMT)  Wavelength (Ang)  Step Number  Raw Counts  Counts/Second

  138.77        2950.00           1222          51.00       193.11
  138.84        2950.25           1226          46.00       171.32
  138.87        2950.50           1229          42.00       153.88
  138.90        2950.75           1232          49.00       184.40
  138.93        2951.00           1236          40.00       145.16
  138.97        2951.25           1239          46.00       171.32
  139.00        2951.50           1242          43.00       158.24
  139.03        2951.75           1246          43.00       158.24
  139.06        2952.00           1249          47.00       175.68
  139.09        2952.25           1252          46.00       171.32
  139.12        2952.50           1256          50.00       188.75
  139.15        2952.75           1259          45.00       166.96
  139.18        2953.00           1262          43.00       158.24
  139.21        2953.25           1266          46.00       171.32
  139.24        2953.50           1269          54.00       206.19
  139.27        2953.75           1272          51.00       193.11
  139.31        2954.00           1276          55.00       210.55
  139.34        2954.25           1279          47.00       175.68
  139.37        2954.50           1282          46.00       171.32
  139.40        2954.75           1286          51.00       193.11
  139.43        2955.00           1289          45.00       166.96
  139.46        2955.25           1292          51.00       193.11
  139.49        2955.50           1296          46.00       171.32
  139.52        2955.75           1299          44.00       162.60
  139.55        2956.00           1302          44.00       162.60
  139.58        2956.25           1306          45.00       166.96
  139.61        2956.50           1309          48.00       180.04
  139.65        2956.75           1312          53.00       201.83
  139.68        2957.00           1316          54.00       206.19
  139.71        2957.25           1319          47.00       175.68
  139.74        2957.50           1322          49.00       184.40
  139.77        2957.75           1326          46.00       171.32
  139.80        2958.00           1329          45.00       166.96
  139.83        2958.25           1332          42.00       153.88
  139.86        2958.50           1336          45.00       166.96
  139.89        2958.75           1339          44.00       162.60
  139.92        2959.00           1342          45.00       166.96
  139.96        2959.25           1346          43.00       158.24
  139.99        2959.50           1349          62.00       241.07
  140.02        2959.75           1352          83.00       332.61
  140.05        2960.00           1356         109.00       445.95
  140.08        2960.25           1359         131.00       541.86
  140.11        2960.50           1362         182.00       764.18
  140.14        2960.75           1366         229.00       969.08
  140.17        2961.00           1369         275.00      1169.61
  140.20        2961.25           1372         329.00      1405.03
  140.23        2961.50           1376         402.00      1723.28
  140.26        2961.75           1379         599.00      2582.15
  140.30        2962.00           1382        1181.00      5119.79
  140.33        2962.25           1386        2883.00     12543.08
  140.36        2962.50           1389        4350.00     18944.07
  140.39        2962.75           1392        6056.00     26390.98
  140.42        2963.00           1396        8179.00     35662.81
  140.45        2963.25           1399        9974.00     43506.18
  140.48        2963.50           1402       11632.00     50754.21
  140.51        2963.75           1406       13969.00     60975.87
  140.54        2964.00           1409       15674.00     68437.22
  140.57        2964.25           1412       17415.00     76059.58
  140.61        2964.50           1416       19690.00     86025.13
  140.64        2964.75           1419       21363.00     93357.44
  140.67        2965.00           1422       23289.00    101802.60
  140.70        2965.25           1426       25557.00    111752.90
  140.73        2965.50           1429       27064.00    118367.70
  140.76        2965.75           1432       28708.00    125586.90
  140.79        2966.00           1436       30871.00    135090.00
  140.82        2966.25           1439       32453.00    142043.90
  140.85        2966.50           1442       34025.00    148956.70
  140.89        2966.75           1446       35454.00    155243.10
  140.92        2967.00           1449       35991.00    157606.10
  140.95        2967.25           1452       36069.00    157949.40
  140.98        2967.50           1456       36351.00    159190.40
  141.01        2967.75           1459       36149.00    158301.50
  141.04        2968.00           1462       35928.00    157328.90
  141.07        2968.25           1466       34919.00    152889.30
  141.10        2968.50           1469       33471.00    146520.10
  141.13        2968.75           1472       31955.00    139854.50
  141.16        2969.00           1476       29781.00    130300.40
  141.20        2969.25           1479       28249.00    123571.00
  141.23        2969.50           1482       26574.00    116216.60
  141.26        2969.75           1486       24441.00    106856.00
  141.29        2970.00           1489       22551.00     98566.10
  141.32        2970.25           1492       20969.00     91630.35
  141.35        2970.50           1496       18822.00     82222.19
  141.38        2970.75           1499       17038.00     74408.72
  141.41        2971.00           1502       15251.00     66585.81
  141.44        2971.25           1506       12967.00     56592.51
  141.47        2971.50           1509       11423.00     49840.38
  141.50        2971.75           1513        9295.00     40538.81
  141.54        2972.00           1516        7774.00     33893.65
  141.57        2972.25           1519        6110.00     26626.76
  141.60        2972.50           1523        3935.00     17133.04
  141.63        2972.75           1526        2456.00     10680.41
  141.66        2973.00           1529        1133.00      4910.49
  141.69        2973.25           1533         475.00      2041.54
  141.72        2973.50           1536         357.00      1527.10
  141.75        2973.75           1539         314.00      1339.64
  141.78        2974.00           1543         249.00      1056.27
  141.81        2974.25           1546         203.00       855.73
  141.84        2974.50           1549         147.00       611.61
  141.87        2974.75           1553          93.00       376.20
  141.91        2975.00           1556          73.00       289.02
  141.94        2975.25           1559          60.00       232.35
  141.97        2975.50           1563          44.00       162.60
  142.00        2975.75           1566          46.00       171.32
  142.03        2976.00           1569          47.00       175.68
  142.06        2976.25           1573          49.00       184.40
  142.09        2976.50           1576          42.00       153.88
  142.12        2976.75           1579          49.00       184.40
  142.15        2977.00           1583          47.00       175.68
  142.18        2977.25           1586          43.00       158.24
  142.21        2977.50           1590          47.00       175.68
  142.24        2977.75           1593          41.00       149.52
  142.27        2978.00           1596          44.00       162.60
  142.30        2978.25           1600          55.00       210.55
  142.33        2978.50           1603          39.00       140.80
  142.37        2978.75           1606          42.00       153.88
  142.40        2979.00           1610          51.00       193.11
  142.43        2979.25           1613          44.00       162.60
  142.46        2979.50           1616          48.00       180.04
  142.49        2979.75           1620          46.00       171.32
  142.52        2980.00           1623          44.00       162.60
  142.55        2980.25           1626          45.00       166.96
  142.58        2980.50           1630          50.00       188.75
  142.61        2980.75           1633          48.00       180.04
  142.64        2981.00           1637          50.00       188.75
  142.67        2981.25           1640          48.00       180.04
  142.70        2981.50           1643          44.00       162.60
  142.73        2981.75           1647          39.00       140.80
  142.76        2982.00           1650          53.00       201.83
  142.80        2982.25           1653          50.00       188.75
  142.83        2982.50           1657          48.00       180.04
  142.86        2982.75           1660          38.00       136.44
  142.89        2983.00           1663          45.00       166.96
  142.92        2983.25           1667          47.00       175.68
  142.95        2983.50           1670          43.00       158.24
  142.98        2983.75           1673          48.00       180.04
  143.01        2984.00           1677          45.00       166.96
HS scan finished at 02:23:14
end
************************************************************
  HS Scan of (1) Internal mercury lamp
************************************************************
Integration time is 0.2294 seconds per sample
dh290317Manchester 53.47 2.23 2.804185pr1000
************************************************************
Dead Time -------------------------  3E-08 
Number of Cycles Used -------------  4 
Starting Wavelength (Angstroms) ---  2950 
Final Wavelength (Angstoms) -------  2984 
Wavelength Increment (Angstroms) --  .25 
Filter Wheel #1 Position ---------- (1) Ground quartz diffuser (ND=2.32)
Filter Wheel #2 Position ---------- (1) Neutral Density 0.494



************************************************************
HS scan start time = 19:42:01
Dark Count =  7.1 


Time (GMT)  Wavelength (Ang)  Step Number  Raw Counts  Counts/Second

 1182.39        2950.00           1222          42.00       152.14
 1182.46        2950.25           1226          55.00       208.81
 1182.49        2950.50           1229          45.00       165.21
 1182.52        2950.75           1232          47.00       173.93
 1182.55        2951.00           1236          50.00       187.01
 1182.59        2951.25           1239          40.00       143.42
 1182.62        2951.50           1242          50.00       187.01
 1182.65        2951.75           1246          40.00       143.42
 1182.68        2952.00           1249          45.00       165.21
 1182.71        2952.25           1252          45.00       165.21
 1182.74        2952.50           1256          46.00       169.57
 1182.77        2952.75           1259          42.00       152.14
 1182.80        2953.00           1262          44.00       160.86
 1182.83        2953.25           1266          40.00       143.42
 1182.86        2953.50           1269          43.00       156.50
 1182.89        2953.75           1272          41.00       147.78
 1182.93        2954.00           1276          41.00       147.78
 1182.96        2954.25           1279          43.00       156.50
 1182.99        2954.50           1282          55.00       208.81
 1183.02        2954.75           1286          44.00       160.86
 1183.05        2955.00           1289          45.00       165.21
 1183.08        2955.25           1292          53.00       200.09
 1183.11        2955.50           1296          49.00       182.65
 1183.14        2955.75           1299          50.00       187.01
 1183.17        2956.00           1302          47.00       173.93
 1183.20        2956.25           1306          41.00       147.78
 1183.23        2956.50           1309          46.00       169.57
 1183.26        2956.75           1312          46.00       169.57
 1183.29        2957.00           1316          50.00       187.01
 1183.32        2957.25           1319          50.00       187.01
 1183.35        2957.50           1322          45.00       165.21
 1183.38        2957.75           1326          50.00       187.01
 1183.42        2958.00           1329          47.00       173.93
 1183.45        2958.25           1332          42.00       152.14
 1183.48        2958.50           1336          43.00       156.50
 1183.51        2958.75           1339          47.00       173.93
 1183.54        2959.00           1342          50.00       187.01
 1183.57        2959.25           1346          53.00       200.09
 1183.60        2959.50           1349          58.00       221.88
 1183.63        2959.75           1352          73.00       287.27
 1183.66        2960.00           1356          91.00       365.74
 1183.69        2960.25           1359         138.00       570.63
 1183.72        2960.50           1362         164.00       683.97
 1183.75        2960.75           1366         238.00      1006.57
 1183.79        2961.00           1369         270.00      1146.07
 1183.82        2961.25           1372         316.00      1346.61
 1183.85        2961.50           1376         421.00      1804.37
 1183.88        2961.75           1379         649.00      2798.40
 1183.91        2962.00           1382        1377.00      5972.74
 1183.94        2962.25           1386        3276.00     14255.88
 1183.97        2962.50           1389        4899.00     21338.42
 1184.00        2962.75           1392        6446.00     28092.11
 1184.03        2963.00           1396        8582.00     37421.68
 1184.06        2963.25           1399       10122.00     44151.30
 1184.09        2963.50           1402       11830.00     51618.24
 1184.13        2963.75           1406       14140.00     61722.30
 1184.16        2964.00           1409       15714.00     68610.57
 1184.19        2964.25           1412       17574.00     76754.13
 1184.22        2964.50           1416       19805.00     86527.29
 1184.25        2964.75           1419       21299.00     93075.14
 1184.28        2965.00           1422       23033.00    100678.10
 1184.31        2965.25           1426       25354.00    110860.20
 1184.34        2965.50           1429       27102.00    118532.80
 1184.37        2965.75           1432       28710.00    125594.00
 1184.41        2966.00           1436       30792.00    134741.00
 1184.44        2966.25           1439       32447.00    142015.70
 1184.47        2966.50           1442       33837.00    148128.00
 1184.50        2966.75           1446       35498.00    155435.00
 1184.53        2967.00           1449       35763.00    156601.10
 1184.56        2967.25           1452       35851.00    156988.30
 1184.59        2967.50           1456       35887.00    157146.70
 1184.62        2967.75           1459       35686.00    156262.20
 1184.65        2968.00           1462       35424.00    155109.40
 1184.68        2968.25           1466       34397.00    150591.20
 1184.71        2968.50           1469       32985.00    144381.20
 1184.74        2968.75           1472       31226.00    136648.40
 1184.77        2969.00           1476       29383.00    128550.20
 1184.81        2969.25           1479       27768.00    121457.00
 1184.84        2969.50           1482       26073.00    114015.70
 1184.87        2969.75           1486       23960.00    104744.10
 1184.90        2970.00           1489       22338.00     97630.34
 1184.93        2970.25           1492       20663.00     90287.38
 1184.96        2970.50           1496       18551.00     81033.28
 1184.99        2970.75           1499       16838.00     73531.25
 1185.02        2971.00           1502       15120.00     66010.72
 1185.05        2971.25           1506       12862.00     56131.50
 1185.09        2971.50           1509       11125.00     48535.75
 1185.12        2971.75           1513        9071.00     39558.26
 1185.15        2972.00           1516        7337.00     31983.16
 1185.18        2972.25           1519        5676.00     24730.20
 1185.21        2972.50           1523        3579.00     15577.90
 1185.24        2972.75           1526        2157.00      9374.48
 1185.27        2973.00           1529        1000.00      4328.81
 1185.30        2973.25           1533         450.00      1930.80
 1185.33        2973.50           1536         351.00      1499.20
 1185.36        2973.75           1539         284.00      1207.11
 1185.39        2974.00           1543         231.00       976.05
 1185.42        2974.25           1546         183.00       766.80
 1185.45        2974.50           1549         129.00       531.39
 1185.48        2974.75           1553          86.00       343.94
 1185.52        2975.00           1556          63.00       243.68
 1185.55        2975.25           1559          55.00       208.81
 1185.58        2975.50           1563          49.00       182.65
 1185.61        2975.75           1566          47.00       173.93
 1185.64        2976.00           1569          42.00       152.14
 1185.67        2976.25           1573          45.00       165.21
 1185.70        2976.50           1576          45.00       165.21
 1185.73        2976.75           1579          48.00       178.29
 1185.76        2977.00           1583          50.00       187.01
 1185.79        2977.25           1586          55.00       208.81
 1185.82        2977.50           1590          47.00       173.93
 1185.86        2977.75           1593          47.00       173.93
 1185.89        2978.00           1596          47.00       173.93
 1185.92        2978.25           1600          46.00       169.57
 1185.95        2978.50           1603          50.00       187.01
 1185.98        2978.75           1606          40.00       143.42
 1186.01        2979.00           1610          49.00       182.65
 1186.04        2979.25           1613          41.00       147.78
 1186.07        2979.50           1616          54.00       204.45
 1186.10        2979.75           1620          49.00       182.65
 1186.14        2980.00           1623          42.00       152.14
 1186.17        2980.25           1626          44.00       160.86
 1186.20        2980.50           1630          47.00       173.93
 1186.23        2980.75           1633          63.00       243.68
 1186.26        2981.00           1637          39.00       139.06
 1186.29        2981.25           1640          54.00       204.45
 1186.32        2981.50           1643          45.00       165.21
 1186.35        2981.75           1647          43.00       156.50
 1186.38        2982.00           1650          46.00       169.57
 1186.41        2982.25           1653          52.00       195.73
 1186.45        2982.50           1657          42.00       152.14
 1186.48        2982.75           1660          43.00       156.50
 1186.51        2983.00           1663          41.00       147.78
 1186.54        2983.25           1667          39.00       139.06
 1186.57        2983.50           1670          42.00       152.14
 1186.60        2983.75           1673          40.00       143.42
 1186.63        2984.00           1677          52.00       195.73
HS scan finished at 19:46:51
end
