************************************************************
  HS Scan of (1) Internal mercury lamp
************************************************************
Integration time is 0.2294 seconds per sample
dh210318Manchester 53.47 2.23 2.750537pr1000
************************************************************
Dead Time -------------------------  3E-08 
Number of Cycles Used -------------  4 
Starting Wavelength (Angstroms) ---  2950 
Final Wavelength (Angstoms) -------  2984 
Wavelength Increment (Angstroms) --  .25 
Filter Wheel #1 Position ---------- (1) Ground quartz diffuser (ND=2.32)
Filter Wheel #2 Position ---------- (1) Neutral Density 0.494



************************************************************
HS scan start time = 02:59:17
Dark Count =  7.1 


Time (GMT)  Wavelength (Ang)  Step Number  Raw Counts  Counts/Second

  179.65        2950.00           1222          48.00       178.29
  179.72        2950.25           1226          58.00       221.88
  179.75        2950.50           1229          60.00       230.60
  179.78        2950.75           1232          62.00       239.32
  179.81        2951.00           1236          64.00       248.04
  179.84        2951.25           1239          50.00       187.01
  179.87        2951.50           1242          48.00       178.29
  179.90        2951.75           1246          65.00       252.40
  179.93        2952.00           1249          67.00       261.12
  179.96        2952.25           1252          64.00       248.04
  179.99        2952.50           1256          62.00       239.32
  180.02        2952.75           1259          57.00       217.53
  180.05        2953.00           1262          59.00       226.24
  180.08        2953.25           1266          67.00       261.12
  180.11        2953.50           1269          60.00       230.60
  180.14        2953.75           1272          58.00       221.88
  180.17        2954.00           1276          58.00       221.88
  180.21        2954.25           1279          59.00       226.24
  180.24        2954.50           1282          62.00       239.32
  180.27        2954.75           1286          63.00       243.68
  180.30        2955.00           1289          62.00       239.32
  180.33        2955.25           1292          55.00       208.81
  180.36        2955.50           1296          59.00       226.24
  180.39        2955.75           1299          54.00       204.45
  180.42        2956.00           1302          61.00       234.96
  180.45        2956.25           1306          50.00       187.01
  180.48        2956.50           1309          65.00       252.40
  180.51        2956.75           1312          52.00       195.73
  180.54        2957.00           1316          63.00       243.68
  180.57        2957.25           1319          62.00       239.32
  180.61        2957.50           1322          59.00       226.24
  180.64        2957.75           1326          54.00       204.45
  180.67        2958.00           1329          64.00       248.04
  180.70        2958.25           1332          64.00       248.04
  180.73        2958.50           1336          56.00       213.17
  180.76        2958.75           1339          55.00       208.81
  180.79        2959.00           1342          75.00       295.99
  180.82        2959.25           1346          57.00       217.53
  180.85        2959.50           1349          64.00       248.04
  180.88        2959.75           1352          78.00       309.07
  180.91        2960.00           1356         109.00       444.21
  180.94        2960.25           1359         139.00       574.99
  180.98        2960.50           1362         172.00       718.85
  181.01        2960.75           1366         222.00       936.82
  181.04        2961.00           1369         271.00      1150.43
  181.07        2961.25           1372         294.00      1250.70
  181.10        2961.50           1376         347.00      1481.76
  181.13        2961.75           1379         416.00      1782.57
  181.16        2962.00           1382         615.00      2650.17
  181.19        2962.25           1386        1793.00      7786.91
  181.22        2962.50           1389        3224.00     14029.01
  181.25        2962.75           1392        4536.00     19754.07
  181.28        2963.00           1396        6407.00     27921.81
  181.31        2963.25           1399        7733.00     33712.81
  181.35        2963.50           1402        9126.00     39798.59
  181.38        2963.75           1406       11043.00     48177.26
  181.41        2964.00           1409       12831.00     55995.91
  181.44        2964.25           1412       14152.00     61774.81
  181.47        2964.50           1416       16145.00     70497.25
  181.50        2964.75           1419       17773.00     77625.65
  181.53        2965.00           1422       19131.00     83574.15
  181.56        2965.25           1426       21304.00     93097.05
  181.59        2965.50           1429       22851.00     99879.91
  181.62        2965.75           1432       24227.00    105915.40
  181.66        2966.00           1436       26063.00    113971.90
  181.69        2966.25           1439       27477.00    120179.30
  181.72        2966.50           1442       28500.00    124671.60
  181.75        2966.75           1446       30589.00    133849.00
  181.78        2967.00           1449       31411.00    137461.50
  181.81        2967.25           1452       31759.00    138991.20
  181.84        2967.50           1456       31814.00    139232.90
  181.87        2967.75           1459       31868.00    139470.30
  181.90        2968.00           1462       31934.00    139760.50
  181.93        2968.25           1466       31628.00    138415.40
  181.96        2968.50           1469       30638.00    134064.30
  182.00        2968.75           1472       29213.00    127803.40
  182.03        2969.00           1476       27258.00    119217.70
  182.06        2969.25           1479       26042.00    113879.70
  182.09        2969.50           1482       24614.00    107613.20
  182.12        2969.75           1486       22556.00     98586.28
  182.15        2970.00           1489       21112.00     92255.41
  182.18        2970.25           1492       19804.00     86522.90
  182.21        2970.50           1496       17825.00     77853.38
  182.25        2970.75           1499       16353.00     71407.83
  182.28        2971.00           1502       14804.00     64627.80
  182.31        2971.25           1506       12841.00     56039.65
  182.34        2971.50           1509       11224.00     48968.58
  182.37        2971.75           1513        9335.00     40711.86
  182.40        2972.00           1516        8007.00     34909.69
  182.43        2972.25           1519        6373.00     27773.35
  182.46        2972.50           1523        4488.00     19544.59
  182.49        2972.75           1526        3209.00     13963.57
  182.53        2973.00           1529        1740.00      7555.77
  182.56        2973.25           1533         568.00      2445.25
  182.59        2973.50           1536         338.00      1442.52
  182.62        2973.75           1539         266.00      1128.63
  182.65        2974.00           1543         222.00       936.82
  182.68        2974.25           1546         161.00       670.89
  182.71        2974.50           1549         123.00       505.24
  182.74        2974.75           1553          82.00       326.51
  182.77        2975.00           1556          74.00       291.63
  182.80        2975.25           1559          66.00       256.76
  182.83        2975.50           1563          59.00       226.24
  182.86        2975.75           1566          60.00       230.60
  182.89        2976.00           1569          55.00       208.81
  182.92        2976.25           1573          64.00       248.04
  182.95        2976.50           1576          50.00       187.01
  182.98        2976.75           1579          63.00       243.68
  183.02        2977.00           1583          51.00       191.37
  183.05        2977.25           1586          47.00       173.93
  183.08        2977.50           1590          56.00       213.17
  183.11        2977.75           1593          59.00       226.24
  183.14        2978.00           1596          52.00       195.73
  183.17        2978.25           1600          55.00       208.81
  183.20        2978.50           1603          58.00       221.88
  183.23        2978.75           1606          53.00       200.09
  183.26        2979.00           1610          52.00       195.73
  183.29        2979.25           1613          44.00       160.86
  183.32        2979.50           1616          63.00       243.68
  183.35        2979.75           1620          48.00       178.29
  183.39        2980.00           1623          59.00       226.24
  183.42        2980.25           1626          56.00       213.17
  183.45        2980.50           1630          46.00       169.57
  183.48        2980.75           1633          57.00       217.53
  183.51        2981.00           1637          59.00       226.24
  183.54        2981.25           1640          58.00       221.88
  183.57        2981.50           1643          47.00       173.93
  183.60        2981.75           1647          50.00       187.01
  183.63        2982.00           1650          54.00       204.45
  183.66        2982.25           1653          52.00       195.73
  183.69        2982.50           1657          61.00       234.96
  183.73        2982.75           1660          54.00       204.45
  183.76        2983.00           1663          56.00       213.17
  183.79        2983.25           1667          45.00       165.21
  183.82        2983.50           1670          58.00       221.88
  183.85        2983.75           1673          55.00       208.81
  183.88        2984.00           1677          56.00       213.17
HS scan finished at 03:04:06
end
************************************************************
  HS Scan of (1) Internal mercury lamp
************************************************************
Integration time is 0.2294 seconds per sample
dh210318Manchester 53.47 2.23 2.804185pr1000
************************************************************
Dead Time -------------------------  3E-08 
Number of Cycles Used -------------  4 
Starting Wavelength (Angstroms) ---  2950 
Final Wavelength (Angstoms) -------  2984 
Wavelength Increment (Angstroms) --  .25 
Filter Wheel #1 Position ---------- (1) Ground quartz diffuser (ND=2.32)
Filter Wheel #2 Position ---------- (1) Neutral Density 0.494



************************************************************
HS scan start time = 19:12:02
Dark Count =  7.1 


Time (GMT)  Wavelength (Ang)  Step Number  Raw Counts  Counts/Second

 1152.40        2950.00           1222          62.00       239.32
 1152.47        2950.25           1226          61.00       234.96
 1152.50        2950.50           1229          60.00       230.60
 1152.53        2950.75           1232          66.00       256.76
 1152.56        2951.00           1236          60.00       230.60
 1152.59        2951.25           1239          50.00       187.01
 1152.62        2951.50           1242          58.00       221.88
 1152.65        2951.75           1246          55.00       208.81
 1152.68        2952.00           1249          59.00       226.24
 1152.71        2952.25           1252          65.00       252.40
 1152.74        2952.50           1256          63.00       243.68
 1152.77        2952.75           1259          58.00       221.88
 1152.80        2953.00           1262          62.00       239.32
 1152.83        2953.25           1266          60.00       230.60
 1152.87        2953.50           1269          50.00       187.01
 1152.90        2953.75           1272          67.00       261.12
 1152.93        2954.00           1276          65.00       252.40
 1152.96        2954.25           1279          51.00       191.37
 1152.99        2954.50           1282          62.00       239.32
 1153.02        2954.75           1286          60.00       230.60
 1153.05        2955.00           1289          56.00       213.17
 1153.08        2955.25           1292          57.00       217.53
 1153.11        2955.50           1296          55.00       208.81
 1153.14        2955.75           1299          54.00       204.45
 1153.17        2956.00           1302          61.00       234.96
 1153.21        2956.25           1306          53.00       200.09
 1153.24        2956.50           1309          61.00       234.96
 1153.27        2956.75           1312          62.00       239.32
 1153.30        2957.00           1316          57.00       217.53
 1153.33        2957.25           1319          60.00       230.60
 1153.36        2957.50           1322          62.00       239.32
 1153.39        2957.75           1326          66.00       256.76
 1153.42        2958.00           1329          57.00       217.53
 1153.45        2958.25           1332          56.00       213.17
 1153.48        2958.50           1336          59.00       226.24
 1153.51        2958.75           1339          56.00       213.17
 1153.54        2959.00           1342          59.00       226.24
 1153.57        2959.25           1346          63.00       243.68
 1153.61        2959.50           1349          68.00       265.48
 1153.64        2959.75           1352          89.00       357.02
 1153.67        2960.00           1356         112.00       457.29
 1153.70        2960.25           1359         135.00       557.55
 1153.73        2960.50           1362         169.00       705.77
 1153.76        2960.75           1366         223.00       941.18
 1153.79        2961.00           1369         267.00      1132.99
 1153.82        2961.25           1372         307.00      1307.37
 1153.85        2961.50           1376         361.00      1542.79
 1153.88        2961.75           1379         454.00      1948.24
 1153.92        2962.00           1382         906.00      3918.94
 1153.95        2962.25           1386        2404.00     10451.84
 1153.98        2962.50           1389        3833.00     16686.21
 1154.01        2962.75           1392        5191.00     22612.98
 1154.04        2963.00           1396        7114.00     31009.22
 1154.07        2963.25           1399        8584.00     37430.42
 1154.10        2963.50           1402        9972.00     43495.69
 1154.13        2963.75           1406       12056.00     52606.50
 1154.16        2964.00           1409       13482.00     58843.55
 1154.19        2964.25           1412       15140.00     66098.25
 1154.23        2964.50           1416       17087.00     74621.53
 1154.26        2964.75           1419       18395.00     80349.95
 1154.29        2965.00           1422       20113.00     87876.97
 1154.32        2965.25           1426       22081.00     96503.49
 1154.35        2965.50           1429       23530.00    102857.90
 1154.38        2965.75           1432       24898.00    108859.30
 1154.41        2966.00           1436       26824.00    117312.30
 1154.44        2966.25           1439       28204.00    123371.70
 1154.47        2966.50           1442       29598.00    129494.70
 1154.51        2966.75           1446       31234.00    136683.60
 1154.54        2967.00           1449       31486.00    137791.20
 1154.57        2967.25           1452       31720.00    138819.70
 1154.60        2967.50           1456       31784.00    139101.10
 1154.63        2967.75           1459       31729.00    138859.30
 1154.66        2968.00           1462       31636.00    138450.50
 1154.69        2968.25           1466       30915.00    135281.60
 1154.72        2968.50           1469       29655.00    129745.10
 1154.75        2968.75           1472       28370.00    124100.70
 1154.79        2969.00           1476       26527.00    116008.50
 1154.82        2969.25           1479       24955.00    109109.40
 1154.85        2969.50           1482       23501.00    102730.70
 1154.88        2969.75           1486       21674.00     94719.09
 1154.91        2970.00           1489       20335.00     88849.86
 1154.94        2970.25           1492       18940.00     82737.38
 1154.97        2970.50           1496       16970.00     74109.22
 1155.00        2970.75           1499       15453.00     67468.16
 1155.03        2971.00           1502       13958.00     60926.00
 1155.06        2971.25           1506       11950.00     52142.97
 1155.10        2971.50           1509       10533.00     45947.78
 1155.13        2971.75           1513        8569.00     37364.88
 1155.16        2972.00           1516        7043.00     30699.14
 1155.19        2972.25           1519        5725.00     24944.12
 1155.22        2972.50           1523        3752.00     16332.76
 1155.25        2972.75           1526        2487.00     10813.88
 1155.28        2973.00           1529        1283.00      5562.83
 1155.31        2973.25           1533         432.00      1852.33
 1155.34        2973.50           1536         305.00      1298.66
 1155.38        2973.75           1539         253.00      1071.96
 1155.41        2974.00           1543         218.00       919.38
 1155.44        2974.25           1546         166.00       692.69
 1155.47        2974.50           1549         109.00       444.21
 1155.50        2974.75           1553          88.00       352.66
 1155.53        2975.00           1556          74.00       291.63
 1155.56        2975.25           1559          54.00       204.45
 1155.59        2975.50           1563          54.00       204.45
 1155.62        2975.75           1566          60.00       230.60
 1155.65        2976.00           1569          58.00       221.88
 1155.68        2976.25           1573          53.00       200.09
 1155.71        2976.50           1576          69.00       269.84
 1155.74        2976.75           1579          57.00       217.53
 1155.78        2977.00           1583          55.00       208.81
 1155.81        2977.25           1586          59.00       226.24
 1155.84        2977.50           1590          63.00       243.68
 1155.87        2977.75           1593          56.00       213.17
 1155.90        2978.00           1596          52.00       195.73
 1155.93        2978.25           1600          53.00       200.09
 1155.96        2978.50           1603          56.00       213.17
 1155.99        2978.75           1606          50.00       187.01
 1156.02        2979.00           1610          60.00       230.60
 1156.05        2979.25           1613          60.00       230.60
 1156.08        2979.50           1616          57.00       217.53
 1156.11        2979.75           1620          55.00       208.81
 1156.14        2980.00           1623          56.00       213.17
 1156.18        2980.25           1626          59.00       226.24
 1156.21        2980.50           1630          59.00       226.24
 1156.24        2980.75           1633          61.00       234.96
 1156.27        2981.00           1637          49.00       182.65
 1156.30        2981.25           1640          53.00       200.09
 1156.33        2981.50           1643          58.00       221.88
 1156.36        2981.75           1647          54.00       204.45
 1156.39        2982.00           1650          52.00       195.73
 1156.42        2982.25           1653          50.00       187.01
 1156.45        2982.50           1657          53.00       200.09
 1156.48        2982.75           1660          45.00       165.21
 1156.51        2983.00           1663          53.00       200.09
 1156.54        2983.25           1667          64.00       248.04
 1156.57        2983.50           1670          50.00       187.01
 1156.61        2983.75           1673          51.00       191.37
 1156.64        2984.00           1677          50.00       187.01
HS scan finished at 19:16:51
end
