************************************************************
  HS Scan of (1) Internal mercury lamp
************************************************************
Integration time is 0.2294 seconds per sample
dh210317Manchester 53.47 2.23 2.750537pr1000
************************************************************
Dead Time -------------------------  3E-08 
Number of Cycles Used -------------  4 
Starting Wavelength (Angstroms) ---  2950 
Final Wavelength (Angstoms) -------  2984 
Wavelength Increment (Angstroms) --  .25 
Filter Wheel #1 Position ---------- (1) Ground quartz diffuser (ND=2.32)
Filter Wheel #2 Position ---------- (1) Neutral Density 0.494



************************************************************
HS scan start time = 03:03:08
Dark Count =  8 


Time (GMT)  Wavelength (Ang)  Step Number  Raw Counts  Counts/Second

  183.51        2950.00           1222          50.00       183.09
  183.58        2950.25           1226          50.00       183.09
  183.61        2950.50           1229          49.00       178.73
  183.64        2950.75           1232          55.00       204.88
  183.67        2951.00           1236          46.00       165.65
  183.70        2951.25           1239          45.00       161.29
  183.73        2951.50           1242          50.00       183.09
  183.76        2951.75           1246          48.00       174.37
  183.79        2952.00           1249          45.00       161.29
  183.82        2952.25           1252          45.00       161.29
  183.85        2952.50           1256          43.00       152.57
  183.88        2952.75           1259          42.00       148.21
  183.91        2953.00           1262          48.00       174.37
  183.94        2953.25           1266          48.00       174.37
  183.97        2953.50           1269          51.00       187.45
  184.01        2953.75           1272          47.00       170.01
  184.04        2954.00           1276          52.00       191.81
  184.07        2954.25           1279          51.00       187.45
  184.10        2954.50           1282          49.00       178.73
  184.13        2954.75           1286          48.00       174.37
  184.16        2955.00           1289          50.00       183.09
  184.19        2955.25           1292          48.00       174.37
  184.22        2955.50           1296          46.00       165.65
  184.25        2955.75           1299          48.00       174.37
  184.28        2956.00           1302          46.00       165.65
  184.31        2956.25           1306          44.00       156.93
  184.35        2956.50           1309          50.00       183.09
  184.38        2956.75           1312          52.00       191.81
  184.41        2957.00           1316          55.00       204.88
  184.44        2957.25           1319          51.00       187.45
  184.47        2957.50           1322          45.00       161.29
  184.50        2957.75           1326          46.00       165.65
  184.53        2958.00           1329          47.00       170.01
  184.56        2958.25           1332          56.00       209.24
  184.59        2958.50           1336          50.00       183.09
  184.62        2958.75           1339          53.00       196.17
  184.65        2959.00           1342          55.00       204.88
  184.68        2959.25           1346          47.00       170.01
  184.72        2959.50           1349          49.00       178.73
  184.75        2959.75           1352          60.00       226.68
  184.78        2960.00           1356          86.00       340.02
  184.81        2960.25           1359         118.00       479.52
  184.84        2960.50           1362         153.00       632.10
  184.87        2960.75           1366         208.00       871.86
  184.90        2961.00           1369         263.00      1111.63
  184.93        2961.25           1372         284.00      1203.18
  184.96        2961.50           1376         381.00      1626.06
  184.99        2961.75           1379         590.00      2537.25
  185.03        2962.00           1382        1168.00      5057.44
  185.06        2962.25           1386        2875.00     12502.51
  185.09        2962.50           1389        4483.00     19518.84
  185.12        2962.75           1392        6129.00     26704.04
  185.15        2963.00           1396        8109.00     35351.34
  185.18        2963.25           1399        9926.00     43290.72
  185.21        2963.50           1402       11853.00     51714.87
  185.24        2963.75           1406       14064.00     61385.83
  185.27        2964.00           1409       15705.00     68567.23
  185.30        2964.25           1412       17503.00     76439.27
  185.34        2964.50           1416       19961.00     87206.93
  185.37        2964.75           1419       21352.00     93303.52
  185.40        2965.00           1422       23209.00    101446.00
  185.43        2965.25           1426       25576.00    111830.50
  185.46        2965.50           1429       27026.00    118195.20
  185.49        2965.75           1432       28755.00    125787.60
  185.52        2966.00           1436       30934.00    135361.10
  185.55        2966.25           1439       32810.00    143607.80
  185.58        2966.50           1442       34360.00    150424.50
  185.62        2966.75           1446       35882.00    157120.70
  185.65        2967.00           1449       36212.00    158573.00
  185.68        2967.25           1452       36183.00    158445.40
  185.71        2967.50           1456       36324.00    159065.90
  185.74        2967.75           1459       36307.00    158991.10
  185.77        2968.00           1462       35995.00    157618.00
  185.80        2968.25           1466       35076.00    153574.30
  185.83        2968.50           1469       33704.00    147539.10
  185.86        2968.75           1472       32312.00    141418.20
  185.89        2969.00           1476       30101.00    131700.70
  185.93        2969.25           1479       28328.00    123912.30
  185.96        2969.50           1482       26852.00    117431.30
  185.99        2969.75           1486       24570.00    107416.20
  186.02        2970.00           1489       22714.00     99275.19
  186.05        2970.25           1492       21155.00     92439.97
  186.08        2970.50           1496       18980.00     82908.66
  186.11        2970.75           1499       17341.00     75729.84
  186.14        2971.00           1502       15659.00     68365.88
  186.17        2971.25           1506       13516.00     58988.35
  186.21        2971.50           1509       11779.00     51391.30
  186.24        2971.75           1513        9640.00     42040.79
  186.27        2972.00           1516        8034.00     35023.70
  186.30        2972.25           1519        6238.00     27179.96
  186.33        2972.50           1523        4065.00     17694.66
  186.36        2972.75           1526        2597.00     11289.79
  186.39        2973.00           1529        1273.00      5515.30
  186.42        2973.25           1533         563.00      2419.53
  186.45        2973.50           1536         375.00      1599.90
  186.48        2973.75           1539         325.00      1381.92
  186.51        2974.00           1543         268.00      1133.43
  186.54        2974.25           1546         238.00      1002.65
  186.57        2974.50           1549         170.00       706.21
  186.61        2974.75           1553         121.00       492.60
  186.64        2975.00           1556          97.00       387.97
  186.67        2975.25           1559          62.00       235.40
  186.70        2975.50           1563          59.00       222.32
  186.73        2975.75           1566          60.00       226.68
  186.76        2976.00           1569          49.00       178.73
  186.79        2976.25           1573          57.00       213.60
  186.82        2976.50           1576          47.00       170.01
  186.85        2976.75           1579          45.00       161.29
  186.88        2977.00           1583          49.00       178.73
  186.92        2977.25           1586          49.00       178.73
  186.95        2977.50           1590          55.00       204.88
  186.98        2977.75           1593          44.00       156.93
  187.01        2978.00           1596          48.00       174.37
  187.04        2978.25           1600          44.00       156.93
  187.07        2978.50           1603          41.00       143.85
  187.10        2978.75           1606          44.00       156.93
  187.13        2979.00           1610          39.00       135.14
  187.16        2979.25           1613          42.00       148.21
  187.19        2979.50           1616          48.00       174.37
  187.22        2979.75           1620          44.00       156.93
  187.26        2980.00           1623          45.00       161.29
  187.29        2980.25           1626          42.00       148.21
  187.32        2980.50           1630          42.00       148.21
  187.35        2980.75           1633          47.00       170.01
  187.38        2981.00           1637          44.00       156.93
  187.41        2981.25           1640          50.00       183.09
  187.44        2981.50           1643          46.00       165.65
  187.47        2981.75           1647          54.00       200.52
  187.50        2982.00           1650          46.00       165.65
  187.53        2982.25           1653          48.00       174.37
  187.56        2982.50           1657          47.00       170.01
  187.59        2982.75           1660          48.00       174.37
  187.63        2983.00           1663          47.00       170.01
  187.66        2983.25           1667          48.00       174.37
  187.69        2983.50           1670          43.00       152.57
  187.72        2983.75           1673          44.00       156.93
  187.75        2984.00           1677          42.00       148.21
HS scan finished at 03:07:58
end
************************************************************
  HS Scan of (1) Internal mercury lamp
************************************************************
Integration time is 0.2294 seconds per sample
dh210317Manchester 53.47 2.23 2.750537pr1000
************************************************************
Dead Time -------------------------  3E-08 
Number of Cycles Used -------------  4 
Starting Wavelength (Angstroms) ---  2950 
Final Wavelength (Angstoms) -------  2984 
Wavelength Increment (Angstroms) --  .25 
Filter Wheel #1 Position ---------- (1) Ground quartz diffuser (ND=2.32)
Filter Wheel #2 Position ---------- (1) Neutral Density 0.494



************************************************************
HS scan start time = 19:12:03
Dark Count =  7 


Time (GMT)  Wavelength (Ang)  Step Number  Raw Counts  Counts/Second

 1152.42        2950.00           1222          48.00       178.73
 1152.49        2950.25           1226          47.00       174.37
 1152.52        2950.50           1229          45.00       165.65
 1152.55        2950.75           1232          49.00       183.09
 1152.58        2951.00           1236          41.00       148.21
 1152.61        2951.25           1239          47.00       174.37
 1152.65        2951.50           1242          45.00       165.65
 1152.68        2951.75           1246          53.00       200.52
 1152.71        2952.00           1249          45.00       165.65
 1152.74        2952.25           1252          50.00       187.45
 1152.77        2952.50           1256          50.00       187.45
 1152.80        2952.75           1259          54.00       204.88
 1152.83        2953.00           1262          49.00       183.09
 1152.86        2953.25           1266          38.00       135.14
 1152.89        2953.50           1269          61.00       235.40
 1152.92        2953.75           1272          46.00       170.01
 1152.96        2954.00           1276          40.00       143.85
 1152.99        2954.25           1279          45.00       165.65
 1153.02        2954.50           1282          47.00       174.37
 1153.05        2954.75           1286          51.00       191.81
 1153.08        2955.00           1289          46.00       170.01
 1153.11        2955.25           1292          53.00       200.52
 1153.14        2955.50           1296          41.00       148.21
 1153.17        2955.75           1299          46.00       170.01
 1153.20        2956.00           1302          50.00       187.45
 1153.23        2956.25           1306          51.00       191.81
 1153.27        2956.50           1309          43.00       156.93
 1153.30        2956.75           1312          46.00       170.01
 1153.33        2957.00           1316          45.00       165.65
 1153.36        2957.25           1319          50.00       187.45
 1153.39        2957.50           1322          41.00       148.21
 1153.42        2957.75           1326          47.00       174.37
 1153.45        2958.00           1329          47.00       174.37
 1153.48        2958.25           1332          45.00       165.65
 1153.51        2958.50           1336          45.00       165.65
 1153.54        2958.75           1339          43.00       156.93
 1153.57        2959.00           1342          48.00       178.73
 1153.60        2959.25           1346          45.00       165.65
 1153.64        2959.50           1349          54.00       204.88
 1153.67        2959.75           1352          60.00       231.04
 1153.70        2960.00           1356          83.00       331.30
 1153.73        2960.25           1359         120.00       492.60
 1153.76        2960.50           1362         146.00       605.94
 1153.79        2960.75           1366         220.00       928.54
 1153.82        2961.00           1369         250.00      1059.32
 1153.85        2961.25           1372         303.00      1290.37
 1153.88        2961.50           1376         383.00      1639.14
 1153.91        2961.75           1379         556.00      2393.37
 1153.94        2962.00           1382        1012.00      4381.57
 1153.97        2962.25           1386        2626.00     11420.65
 1154.01        2962.50           1389        4197.00     18275.06
 1154.04        2962.75           1392        5931.00     25843.92
 1154.07        2963.00           1396        8092.00     35281.44
 1154.10        2963.25           1399        9695.00     42285.52
 1154.13        2963.50           1402       11354.00     49537.39
 1154.16        2963.75           1406       13594.00     59333.94
 1154.19        2964.00           1409       15282.00     66720.16
 1154.22        2964.25           1412       17001.00     74245.40
 1154.26        2964.50           1416       19223.00     83977.65
 1154.29        2964.75           1419       20871.00     91199.49
 1154.32        2965.00           1422       22582.00     98700.72
 1154.35        2965.25           1426       24734.00    108140.20
 1154.38        2965.50           1429       26387.00    115394.40
 1154.41        2965.75           1432       28097.00    122902.20
 1154.44        2966.00           1436       30400.00    133018.90
 1154.47        2966.25           1439       32063.00    140328.00
 1154.50        2966.50           1442       33507.00    146677.20
 1154.53        2966.75           1446       35068.00    153543.50
 1154.57        2967.00           1449       35683.00    156249.50
 1154.60        2967.25           1452       35688.00    156271.50
 1154.63        2967.50           1456       35904.00    157222.00
 1154.66        2967.75           1459       35857.00    157015.10
 1154.69        2968.00           1462       35753.00    156557.50
 1154.72        2968.25           1466       34922.00    152901.20
 1154.75        2968.50           1469       33538.00    146813.50
 1154.78        2968.75           1472       31956.00    139857.60
 1154.81        2969.00           1476       29984.00    131191.00
 1154.84        2969.25           1479       28355.00    124035.20
 1154.88        2969.50           1482       26494.00    115864.10
 1154.91        2969.75           1486       24553.00    107346.00
 1154.94        2970.00           1489       22901.00    100099.60
 1154.97        2970.25           1492       21202.00     92650.38
 1155.00        2970.50           1496       19177.00     83776.11
 1155.03        2970.75           1499       17622.00     76964.78
 1155.06        2971.00           1502       15947.00     69630.93
 1155.09        2971.25           1506       13609.00     59399.57
 1155.12        2971.50           1509       11879.00     51832.94
 1155.15        2971.75           1513        9578.00     41774.20
 1155.18        2972.00           1516        7993.00     34848.97
 1155.22        2972.25           1519        6420.00     27979.01
 1155.25        2972.50           1523        4333.00     18868.57
 1155.28        2972.75           1526        2832.00     12319.29
 1155.31        2973.00           1529        1484.00      6439.78
 1155.34        2973.25           1533         560.00      2410.81
 1155.37        2973.50           1536         367.00      1569.39
 1155.40        2973.75           1539         309.00      1316.53
 1155.43        2974.00           1543         251.00      1063.68
 1155.46        2974.25           1546         201.00       845.71
 1155.49        2974.50           1549         142.00       588.50
 1155.52        2974.75           1553         101.00       409.77
 1155.56        2975.00           1556          75.00       296.43
 1155.59        2975.25           1559          63.00       244.12
 1155.62        2975.50           1563          51.00       191.81
 1155.65        2975.75           1566          50.00       187.45
 1155.68        2976.00           1569          50.00       187.45
 1155.71        2976.25           1573          57.00       217.96
 1155.74        2976.50           1576          44.00       161.29
 1155.77        2976.75           1579          42.00       152.57
 1155.80        2977.00           1583          47.00       174.37
 1155.83        2977.25           1586          46.00       170.01
 1155.86        2977.50           1590          50.00       187.45
 1155.90        2977.75           1593          49.00       183.09
 1155.93        2978.00           1596          46.00       170.01
 1155.96        2978.25           1600          53.00       200.52
 1155.99        2978.50           1603          47.00       174.37
 1156.02        2978.75           1606          41.00       148.21
 1156.05        2979.00           1610          45.00       165.65
 1156.08        2979.25           1613          41.00       148.21
 1156.11        2979.50           1616          48.00       178.73
 1156.14        2979.75           1620          39.00       139.49
 1156.17        2980.00           1623          48.00       178.73
 1156.20        2980.25           1626          46.00       170.01
 1156.24        2980.50           1630          53.00       200.52
 1156.27        2980.75           1633          44.00       161.29
 1156.30        2981.00           1637          44.00       161.29
 1156.33        2981.25           1640          43.00       156.93
 1156.36        2981.50           1643          50.00       187.45
 1156.39        2981.75           1647          42.00       152.57
 1156.42        2982.00           1650          47.00       174.37
 1156.45        2982.25           1653          52.00       196.17
 1156.48        2982.50           1657          43.00       156.93
 1156.52        2982.75           1660          46.00       170.01
 1156.55        2983.00           1663          42.00       152.57
 1156.58        2983.25           1667          42.00       152.57
 1156.61        2983.50           1670          44.00       161.29
 1156.64        2983.75           1673          52.00       196.17
 1156.67        2984.00           1677          48.00       178.73
HS scan finished at 19:16:53
end
