************************************************************
  HS Scan of (1) Internal mercury lamp
************************************************************
Integration time is 0.2294 seconds per sample
dh250318Manchester 53.47 2.23 2.804185pr1000
************************************************************
Dead Time -------------------------  3E-08 
Number of Cycles Used -------------  4 
Starting Wavelength (Angstroms) ---  2950 
Final Wavelength (Angstoms) -------  2984 
Wavelength Increment (Angstroms) --  .25 
Filter Wheel #1 Position ---------- (1) Ground quartz diffuser (ND=2.32)
Filter Wheel #2 Position ---------- (1) Neutral Density 0.494



************************************************************
HS scan start time = 02:41:05
Dark Count =  5.6 


Time (GMT)  Wavelength (Ang)  Step Number  Raw Counts  Counts/Second

  161.46        2950.00           1222          58.00       228.42
  161.52        2950.25           1226          61.00       241.50
  161.56        2950.50           1229          61.00       241.50
  161.59        2950.75           1232          55.00       215.35
  161.62        2951.00           1236          59.00       232.78
  161.65        2951.25           1239          56.00       219.71
  161.68        2951.50           1242          59.00       232.78
  161.71        2951.75           1246          61.00       241.50
  161.74        2952.00           1249          65.00       258.94
  161.77        2952.25           1252          60.00       237.14
  161.80        2952.50           1256          59.00       232.78
  161.83        2952.75           1259          55.00       215.35
  161.86        2953.00           1262          63.00       250.22
  161.90        2953.25           1266          62.00       245.86
  161.93        2953.50           1269          58.00       228.42
  161.96        2953.75           1272          54.00       210.99
  161.99        2954.00           1276          53.00       206.63
  162.02        2954.25           1279          59.00       232.78
  162.05        2954.50           1282          66.00       263.30
  162.08        2954.75           1286          60.00       237.14
  162.11        2955.00           1289          63.00       250.22
  162.14        2955.25           1292          59.00       232.78
  162.17        2955.50           1296          53.00       206.63
  162.20        2955.75           1299          69.00       276.38
  162.24        2956.00           1302          50.00       193.55
  162.27        2956.25           1306          56.00       219.71
  162.30        2956.50           1309          55.00       215.35
  162.33        2956.75           1312          60.00       237.14
  162.36        2957.00           1316          55.00       215.35
  162.39        2957.25           1319          57.00       224.06
  162.42        2957.50           1322          69.00       276.38
  162.45        2957.75           1326          54.00       210.99
  162.48        2958.00           1329          60.00       237.14
  162.51        2958.25           1332          60.00       237.14
  162.54        2958.50           1336          54.00       210.99
  162.58        2958.75           1339          63.00       250.22
  162.61        2959.00           1342          56.00       219.71
  162.64        2959.25           1346          60.00       237.14
  162.67        2959.50           1349          67.00       267.66
  162.70        2959.75           1352          76.00       306.89
  162.73        2960.00           1356          96.00       394.08
  162.76        2960.25           1359         125.00       520.50
  162.79        2960.50           1362         156.00       655.64
  162.82        2960.75           1366         196.00       830.01
  162.85        2961.00           1369         235.00      1000.03
  162.88        2961.25           1372         278.00      1187.49
  162.91        2961.50           1376         355.00      1523.17
  162.95        2961.75           1379         410.00      1762.95
  162.98        2962.00           1382         608.00      2626.19
  163.01        2962.25           1386        1654.00      7187.25
  163.04        2962.50           1389        2910.00     12665.67
  163.07        2962.75           1392        4369.00     19031.79
  163.10        2963.00           1396        6246.00     27225.37
  163.13        2963.25           1399        7784.00     33942.13
  163.16        2963.50           1402        9310.00     40609.17
  163.19        2963.75           1406       11255.00     49110.67
  163.22        2964.00           1409       12852.00     56094.32
  163.25        2964.25           1412       14312.00     62481.45
  163.28        2964.50           1416       16675.00     72824.15
  163.31        2964.75           1419       18009.00     78665.82
  163.35        2965.00           1422       19492.00     85162.38
  163.38        2965.25           1426       21464.00     93805.02
  163.41        2965.50           1429       22900.00    100101.40
  163.44        2965.75           1432       24266.00    106093.00
  163.47        2966.00           1436       26234.00    114729.00
  163.50        2966.25           1439       27752.00    121393.30
  163.53        2966.50           1442       29239.00    127924.20
  163.56        2966.75           1446       30999.00    135657.40
  163.59        2967.00           1449       31899.00    139613.20
  163.62        2967.25           1452       32073.00    140378.10
  163.66        2967.50           1456       32021.00    140149.50
  163.69        2967.75           1459       32301.00    141380.40
  163.72        2968.00           1462       32053.00    140290.20
  163.75        2968.25           1466       31847.00    139384.60
  163.78        2968.50           1469       30845.00    134980.50
  163.81        2968.75           1472       29484.00    129000.50
  163.84        2969.00           1476       27658.00    120980.60
  163.87        2969.25           1479       26153.00    114373.50
  163.90        2969.50           1482       24729.00    108124.40
  163.94        2969.75           1486       22478.00     98250.81
  163.97        2970.00           1489       21214.00     92709.10
  164.00        2970.25           1492       19783.00     86437.46
  164.03        2970.50           1496       17792.00     77715.43
  164.06        2970.75           1499       16385.00     71554.49
  164.09        2971.00           1502       14953.00     65286.43
  164.12        2971.25           1506       13095.00     57157.21
  164.15        2971.50           1509       11532.00     50321.78
  164.18        2971.75           1513        9606.00     41902.69
  164.21        2972.00           1516        8049.00     35099.72
  164.24        2972.25           1519        6551.00     28557.15
  164.28        2972.50           1523        4690.00     20432.75
  164.31        2972.75           1526        3284.00     14297.33
  164.34        2973.00           1529        1937.00      8421.48
  164.37        2973.25           1533         677.00      2927.02
  164.40        2973.50           1536         371.00      1592.93
  164.43        2973.75           1539         315.00      1348.79
  164.46        2974.00           1543         260.00      1109.02
  164.49        2974.25           1546         199.00       843.09
  164.52        2974.50           1549         145.00       607.68
  164.55        2974.75           1553          96.00       394.08
  164.58        2975.00           1556          75.00       302.53
  164.61        2975.25           1559          65.00       258.94
  164.65        2975.50           1563          66.00       263.30
  164.68        2975.75           1566          56.00       219.71
  164.71        2976.00           1569          56.00       219.71
  164.74        2976.25           1573          57.00       224.06
  164.77        2976.50           1576          60.00       237.14
  164.80        2976.75           1579          54.00       210.99
  164.83        2977.00           1583          55.00       215.35
  164.86        2977.25           1586          52.00       202.27
  164.89        2977.50           1590          54.00       210.99
  164.92        2977.75           1593          58.00       228.42
  164.95        2978.00           1596          54.00       210.99
  164.98        2978.25           1600          54.00       210.99
  165.01        2978.50           1603          60.00       237.14
  165.05        2978.75           1606          57.00       224.06
  165.08        2979.00           1610          57.00       224.06
  165.11        2979.25           1613          60.00       237.14
  165.14        2979.50           1616          54.00       210.99
  165.17        2979.75           1620          50.00       193.55
  165.20        2980.00           1623          53.00       206.63
  165.23        2980.25           1626          48.00       184.83
  165.26        2980.50           1630          51.00       197.91
  165.29        2980.75           1633          54.00       210.99
  165.32        2981.00           1637          60.00       237.14
  165.35        2981.25           1640          49.00       189.19
  165.38        2981.50           1643          49.00       189.19
  165.41        2981.75           1647          50.00       193.55
  165.45        2982.00           1650          54.00       210.99
  165.48        2982.25           1653          54.00       210.99
  165.51        2982.50           1657          58.00       228.42
  165.54        2982.75           1660          56.00       219.71
  165.57        2983.00           1663          48.00       184.83
  165.60        2983.25           1667          57.00       224.06
  165.63        2983.50           1670          49.00       189.19
  165.66        2983.75           1673          62.00       245.86
  165.69        2984.00           1677          50.00       193.55
HS scan finished at 02:45:55
end
************************************************************
  HS Scan of (1) Internal mercury lamp
************************************************************
Integration time is 0.2294 seconds per sample
dh250318Manchester 53.47 2.23 2.804185pr1000
************************************************************
Dead Time -------------------------  3E-08 
Number of Cycles Used -------------  4 
Starting Wavelength (Angstroms) ---  2950 
Final Wavelength (Angstoms) -------  2984 
Wavelength Increment (Angstroms) --  .25 
Filter Wheel #1 Position ---------- (1) Ground quartz diffuser (ND=2.32)
Filter Wheel #2 Position ---------- (1) Neutral Density 0.494



************************************************************
HS scan start time = 19:42:03
Dark Count =  6.2 


Time (GMT)  Wavelength (Ang)  Step Number  Raw Counts  Counts/Second

 1182.43        2950.00           1222          53.00       204.01
 1182.49        2950.25           1226          71.00       282.48
 1182.52        2950.50           1229          63.00       247.60
 1182.56        2950.75           1232          60.00       234.53
 1182.59        2951.00           1236          65.00       256.32
 1182.62        2951.25           1239          62.00       243.25
 1182.65        2951.50           1242          65.00       256.32
 1182.68        2951.75           1246          57.00       221.45
 1182.71        2952.00           1249          68.00       269.40
 1182.74        2952.25           1252          64.00       251.96
 1182.77        2952.50           1256          59.00       230.17
 1182.80        2952.75           1259          58.00       225.81
 1182.83        2953.00           1262          59.00       230.17
 1182.86        2953.25           1266          55.00       212.73
 1182.89        2953.50           1269          66.00       260.68
 1182.92        2953.75           1272          64.00       251.96
 1182.96        2954.00           1276          61.00       238.89
 1182.99        2954.25           1279          67.00       265.04
 1183.02        2954.50           1282          56.00       217.09
 1183.05        2954.75           1286          52.00       199.65
 1183.08        2955.00           1289          52.00       199.65
 1183.11        2955.25           1292          58.00       225.81
 1183.14        2955.50           1296          54.00       208.37
 1183.17        2955.75           1299          69.00       273.76
 1183.20        2956.00           1302          62.00       243.25
 1183.23        2956.25           1306          66.00       260.68
 1183.26        2956.50           1309          57.00       221.45
 1183.30        2956.75           1312          54.00       208.37
 1183.33        2957.00           1316          67.00       265.04
 1183.36        2957.25           1319          59.00       230.17
 1183.39        2957.50           1322          53.00       204.01
 1183.42        2957.75           1326          72.00       286.84
 1183.45        2958.00           1329          57.00       221.45
 1183.48        2958.25           1332          53.00       204.01
 1183.51        2958.50           1336          52.00       199.65
 1183.54        2958.75           1339          62.00       243.25
 1183.57        2959.00           1342          55.00       212.73
 1183.60        2959.25           1346          60.00       234.53
 1183.63        2959.50           1349          71.00       282.48
 1183.66        2959.75           1352          73.00       291.20
 1183.70        2960.00           1356         105.00       430.69
 1183.73        2960.25           1359         134.00       557.11
 1183.76        2960.50           1362         161.00       674.82
 1183.79        2960.75           1366         219.00       927.66
 1183.82        2961.00           1369         263.00      1119.48
 1183.85        2961.25           1372         278.00      1184.87
 1183.88        2961.50           1376         371.00      1590.31
 1183.91        2961.75           1379         468.00      2013.20
 1183.94        2962.00           1382         872.00      3774.62
 1183.97        2962.25           1386        2355.00     10242.03
 1184.00        2962.50           1389        3689.00     16061.79
 1184.03        2962.75           1392        5104.00     22237.15
 1184.07        2963.00           1396        6775.00     29532.69
 1184.10        2963.25           1399        8256.00     36001.38
 1184.13        2963.50           1402        9771.00     42621.16
 1184.16        2963.75           1406       11872.00     51805.82
 1184.19        2964.00           1409       13418.00     58567.51
 1184.22        2964.25           1412       15060.00     65752.06
 1184.25        2964.50           1416       17164.00     74962.65
 1184.28        2964.75           1419       18716.00     81760.03
 1184.31        2965.00           1422       20101.00     87828.33
 1184.35        2965.25           1426       22074.00     96476.74
 1184.38        2965.50           1429       23552.00    102958.30
 1184.41        2965.75           1432       24899.00    108867.60
 1184.44        2966.00           1436       27017.00    118163.60
 1184.47        2966.25           1439       28346.00    123999.20
 1184.50        2966.50           1442       29843.00    130575.00
 1184.53        2966.75           1446       31362.00    137250.10
 1184.56        2967.00           1449       31629.00    138423.70
 1184.59        2967.25           1452       31770.00    139043.50
 1184.63        2967.50           1456       31899.00    139610.60
 1184.66        2967.75           1459       31788.00    139122.60
 1184.69        2968.00           1462       31796.00    139157.80
 1184.72        2968.25           1466       30885.00    135153.70
 1184.75        2968.50           1469       29850.00    130605.80
 1184.78        2968.75           1472       28428.00    124359.40
 1184.81        2969.00           1476       26693.00    116741.20
 1184.84        2969.25           1479       25227.00    110306.90
 1184.87        2969.50           1482       23683.00    103532.90
 1184.90        2969.75           1486       21985.00     96086.52
 1184.94        2970.00           1489       20398.00     89129.90
 1184.97        2970.25           1492       18842.00     82312.00
 1185.00        2970.50           1496       16932.00     73946.78
 1185.03        2970.75           1499       15517.00     67752.22
 1185.06        2971.00           1502       13979.00     61021.82
 1185.09        2971.25           1506       11866.00     51779.59
 1185.12        2971.50           1509       10517.00     45881.77
 1185.15        2971.75           1513        8617.00     37578.52
 1185.18        2972.00           1516        7185.00     31323.23
 1185.21        2972.25           1519        5764.00     25118.31
 1185.25        2972.50           1523        3916.00     17052.31
 1185.28        2972.75           1526        2595.00     11288.91
 1185.31        2973.00           1529        1245.00      5401.05
 1185.34        2973.25           1533         480.00      2065.52
 1185.37        2973.50           1536         341.00      1459.52
 1185.40        2973.75           1539         280.00      1193.59
 1185.43        2974.00           1543         230.00       975.62
 1185.46        2974.25           1546         170.00       714.05
 1185.49        2974.50           1549         143.00       596.35
 1185.52        2974.75           1553          99.00       404.54
 1185.55        2975.00           1556          70.00       278.12
 1185.59        2975.25           1559          60.00       234.53
 1185.62        2975.50           1563          53.00       204.01
 1185.65        2975.75           1566          56.00       217.09
 1185.68        2976.00           1569          64.00       251.96
 1185.71        2976.25           1573          56.00       217.09
 1185.74        2976.50           1576          62.00       243.25
 1185.77        2976.75           1579          65.00       256.32
 1185.80        2977.00           1583          53.00       204.01
 1185.83        2977.25           1586          47.00       177.86
 1185.86        2977.50           1590          55.00       212.73
 1185.89        2977.75           1593          49.00       186.57
 1185.92        2978.00           1596          56.00       217.09
 1185.95        2978.25           1600          57.00       221.45
 1185.98        2978.50           1603          54.00       208.37
 1186.01        2978.75           1606          57.00       221.45
 1186.05        2979.00           1610          58.00       225.81
 1186.08        2979.25           1613          54.00       208.37
 1186.11        2979.50           1616          60.00       234.53
 1186.14        2979.75           1620          58.00       225.81
 1186.17        2980.00           1623          50.00       190.93
 1186.20        2980.25           1626          53.00       204.01
 1186.23        2980.50           1630          57.00       221.45
 1186.26        2980.75           1633          53.00       204.01
 1186.29        2981.00           1637          48.00       182.22
 1186.32        2981.25           1640          46.00       173.50
 1186.35        2981.50           1643          52.00       199.65
 1186.38        2981.75           1647          59.00       230.17
 1186.41        2982.00           1650          66.00       260.68
 1186.45        2982.25           1653          52.00       199.65
 1186.48        2982.50           1657          55.00       212.73
 1186.51        2982.75           1660          53.00       204.01
 1186.54        2983.00           1663          53.00       204.01
 1186.57        2983.25           1667          54.00       208.37
 1186.60        2983.50           1670          48.00       182.22
 1186.63        2983.75           1673          48.00       182.22
 1186.66        2984.00           1677          49.00       186.57
HS scan finished at 19:46:53
end
