************************************************************
  HS Scan of (1) Internal mercury lamp
************************************************************
Integration time is 0.2294 seconds per sample
dh270317Manchester 53.47 2.23 2.750537pr1000
************************************************************
Dead Time -------------------------  3E-08 
Number of Cycles Used -------------  4 
Starting Wavelength (Angstroms) ---  2950 
Final Wavelength (Angstoms) -------  2984 
Wavelength Increment (Angstroms) --  .25 
Filter Wheel #1 Position ---------- (1) Ground quartz diffuser (ND=2.32)
Filter Wheel #2 Position ---------- (1) Neutral Density 0.494



************************************************************
HS scan start time = 02:30:54
Dark Count =  6.1 


Time (GMT)  Wavelength (Ang)  Step Number  Raw Counts  Counts/Second

  151.27        2950.00           1222          48.00       182.65
  151.33        2950.25           1226          51.00       195.73
  151.36        2950.50           1229          46.00       173.93
  151.39        2950.75           1232          50.00       191.37
  151.42        2951.00           1236          54.00       208.81
  151.45        2951.25           1239          43.00       160.86
  151.48        2951.50           1242          39.00       143.42
  151.52        2951.75           1246          46.00       173.93
  151.55        2952.00           1249          49.00       187.01
  151.58        2952.25           1252          48.00       182.65
  151.61        2952.50           1256          44.00       165.21
  151.64        2952.75           1259          49.00       187.01
  151.67        2953.00           1262          54.00       208.81
  151.70        2953.25           1266          43.00       160.86
  151.73        2953.50           1269          48.00       182.65
  151.76        2953.75           1272          48.00       182.65
  151.80        2954.00           1276          41.00       152.14
  151.83        2954.25           1279          43.00       160.86
  151.86        2954.50           1282          54.00       208.81
  151.89        2954.75           1286          52.00       200.09
  151.92        2955.00           1289          41.00       152.14
  151.95        2955.25           1292          46.00       173.93
  151.98        2955.50           1296          47.00       178.29
  152.01        2955.75           1299          46.00       173.93
  152.04        2956.00           1302          43.00       160.86
  152.07        2956.25           1306          42.00       156.50
  152.10        2956.50           1309          44.00       165.21
  152.13        2956.75           1312          48.00       182.65
  152.17        2957.00           1316          47.00       178.29
  152.20        2957.25           1319          46.00       173.93
  152.23        2957.50           1322          39.00       143.42
  152.26        2957.75           1326          47.00       178.29
  152.29        2958.00           1329          48.00       182.65
  152.32        2958.25           1332          45.00       169.57
  152.35        2958.50           1336          43.00       160.86
  152.38        2958.75           1339          48.00       182.65
  152.41        2959.00           1342          46.00       173.93
  152.44        2959.25           1346          40.00       147.78
  152.47        2959.50           1349          52.00       200.09
  152.50        2959.75           1352          59.00       230.60
  152.54        2960.00           1356          82.00       330.87
  152.57        2960.25           1359          94.00       383.18
  152.60        2960.50           1362         129.00       535.75
  152.63        2960.75           1366         187.00       788.60
  152.66        2961.00           1369         240.00      1019.65
  152.69        2961.25           1372         265.00      1128.63
  152.72        2961.50           1376         339.00      1451.24
  152.75        2961.75           1379         488.00      2100.83
  152.78        2962.00           1382         939.00      4067.19
  152.82        2962.25           1386        2331.00     10137.78
  152.85        2962.50           1389        3972.00     17297.12
  152.88        2962.75           1392        5518.00     24044.80
  152.91        2963.00           1396        7627.00     33254.17
  152.94        2963.25           1399        9159.00     39947.15
  152.97        2963.50           1402       10831.00     47254.83
  153.00        2963.75           1406       12938.00     56468.30
  153.03        2964.00           1409       14924.00     65157.32
  153.06        2964.25           1412       16721.00     73023.36
  153.09        2964.50           1416       18818.00     82207.29
  153.13        2964.75           1419       20635.00     90169.04
  153.16        2965.00           1422       22187.00     96972.63
  153.19        2965.25           1426       24333.00    106384.80
  153.22        2965.50           1429       25892.00    113225.70
  153.25        2965.75           1432       27492.00    120249.50
  153.28        2966.00           1436       29848.00    130597.40
  153.31        2966.25           1439       31341.00    137158.20
  153.34        2966.50           1442       32637.00    142855.50
  153.37        2966.75           1446       34576.00    151383.00
  153.40        2967.00           1449       35669.00    156191.80
  153.44        2967.25           1452       35947.00    157415.10
  153.47        2967.50           1456       35756.00    156574.60
  153.50        2967.75           1459       35845.00    156966.30
  153.53        2968.00           1462       35729.00    156455.80
  153.56        2968.25           1466       34957.00    153059.10
  153.59        2968.50           1469       33658.00    147345.20
  153.62        2968.75           1472       32387.00    141756.30
  153.65        2969.00           1476       30189.00    132095.70
  153.68        2969.25           1479       28800.00    125993.60
  153.71        2969.50           1482       27206.00    118993.80
  153.75        2969.75           1486       24909.00    108911.90
  153.78        2970.00           1489       23287.00    101796.50
  153.81        2970.25           1492       21574.00     94285.06
  153.84        2970.50           1496       19264.00     84161.22
  153.87        2970.75           1499       17592.00     76837.34
  153.90        2971.00           1502       16030.00     69998.19
  153.93        2971.25           1506       13945.00     60873.49
  153.96        2971.50           1509       12158.00     53056.92
  153.99        2971.75           1513        9930.00     43316.50
  154.03        2972.00           1516        8434.00     36779.45
  154.06        2972.25           1519        6743.00     29393.39
  154.09        2972.50           1523        4618.00     20116.32
  154.12        2972.75           1526        3090.00     13448.76
  154.15        2973.00           1529        1601.00      6953.94
  154.18        2973.25           1533         655.00      2828.92
  154.21        2973.50           1536         449.00      1930.80
  154.24        2973.75           1539         324.00      1385.85
  154.27        2974.00           1543         304.00      1298.66
  154.30        2974.25           1546         235.00       997.85
  154.33        2974.50           1549         188.00       792.96
  154.36        2974.75           1553         127.00       527.04
  154.40        2975.00           1556          90.00       365.74
  154.43        2975.25           1559          64.00       252.40
  154.46        2975.50           1563          57.00       221.88
  154.49        2975.75           1566          48.00       182.65
  154.52        2976.00           1569          56.00       217.53
  154.55        2976.25           1573          50.00       191.37
  154.58        2976.50           1576          50.00       191.37
  154.61        2976.75           1579          42.00       156.50
  154.64        2977.00           1583          47.00       178.29
  154.67        2977.25           1586          48.00       182.65
  154.71        2977.50           1590          38.00       139.06
  154.74        2977.75           1593          48.00       182.65
  154.77        2978.00           1596          46.00       173.93
  154.80        2978.25           1600          45.00       169.57
  154.83        2978.50           1603          49.00       187.01
  154.86        2978.75           1606          47.00       178.29
  154.89        2979.00           1610          48.00       182.65
  154.92        2979.25           1613          44.00       165.21
  154.95        2979.50           1616          43.00       160.86
  154.98        2979.75           1620          53.00       204.45
  155.01        2980.00           1623          48.00       182.65
  155.04        2980.25           1626          44.00       165.21
  155.07        2980.50           1630          47.00       178.29
  155.11        2980.75           1633          49.00       187.01
  155.14        2981.00           1637          38.00       139.06
  155.17        2981.25           1640          46.00       173.93
  155.20        2981.50           1643          46.00       173.93
  155.23        2981.75           1647          52.00       200.09
  155.26        2982.00           1650          44.00       165.21
  155.29        2982.25           1653          45.00       169.57
  155.32        2982.50           1657          43.00       160.86
  155.35        2982.75           1660          41.00       152.14
  155.38        2983.00           1663          41.00       152.14
  155.41        2983.25           1667          49.00       187.01
  155.44        2983.50           1670          40.00       147.78
  155.47        2983.75           1673          42.00       156.50
  155.50        2984.00           1677          48.00       182.65
HS scan finished at 02:35:43
end
************************************************************
  HS Scan of (1) Internal mercury lamp
************************************************************
Integration time is 0.2294 seconds per sample
dh270317Manchester 53.47 2.23 2.804185pr1000
************************************************************
Dead Time -------------------------  3E-08 
Number of Cycles Used -------------  4 
Starting Wavelength (Angstroms) ---  2950 
Final Wavelength (Angstoms) -------  2984 
Wavelength Increment (Angstroms) --  .25 
Filter Wheel #1 Position ---------- (1) Ground quartz diffuser (ND=2.32)
Filter Wheel #2 Position ---------- (1) Neutral Density 0.494



************************************************************
HS scan start time = 19:42:03
Dark Count =  8.2 


Time (GMT)  Wavelength (Ang)  Step Number  Raw Counts  Counts/Second

 1182.42        2950.00           1222          49.00       177.86
 1182.49        2950.25           1226          53.00       195.29
 1182.52        2950.50           1229          43.00       151.70
 1182.55        2950.75           1232          49.00       177.86
 1182.58        2951.00           1236          48.00       173.50
 1182.61        2951.25           1239          42.00       147.34
 1182.64        2951.50           1242          40.00       138.62
 1182.67        2951.75           1246          49.00       177.86
 1182.70        2952.00           1249          43.00       151.70
 1182.74        2952.25           1252          48.00       173.50
 1182.77        2952.50           1256          44.00       156.06
 1182.80        2952.75           1259          51.00       186.57
 1182.83        2953.00           1262          47.00       169.14
 1182.86        2953.25           1266          41.00       142.98
 1182.89        2953.50           1269          53.00       195.29
 1182.92        2953.75           1272          46.00       164.78
 1182.95        2954.00           1276          43.00       151.70
 1182.98        2954.25           1279          44.00       156.06
 1183.01        2954.50           1282          45.00       160.42
 1183.04        2954.75           1286          48.00       173.50
 1183.07        2955.00           1289          39.00       134.26
 1183.11        2955.25           1292          48.00       173.50
 1183.14        2955.50           1296          52.00       190.93
 1183.17        2955.75           1299          48.00       173.50
 1183.20        2956.00           1302          51.00       186.57
 1183.23        2956.25           1306          48.00       173.50
 1183.26        2956.50           1309          47.00       169.14
 1183.29        2956.75           1312          48.00       173.50
 1183.32        2957.00           1316          44.00       156.06
 1183.35        2957.25           1319          52.00       190.93
 1183.38        2957.50           1322          49.00       177.86
 1183.42        2957.75           1326          53.00       195.29
 1183.45        2958.00           1329          55.00       204.01
 1183.48        2958.25           1332          40.00       138.62
 1183.51        2958.50           1336          48.00       173.50
 1183.54        2958.75           1339          41.00       142.98
 1183.57        2959.00           1342          46.00       164.78
 1183.60        2959.25           1346          45.00       160.42
 1183.63        2959.50           1349          53.00       195.29
 1183.66        2959.75           1352          59.00       221.45
 1183.69        2960.00           1356          94.00       374.02
 1183.72        2960.25           1359         114.00       461.21
 1183.75        2960.50           1362         159.00       657.38
 1183.78        2960.75           1366         227.00       953.82
 1183.82        2961.00           1369         251.00      1058.45
 1183.85        2961.25           1372         290.00      1228.47
 1183.88        2961.50           1376         366.00      1559.79
 1183.91        2961.75           1379         506.00      2170.15
 1183.94        2962.00           1382         994.00      4297.85
 1183.97        2962.25           1386        2529.00     10992.29
 1184.00        2962.50           1389        4047.00     17615.24
 1184.03        2962.75           1392        5743.00     25017.90
 1184.06        2963.00           1396        7741.00     33742.95
 1184.09        2963.25           1399        9462.00     41262.03
 1184.12        2963.50           1402       11160.00     48683.96
 1184.15        2963.75           1406       13293.00     58011.95
 1184.19        2964.00           1409       15010.00     65524.49
 1184.22        2964.25           1412       16692.00     72887.20
 1184.25        2964.50           1416       18973.00     82877.13
 1184.28        2964.75           1419       20734.00     90593.75
 1184.31        2965.00           1422       22298.00     97450.13
 1184.34        2965.25           1426       24583.00    107472.40
 1184.37        2965.50           1429       26411.00    115494.50
 1184.40        2965.75           1432       28206.00    123375.60
 1184.43        2966.00           1436       30362.00    132846.60
 1184.47        2966.25           1439       31908.00    139641.30
 1184.50        2966.50           1442       33425.00    146311.30
 1184.53        2966.75           1446       35005.00    153261.00
 1184.56        2967.00           1449       35632.00    156019.80
 1184.59        2967.25           1452       35797.00    156745.80
 1184.62        2967.50           1456       35608.00    155914.20
 1184.65        2967.75           1459       35678.00    156222.20
 1184.68        2968.00           1462       35319.00    154642.50
 1184.71        2968.25           1466       34508.00    151074.60
 1184.75        2968.50           1469       33363.00    146038.60
 1184.78        2968.75           1472       31851.00    139390.80
 1184.81        2969.00           1476       29506.00    129085.70
 1184.84        2969.25           1479       28002.00    122479.70
 1184.87        2969.50           1482       26220.00    114656.10
 1184.90        2969.75           1486       24065.00    105199.90
 1184.93        2970.00           1489       22549.00     98550.75
 1184.96        2970.25           1492       20926.00     91435.31
 1184.99        2970.50           1496       18975.00     82885.88
 1185.02        2970.75           1499       17426.00     76101.18
 1185.06        2971.00           1502       15731.00     68680.16
 1185.09        2971.25           1506       13357.00     58291.91
 1185.12        2971.50           1509       11571.00     50480.93
 1185.15        2971.75           1513        9336.00     40711.42
 1185.18        2972.00           1516        7801.00     34005.03
 1185.21        2972.25           1519        6058.00     26393.17
 1185.24        2972.50           1523        4060.00     17671.97
 1185.27        2972.75           1526        2600.00     11302.00
 1185.30        2973.00           1529        1343.00      5819.67
 1185.33        2973.25           1533         495.00      2122.19
 1185.37        2973.50           1536         363.00      1546.72
 1185.40        2973.75           1539         292.00      1237.19
 1185.43        2974.00           1543         263.00      1110.76
 1185.46        2974.25           1546         195.00       814.32
 1185.49        2974.50           1549         144.00       591.99
 1185.52        2974.75           1553         100.00       400.18
 1185.55        2975.00           1556          75.00       291.20
 1185.58        2975.25           1559          55.00       204.01
 1185.61        2975.50           1563          51.00       186.57
 1185.65        2975.75           1566          47.00       169.14
 1185.68        2976.00           1569          50.00       182.22
 1185.71        2976.25           1573          47.00       169.14
 1185.74        2976.50           1576          43.00       151.70
 1185.77        2976.75           1579          49.00       177.86
 1185.80        2977.00           1583          40.00       138.62
 1185.83        2977.25           1586          48.00       173.50
 1185.86        2977.50           1590          46.00       164.78
 1185.89        2977.75           1593          48.00       173.50
 1185.92        2978.00           1596          49.00       177.86
 1185.95        2978.25           1600          42.00       147.34
 1185.98        2978.50           1603          41.00       142.98
 1186.01        2978.75           1606          40.00       138.62
 1186.04        2979.00           1610          45.00       160.42
 1186.08        2979.25           1613          43.00       151.70
 1186.11        2979.50           1616          42.00       147.34
 1186.14        2979.75           1620          43.00       151.70
 1186.17        2980.00           1623          44.00       156.06
 1186.20        2980.25           1626          51.00       186.57
 1186.23        2980.50           1630          45.00       160.42
 1186.26        2980.75           1633          43.00       151.70
 1186.29        2981.00           1637          48.00       173.50
 1186.32        2981.25           1640          50.00       182.22
 1186.35        2981.50           1643          45.00       160.42
 1186.39        2981.75           1647          40.00       138.62
 1186.42        2982.00           1650          43.00       151.70
 1186.45        2982.25           1653          51.00       186.57
 1186.48        2982.50           1657          49.00       177.86
 1186.51        2982.75           1660          45.00       160.42
 1186.54        2983.00           1663          43.00       151.70
 1186.57        2983.25           1667          45.00       160.42
 1186.60        2983.50           1670          41.00       142.98
 1186.63        2983.75           1673          42.00       147.34
 1186.66        2984.00           1677          49.00       177.86
HS scan finished at 19:46:53
end
