************************************************************
  HS Scan of (1) Internal mercury lamp
************************************************************
Integration time is 0.2294 seconds per sample
dh280317Manchester 53.47 2.23 2.750537pr1000
************************************************************
Dead Time -------------------------  3E-08 
Number of Cycles Used -------------  4 
Starting Wavelength (Angstroms) ---  2950 
Final Wavelength (Angstoms) -------  2984 
Wavelength Increment (Angstroms) --  .25 
Filter Wheel #1 Position ---------- (1) Ground quartz diffuser (ND=2.32)
Filter Wheel #2 Position ---------- (1) Neutral Density 0.494



************************************************************
HS scan start time = 03:02:24
Dark Count =  7.3 


Time (GMT)  Wavelength (Ang)  Step Number  Raw Counts  Counts/Second

  182.77        2950.00           1222          46.00       168.70
  182.83        2950.25           1226          41.00       146.91
  182.86        2950.50           1229          47.00       173.06
  182.89        2950.75           1232          41.00       146.91
  182.92        2951.00           1236          48.00       177.42
  182.95        2951.25           1239          46.00       168.70
  182.98        2951.50           1242          55.00       207.94
  183.02        2951.75           1246          38.00       133.83
  183.05        2952.00           1249          51.00       190.50
  183.08        2952.25           1252          54.00       203.58
  183.11        2952.50           1256          42.00       151.26
  183.14        2952.75           1259          45.00       164.34
  183.17        2953.00           1262          48.00       177.42
  183.20        2953.25           1266          45.00       164.34
  183.23        2953.50           1269          40.00       142.55
  183.26        2953.75           1272          47.00       173.06
  183.29        2954.00           1276          45.00       164.34
  183.32        2954.25           1279          46.00       168.70
  183.36        2954.50           1282          50.00       186.14
  183.39        2954.75           1286          48.00       177.42
  183.42        2955.00           1289          47.00       173.06
  183.45        2955.25           1292          47.00       173.06
  183.48        2955.50           1296          41.00       146.91
  183.51        2955.75           1299          40.00       142.55
  183.54        2956.00           1302          49.00       181.78
  183.57        2956.25           1306          46.00       168.70
  183.60        2956.50           1309          51.00       190.50
  183.63        2956.75           1312          49.00       181.78
  183.66        2957.00           1316          47.00       173.06
  183.70        2957.25           1319          40.00       142.55
  183.73        2957.50           1322          43.00       155.62
  183.76        2957.75           1326          42.00       151.26
  183.79        2958.00           1329          47.00       173.06
  183.82        2958.25           1332          44.00       159.98
  183.85        2958.50           1336          50.00       186.14
  183.88        2958.75           1339          43.00       155.62
  183.91        2959.00           1342          46.00       168.70
  183.94        2959.25           1346          52.00       194.86
  183.97        2959.50           1349          64.00       247.17
  184.00        2959.75           1352          72.00       282.04
  184.03        2960.00           1356          97.00       391.02
  184.07        2960.25           1359         125.00       513.09
  184.10        2960.50           1362         170.00       709.26
  184.13        2960.75           1366         227.00       957.74
  184.16        2961.00           1369         260.00      1101.61
  184.19        2961.25           1372         324.00      1380.62
  184.22        2961.50           1376         467.00      2004.04
  184.25        2961.75           1379         802.00      3464.61
  184.28        2962.00           1382        1781.00      7733.70
  184.31        2962.25           1386        3673.00     15987.18
  184.34        2962.50           1389        5234.00     22799.81
  184.38        2962.75           1392        6774.00     29523.52
  184.41        2963.00           1396        8742.00     38119.86
  184.44        2963.25           1399       10508.00     45837.62
  184.47        2963.50           1402       12203.00     53248.47
  184.50        2963.75           1406       14395.00     62837.18
  184.53        2964.00           1409       15996.00     69844.10
  184.56        2964.25           1412       17947.00     78386.82
  184.59        2964.50           1416       20258.00     88511.52
  184.62        2964.75           1419       21920.00     95796.72
  184.65        2965.00           1422       23555.00    102966.70
  184.69        2965.25           1426       25916.00    113325.80
  184.72        2965.50           1429       27433.00    119985.20
  184.75        2965.75           1432       29298.00    128175.90
  184.78        2966.00           1436       31289.00    136924.40
  184.81        2966.25           1439       32930.00    144138.50
  184.84        2966.50           1442       34440.00    150779.50
  184.87        2966.75           1446       35746.00    156525.40
  184.90        2967.00           1449       36042.00    157827.90
  184.93        2967.25           1452       35983.00    157568.30
  184.96        2967.50           1456       36039.00    157814.70
  185.00        2967.75           1459       35998.00    157634.30
  185.03        2968.00           1462       35589.00    155834.50
  185.06        2968.25           1466       34370.00    150471.50
  185.09        2968.50           1469       32997.00    144433.10
  185.12        2968.75           1472       31449.00    137627.70
  185.15        2969.00           1476       29536.00    129221.40
  185.18        2969.25           1479       27902.00    122044.60
  185.21        2969.50           1482       26164.00    114414.30
  185.24        2969.75           1486       24103.00    105370.50
  185.28        2970.00           1489       22526.00     98453.83
  185.31        2970.25           1492       20651.00     90233.91
  185.34        2970.50           1496       18653.00     81479.22
  185.37        2970.75           1499       16926.00     73915.69
  185.40        2971.00           1502       15275.00     66688.21
  185.43        2971.25           1506       12957.00     56546.15
  185.46        2971.50           1509       11414.00     49798.41
  185.49        2971.75           1513        9287.00     40501.24
  185.52        2972.00           1516        7567.00     32986.86
  185.55        2972.25           1519        6027.00     26261.75
  185.58        2972.50           1523        3993.00     17383.52
  185.61        2972.75           1526        2446.00     10634.17
  185.64        2973.00           1529        1230.00      5330.84
  185.68        2973.25           1533         496.00      2130.48
  185.71        2973.50           1536         363.00      1550.64
  185.74        2973.75           1539         307.00      1306.50
  185.77        2974.00           1543         242.00      1023.14
  185.80        2974.25           1546         181.00       757.21
  185.83        2974.50           1549         140.00       578.48
  185.86        2974.75           1553          91.00       364.87
  185.89        2975.00           1556          71.00       277.68
  185.92        2975.25           1559          56.00       212.29
  185.95        2975.50           1563          46.00       168.70
  185.98        2975.75           1566          57.00       216.65
  186.02        2976.00           1569          46.00       168.70
  186.05        2976.25           1573          52.00       194.86
  186.08        2976.50           1576          49.00       181.78
  186.11        2976.75           1579          37.00       129.47
  186.14        2977.00           1583          47.00       173.06
  186.17        2977.25           1586          43.00       155.62
  186.20        2977.50           1590          53.00       199.22
  186.23        2977.75           1593          47.00       173.06
  186.26        2978.00           1596          46.00       168.70
  186.29        2978.25           1600          54.00       203.58
  186.32        2978.50           1603          47.00       173.06
  186.35        2978.75           1606          48.00       177.42
  186.39        2979.00           1610          49.00       181.78
  186.42        2979.25           1613          51.00       190.50
  186.45        2979.50           1616          45.00       164.34
  186.48        2979.75           1620          47.00       173.06
  186.51        2980.00           1623          44.00       159.98
  186.54        2980.25           1626          45.00       164.34
  186.57        2980.50           1630          48.00       177.42
  186.60        2980.75           1633          46.00       168.70
  186.63        2981.00           1637          43.00       155.62
  186.66        2981.25           1640          51.00       190.50
  186.69        2981.50           1643          48.00       177.42
  186.73        2981.75           1647          44.00       159.98
  186.76        2982.00           1650          47.00       173.06
  186.79        2982.25           1653          44.00       159.98
  186.82        2982.50           1657          43.00       155.62
  186.85        2982.75           1660          53.00       199.22
  186.88        2983.00           1663          46.00       168.70
  186.91        2983.25           1667          44.00       159.98
  186.94        2983.50           1670          38.00       133.83
  186.97        2983.75           1673          40.00       142.55
  187.00        2984.00           1677          48.00       177.42
HS scan finished at 03:07:13
end
************************************************************
  HS Scan of (1) Internal mercury lamp
************************************************************
Integration time is 0.2294 seconds per sample
dh280317Manchester 53.47 2.23 2.804185pr1000
************************************************************
Dead Time -------------------------  3E-08 
Number of Cycles Used -------------  4 
Starting Wavelength (Angstroms) ---  2950 
Final Wavelength (Angstoms) -------  2984 
Wavelength Increment (Angstroms) --  .25 
Filter Wheel #1 Position ---------- (1) Ground quartz diffuser (ND=2.32)
Filter Wheel #2 Position ---------- (1) Neutral Density 0.494



************************************************************
HS scan start time = 19:42:02
Dark Count =  5.7 


Time (GMT)  Wavelength (Ang)  Step Number  Raw Counts  Counts/Second

 1182.40        2950.00           1222          47.00       180.04
 1182.46        2950.25           1226          45.00       171.32
 1182.49        2950.50           1229          47.00       180.04
 1182.52        2950.75           1232          52.00       201.83
 1182.55        2951.00           1236          39.00       145.16
 1182.58        2951.25           1239          36.00       132.08
 1182.61        2951.50           1242          41.00       153.88
 1182.65        2951.75           1246          47.00       180.04
 1182.68        2952.00           1249          56.00       219.27
 1182.71        2952.25           1252          45.00       171.32
 1182.74        2952.50           1256          46.00       175.68
 1182.77        2952.75           1259          38.00       140.80
 1182.80        2953.00           1262          44.00       166.96
 1182.83        2953.25           1266          45.00       171.32
 1182.86        2953.50           1269          49.00       188.75
 1182.89        2953.75           1272          50.00       193.11
 1182.92        2954.00           1276          46.00       175.68
 1182.95        2954.25           1279          47.00       180.04
 1182.99        2954.50           1282          44.00       166.96
 1183.02        2954.75           1286          44.00       166.96
 1183.05        2955.00           1289          46.00       175.68
 1183.08        2955.25           1292          49.00       188.75
 1183.11        2955.50           1296          39.00       145.16
 1183.14        2955.75           1299          46.00       175.68
 1183.17        2956.00           1302          44.00       166.96
 1183.20        2956.25           1306          48.00       184.40
 1183.23        2956.50           1309          45.00       171.32
 1183.26        2956.75           1312          53.00       206.19
 1183.29        2957.00           1316          38.00       140.80
 1183.32        2957.25           1319          43.00       162.60
 1183.35        2957.50           1322          46.00       175.68
 1183.38        2957.75           1326          48.00       184.40
 1183.42        2958.00           1329          49.00       188.75
 1183.45        2958.25           1332          49.00       188.75
 1183.48        2958.50           1336          48.00       184.40
 1183.51        2958.75           1339          45.00       171.32
 1183.54        2959.00           1342          49.00       188.75
 1183.57        2959.25           1346          49.00       188.75
 1183.60        2959.50           1349          53.00       206.19
 1183.63        2959.75           1352          73.00       293.38
 1183.66        2960.00           1356         114.00       472.11
 1183.69        2960.25           1359         143.00       598.53
 1183.73        2960.50           1362         183.00       772.90
 1183.76        2960.75           1366         229.00       973.44
 1183.79        2961.00           1369         296.00      1265.52
 1183.82        2961.25           1372         304.00      1300.40
 1183.85        2961.50           1376         424.00      1823.55
 1183.88        2961.75           1379         670.00      2896.07
 1183.91        2962.00           1382        1379.00      5987.56
 1183.94        2962.25           1386        3177.00     13830.06
 1183.97        2962.50           1389        4761.00     20742.20
 1184.01        2962.75           1392        6362.00     27731.43
 1184.04        2963.00           1396        8511.00     37117.60
 1184.07        2963.25           1399       10082.00     43982.58
 1184.10        2963.50           1402       11688.00     51003.44
 1184.13        2963.75           1406       13979.00     61024.00
 1184.16        2964.00           1409       15650.00     68336.56
 1184.19        2964.25           1412       17330.00     75691.74
 1184.22        2964.50           1416       19475.00     85087.46
 1184.25        2964.75           1419       21274.00     92971.69
 1184.28        2965.00           1422       23307.00    101885.90
 1184.32        2965.25           1426       25362.00    110901.50
 1184.35        2965.50           1429       26900.00    117652.10
 1184.38        2965.75           1432       28716.00    125626.50
 1184.41        2966.00           1436       30921.00    135314.10
 1184.44        2966.25           1439       32602.00    142703.40
 1184.47        2966.50           1442       33895.00    148389.30
 1184.50        2966.75           1446       35288.00    154517.10
 1184.53        2967.00           1449       35680.00    156242.00
 1184.56        2967.25           1452       35665.00    156176.00
 1184.60        2967.50           1456       35724.00    156435.60
 1184.63        2967.75           1459       35625.00    156000.00
 1184.66        2968.00           1462       35458.00    155265.10
 1184.69        2968.25           1466       34217.00    149805.60
 1184.72        2968.50           1469       32795.00    143552.00
 1184.75        2968.75           1472       31415.00    137485.30
 1184.78        2969.00           1476       29319.00    128275.20
 1184.81        2969.25           1479       27660.00    120988.90
 1184.84        2969.50           1482       26185.00    114513.50
 1184.88        2969.75           1486       23799.00    104044.00
 1184.91        2970.00           1489       22337.00     97632.11
 1184.94        2970.25           1492       20488.00     89526.53
 1184.97        2970.50           1496       18382.00     80299.15
 1185.00        2970.75           1499       16777.00     73270.30
 1185.03        2971.00           1502       15174.00     66253.18
 1185.06        2971.25           1506       12782.00     55787.71
 1185.09        2971.50           1509       11152.00     48659.92
 1185.12        2971.75           1513        8973.00     39136.16
 1185.16        2972.00           1516        7378.00     32168.34
 1185.19        2972.25           1519        5792.00     25242.74
 1185.22        2972.50           1523        3716.00     16181.79
 1185.25        2972.75           1526        2252.00      9794.94
 1185.28        2973.00           1529        1109.00      4810.20
 1185.31        2973.25           1533         447.00      1923.83
 1185.34        2973.50           1536         306.00      1309.12
 1185.37        2973.75           1539         273.00      1165.25
 1185.40        2974.00           1543         230.00       977.80
 1185.44        2974.25           1546         161.00       677.00
 1185.47        2974.50           1549         118.00       489.55
 1185.50        2974.75           1553          76.00       306.45
 1185.53        2975.00           1556          55.00       214.91
 1185.56        2975.25           1559          61.00       241.07
 1185.59        2975.50           1563          53.00       206.19
 1185.62        2975.75           1566          52.00       201.83
 1185.65        2976.00           1569          46.00       175.68
 1185.68        2976.25           1573          47.00       180.04
 1185.71        2976.50           1576          44.00       166.96
 1185.74        2976.75           1579          44.00       166.96
 1185.77        2977.00           1583          53.00       206.19
 1185.81        2977.25           1586          46.00       175.68
 1185.84        2977.50           1590          51.00       197.47
 1185.87        2977.75           1593          50.00       193.11
 1185.90        2978.00           1596          50.00       193.11
 1185.93        2978.25           1600          41.00       153.88
 1185.96        2978.50           1603          47.00       180.04
 1185.99        2978.75           1606          52.00       201.83
 1186.02        2979.00           1610          47.00       180.04
 1186.05        2979.25           1613          43.00       162.60
 1186.08        2979.50           1616          45.00       171.32
 1186.11        2979.75           1620          42.00       158.24
 1186.14        2980.00           1623          46.00       175.68
 1186.18        2980.25           1626          43.00       162.60
 1186.21        2980.50           1630          49.00       188.75
 1186.24        2980.75           1633          46.00       175.68
 1186.27        2981.00           1637          44.00       166.96
 1186.30        2981.25           1640          39.00       145.16
 1186.33        2981.50           1643          38.00       140.80
 1186.36        2981.75           1647          52.00       201.83
 1186.39        2982.00           1650          44.00       166.96
 1186.42        2982.25           1653          40.00       149.52
 1186.45        2982.50           1657          48.00       184.40
 1186.48        2982.75           1660          43.00       162.60
 1186.51        2983.00           1663          54.00       210.55
 1186.54        2983.25           1667          59.00       232.35
 1186.57        2983.50           1670          48.00       184.40
 1186.61        2983.75           1673          40.00       149.52
 1186.64        2984.00           1677          44.00       166.96
HS scan finished at 19:46:51
end
