************************************************************
  HS Scan of (1) Internal mercury lamp
************************************************************
Integration time is 0.2294 seconds per sample
dh260318Manchester 53.47 2.23 2.804185pr1000
************************************************************
Dead Time -------------------------  3E-08 
Number of Cycles Used -------------  4 
Starting Wavelength (Angstroms) ---  2950 
Final Wavelength (Angstoms) -------  2984 
Wavelength Increment (Angstroms) --  .25 
Filter Wheel #1 Position ---------- (1) Ground quartz diffuser (ND=2.32)
Filter Wheel #2 Position ---------- (1) Neutral Density 0.494



************************************************************
HS scan start time = 02:36:03
Dark Count =  5.3 


Time (GMT)  Wavelength (Ang)  Step Number  Raw Counts  Counts/Second

  156.42        2950.00           1222          61.00       242.81
  156.49        2950.25           1226          56.00       221.01
  156.52        2950.50           1229          58.00       229.73
  156.55        2950.75           1232          59.00       234.09
  156.58        2951.00           1236          59.00       234.09
  156.61        2951.25           1239          64.00       255.89
  156.64        2951.50           1242          56.00       221.01
  156.67        2951.75           1246          65.00       260.25
  156.71        2952.00           1249          58.00       229.73
  156.74        2952.25           1252          60.00       238.45
  156.77        2952.50           1256          56.00       221.01
  156.80        2952.75           1259          66.00       264.61
  156.83        2953.00           1262          55.00       216.65
  156.86        2953.25           1266          62.00       247.17
  156.89        2953.50           1269          55.00       216.65
  156.92        2953.75           1272          56.00       221.01
  156.95        2954.00           1276          55.00       216.65
  156.98        2954.25           1279          62.00       247.17
  157.01        2954.50           1282          69.00       277.68
  157.05        2954.75           1286          60.00       238.45
  157.08        2955.00           1289          62.00       247.17
  157.11        2955.25           1292          49.00       190.50
  157.14        2955.50           1296          55.00       216.65
  157.17        2955.75           1299          55.00       216.65
  157.20        2956.00           1302          53.00       207.94
  157.23        2956.25           1306          58.00       229.73
  157.26        2956.50           1309          59.00       234.09
  157.29        2956.75           1312          60.00       238.45
  157.32        2957.00           1316          59.00       234.09
  157.35        2957.25           1319          55.00       216.65
  157.38        2957.50           1322          60.00       238.45
  157.42        2957.75           1326          57.00       225.37
  157.45        2958.00           1329          60.00       238.45
  157.48        2958.25           1332          68.00       273.32
  157.51        2958.50           1336          59.00       234.09
  157.54        2958.75           1339          61.00       242.81
  157.57        2959.00           1342          62.00       247.17
  157.60        2959.25           1346          67.00       268.96
  157.63        2959.50           1349          60.00       238.45
  157.66        2959.75           1352          78.00       316.92
  157.69        2960.00           1356         103.00       425.90
  157.72        2960.25           1359         144.00       604.63
  157.75        2960.50           1362         169.00       713.62
  157.78        2960.75           1366         219.00       931.59
  157.81        2961.00           1369         256.00      1092.89
  157.84        2961.25           1372         290.00      1241.11
  157.88        2961.50           1376         376.00      1616.03
  157.91        2961.75           1379         541.00      2335.39
  157.94        2962.00           1382        1183.00      5134.62
  157.97        2962.25           1386        2795.00     12165.29
  158.00        2962.50           1389        4195.00     18273.75
  158.03        2962.75           1392        5576.00     24301.50
  158.06        2963.00           1396        7454.00     32502.03
  158.09        2963.25           1399        8917.00     38893.22
  158.12        2963.50           1402       10568.00     46108.64
  158.15        2963.75           1406       12655.00     55234.00
  158.18        2964.00           1409       14211.00     62040.83
  158.21        2964.25           1412       15734.00     68705.99
  158.24        2964.50           1416       17706.00     77340.09
  158.28        2964.75           1419       19114.00     83507.55
  158.31        2965.00           1422       20465.00     89427.48
  158.34        2965.25           1426       22566.00     98638.01
  158.37        2965.50           1429       23923.00    104589.60
  158.40        2965.75           1432       25548.00    111719.50
  158.43        2966.00           1436       27403.00    119862.20
  158.46        2966.25           1439       28714.00    125619.40
  158.49        2966.50           1442       30134.00    131857.50
  158.52        2966.75           1446       31636.00    138458.40
  158.56        2967.00           1449       32044.00    140251.90
  158.59        2967.25           1452       32000.00    140058.50
  158.62        2967.50           1456       32098.00    140489.30
  158.65        2967.75           1459       32067.00    140353.00
  158.68        2968.00           1462       31734.00    138889.20
  158.71        2968.25           1466       30754.00    134581.90
  158.74        2968.50           1469       29281.00    128110.00
  158.77        2968.75           1472       28006.00    122510.00
  158.80        2969.00           1476       26336.00    115178.00
  158.83        2969.25           1479       24953.00    109108.50
  158.87        2969.50           1482       23109.00    101019.30
  158.90        2969.75           1486       21245.00     92846.31
  158.93        2970.00           1489       19868.00     86811.22
  158.96        2970.25           1492       18313.00     79998.65
  158.99        2970.50           1496       16403.00     71634.60
  159.02        2970.75           1499       14972.00     65370.89
  159.05        2971.00           1502       13474.00     58816.42
  159.08        2971.25           1506       11546.00     50384.30
  159.11        2971.50           1509       10076.00     43958.11
  159.15        2971.75           1513        8265.00     36044.63
  159.18        2972.00           1516        6621.00     28864.13
  159.21        2972.25           1519        5343.00     23284.35
  159.24        2972.50           1523        3419.00     14887.64
  159.27        2972.75           1526        1965.00      8544.91
  159.30        2973.00           1529         923.00      4000.92
  159.33        2973.25           1533         425.00      1829.66
  159.36        2973.50           1536         338.00      1450.37
  159.39        2973.75           1539         288.00      1232.39
  159.42        2974.00           1543         220.00       935.95
  159.45        2974.25           1546         183.00       774.65
  159.49        2974.50           1549         152.00       639.51
  159.52        2974.75           1553         115.00       478.21
  159.55        2975.00           1556          71.00       286.40
  159.58        2975.25           1559          64.00       255.89
  159.61        2975.50           1563          73.00       295.12
  159.64        2975.75           1566          60.00       238.45
  159.67        2976.00           1569          54.00       212.29
  159.70        2976.25           1573          59.00       234.09
  159.73        2976.50           1576          61.00       242.81
  159.76        2976.75           1579          55.00       216.65
  159.79        2977.00           1583          67.00       268.96
  159.82        2977.25           1586          55.00       216.65
  159.86        2977.50           1590          61.00       242.81
  159.89        2977.75           1593          47.00       181.78
  159.92        2978.00           1596          52.00       203.58
  159.95        2978.25           1600          59.00       234.09
  159.98        2978.50           1603          49.00       190.50
  160.01        2978.75           1606          55.00       216.65
  160.04        2979.00           1610          59.00       234.09
  160.07        2979.25           1613          59.00       234.09
  160.10        2979.50           1616          69.00       277.68
  160.13        2979.75           1620          53.00       207.94
  160.16        2980.00           1623          58.00       229.73
  160.20        2980.25           1626          57.00       225.37
  160.23        2980.50           1630          48.00       186.14
  160.26        2980.75           1633          52.00       203.58
  160.29        2981.00           1637          54.00       212.29
  160.32        2981.25           1640          56.00       221.01
  160.35        2981.50           1643          60.00       238.45
  160.38        2981.75           1647          53.00       207.94
  160.41        2982.00           1650          59.00       234.09
  160.44        2982.25           1653          56.00       221.01
  160.47        2982.50           1657          52.00       203.58
  160.50        2982.75           1660          58.00       229.73
  160.53        2983.00           1663          50.00       194.86
  160.56        2983.25           1667          52.00       203.58
  160.59        2983.50           1670          51.00       199.22
  160.62        2983.75           1673          50.00       194.86
  160.65        2984.00           1677          61.00       242.81
HS scan finished at 02:40:52
end
************************************************************
  HS Scan of (1) Internal mercury lamp
************************************************************
Integration time is 0.2294 seconds per sample
dh260318Manchester 53.47 2.23 2.804185pr1000
************************************************************
Dead Time -------------------------  3E-08 
Number of Cycles Used -------------  4 
Starting Wavelength (Angstroms) ---  2950 
Final Wavelength (Angstoms) -------  2984 
Wavelength Increment (Angstroms) --  .25 
Filter Wheel #1 Position ---------- (1) Ground quartz diffuser (ND=2.32)
Filter Wheel #2 Position ---------- (1) Neutral Density 0.494



************************************************************
HS scan start time = 19:42:05
Dark Count =  7.2 


Time (GMT)  Wavelength (Ang)  Step Number  Raw Counts  Counts/Second

 1182.46        2950.00           1222          63.00       243.25
 1182.52        2950.25           1226          61.00       234.53
 1182.55        2950.50           1229          64.00       247.60
 1182.59        2950.75           1232          65.00       251.96
 1182.62        2951.00           1236          54.00       204.01
 1182.65        2951.25           1239          60.00       230.17
 1182.68        2951.50           1242          58.00       221.45
 1182.71        2951.75           1246          65.00       251.96
 1182.74        2952.00           1249          53.00       199.65
 1182.77        2952.25           1252          55.00       208.37
 1182.80        2952.50           1256          57.00       217.09
 1182.83        2952.75           1259          60.00       230.17
 1182.86        2953.00           1262          59.00       225.81
 1182.89        2953.25           1266          60.00       230.17
 1182.92        2953.50           1269          54.00       204.01
 1182.95        2953.75           1272          61.00       234.53
 1182.99        2954.00           1276          65.00       251.96
 1183.02        2954.25           1279          65.00       251.96
 1183.05        2954.50           1282          53.00       199.65
 1183.08        2954.75           1286          59.00       225.81
 1183.11        2955.00           1289          51.00       190.93
 1183.14        2955.25           1292          55.00       208.37
 1183.17        2955.50           1296          60.00       230.17
 1183.20        2955.75           1299          54.00       204.01
 1183.23        2956.00           1302          57.00       217.09
 1183.26        2956.25           1306          52.00       195.29
 1183.29        2956.50           1309          58.00       221.45
 1183.32        2956.75           1312          60.00       230.17
 1183.35        2957.00           1316          59.00       225.81
 1183.39        2957.25           1319          61.00       234.53
 1183.42        2957.50           1322          61.00       234.53
 1183.45        2957.75           1326          60.00       230.17
 1183.48        2958.00           1329          56.00       212.73
 1183.51        2958.25           1332          61.00       234.53
 1183.54        2958.50           1336          56.00       212.73
 1183.57        2958.75           1339          58.00       221.45
 1183.60        2959.00           1342          64.00       247.60
 1183.63        2959.25           1346          63.00       243.25
 1183.66        2959.50           1349          73.00       286.84
 1183.69        2959.75           1352          87.00       347.87
 1183.72        2960.00           1356         122.00       500.44
 1183.75        2960.25           1359         159.00       661.74
 1183.78        2960.50           1362         188.00       788.16
 1183.82        2960.75           1366         247.00      1045.37
 1183.85        2961.00           1369         275.00      1167.43
 1183.88        2961.25           1372         302.00      1285.14
 1183.91        2961.50           1376         370.00      1581.59
 1183.94        2961.75           1379         619.00      2667.17
 1183.97        2962.00           1382        1417.00      6146.73
 1184.00        2962.25           1386        3240.00     14098.38
 1184.03        2962.50           1389        4630.00     20163.89
 1184.06        2962.75           1392        6032.00     26284.01
 1184.10        2963.00           1396        7942.00     34625.31
 1184.13        2963.25           1399        9462.00     41266.40
 1184.16        2963.50           1402       10806.00     47140.73
 1184.19        2963.75           1406       12848.00     56069.83
 1184.22        2964.00           1409       14384.00     62789.48
 1184.25        2964.25           1412       15982.00     69783.25
 1184.28        2964.50           1416       17735.00     77458.78
 1184.31        2964.75           1419       19495.00     85168.52
 1184.35        2965.00           1422       21023.00     91864.86
 1184.38        2965.25           1426       22988.00    100480.30
 1184.41        2965.50           1429       24382.00    106594.90
 1184.44        2965.75           1432       26015.00    113760.70
 1184.47        2966.00           1436       28193.00    123322.90
 1184.50        2966.25           1439       29109.00    127346.10
 1184.53        2966.50           1442       30538.00    133624.40
 1184.56        2966.75           1446       31610.00    138335.80
 1184.59        2967.00           1449       31868.00    139469.90
 1184.62        2967.25           1452       31781.00    139087.50
 1184.66        2967.50           1456       31831.00    139307.20
 1184.69        2967.75           1459       31846.00    139373.20
 1184.72        2968.00           1462       31492.00    137817.10
 1184.75        2968.25           1466       30390.00    132974.10
 1184.78        2968.50           1469       29277.00    128084.10
 1184.81        2968.75           1472       27700.00    121158.00
 1184.84        2969.00           1476       25977.00    113594.00
 1184.87        2969.25           1479       24467.00    106967.80
 1184.90        2969.50           1482       22989.00    100484.70
 1184.93        2969.75           1486       21027.00     91882.40
 1184.96        2970.00           1489       19614.00     85689.92
 1185.00        2970.25           1492       18269.00     79797.61
 1185.03        2970.50           1496       16291.00     71135.96
 1185.06        2970.75           1499       14696.00     64154.75
 1185.09        2971.00           1502       13292.00     58011.95
 1185.12        2971.25           1506       11181.00     48780.14
 1185.15        2971.50           1509        9711.00     42354.57
 1185.18        2971.75           1513        7718.00     33646.85
 1185.21        2972.00           1516        6331.00     27589.52
 1185.24        2972.25           1519        4917.00     21416.54
 1185.27        2972.50           1523        3020.00     13138.57
 1185.30        2972.75           1526        1692.00      7346.00
 1185.33        2973.00           1529         717.00      3094.45
 1185.37        2973.25           1533         396.00      1694.94
 1185.40        2973.50           1536         304.00      1293.86
 1185.43        2973.75           1539         235.00       993.05
 1185.46        2974.00           1543         200.00       840.47
 1185.49        2974.25           1546         142.00       587.63
 1185.52        2974.50           1549         106.00       430.69
 1185.55        2974.75           1553          73.00       286.84
 1185.58        2975.00           1556          69.00       269.40
 1185.61        2975.25           1559          64.00       247.60
 1185.64        2975.50           1563          59.00       225.81
 1185.67        2975.75           1566          47.00       173.50
 1185.70        2976.00           1569          48.00       177.86
 1185.73        2976.25           1573          56.00       212.73
 1185.77        2976.50           1576          61.00       234.53
 1185.80        2976.75           1579          52.00       195.29
 1185.83        2977.00           1583          58.00       221.45
 1185.86        2977.25           1586          62.00       238.89
 1185.89        2977.50           1590          57.00       217.09
 1185.92        2977.75           1593          55.00       208.37
 1185.95        2978.00           1596          63.00       243.25
 1185.98        2978.25           1600          56.00       212.73
 1186.01        2978.50           1603          55.00       208.37
 1186.04        2978.75           1606          59.00       225.81
 1186.07        2979.00           1610          56.00       212.73
 1186.10        2979.25           1613          56.00       212.73
 1186.14        2979.50           1616          57.00       217.09
 1186.17        2979.75           1620          56.00       212.73
 1186.20        2980.00           1623          54.00       204.01
 1186.23        2980.25           1626          56.00       212.73
 1186.26        2980.50           1630          52.00       195.29
 1186.29        2980.75           1633          55.00       208.37
 1186.32        2981.00           1637          56.00       212.73
 1186.35        2981.25           1640          56.00       212.73
 1186.38        2981.50           1643          57.00       217.09
 1186.41        2981.75           1647          47.00       173.50
 1186.44        2982.00           1650          57.00       217.09
 1186.47        2982.25           1653          46.00       169.14
 1186.50        2982.50           1657          50.00       186.57
 1186.53        2982.75           1660          64.00       247.60
 1186.56        2983.00           1663          62.00       238.89
 1186.59        2983.25           1667          54.00       204.01
 1186.62        2983.50           1670          59.00       225.81
 1186.65        2983.75           1673          57.00       217.09
 1186.69        2984.00           1677          52.00       195.29
HS scan finished at 19:46:54
end
