************************************************************
  HS Scan of (1) Internal mercury lamp
************************************************************
Integration time is 0.2294 seconds per sample
dh300318Manchester 53.47 2.23 2.804185pr1000
************************************************************
Dead Time -------------------------  3E-08 
Number of Cycles Used -------------  4 
Starting Wavelength (Angstroms) ---  2950 
Final Wavelength (Angstoms) -------  2984 
Wavelength Increment (Angstroms) --  .25 
Filter Wheel #1 Position ---------- (1) Ground quartz diffuser (ND=2.32)
Filter Wheel #2 Position ---------- (1) Neutral Density 0.494



************************************************************
HS scan start time = 02:13:49
Dark Count =  6 


Time (GMT)  Wavelength (Ang)  Step Number  Raw Counts  Counts/Second

  134.18        2950.00           1222          63.00       248.48
  134.24        2950.25           1226          63.00       248.48
  134.28        2950.50           1229          56.00       217.96
  134.31        2950.75           1232          65.00       257.19
  134.34        2951.00           1236          54.00       209.24
  134.37        2951.25           1239          54.00       209.24
  134.40        2951.50           1242          61.00       239.76
  134.43        2951.75           1246          60.00       235.40
  134.46        2952.00           1249          61.00       239.76
  134.49        2952.25           1252          59.00       231.04
  134.52        2952.50           1256          59.00       231.04
  134.55        2952.75           1259          55.00       213.60
  134.58        2953.00           1262          54.00       209.24
  134.61        2953.25           1266          62.00       244.12
  134.64        2953.50           1269          66.00       261.55
  134.68        2953.75           1272          53.00       204.88
  134.71        2954.00           1276          49.00       187.45
  134.74        2954.25           1279          56.00       217.96
  134.77        2954.50           1282          58.00       226.68
  134.80        2954.75           1286          56.00       217.96
  134.83        2955.00           1289          56.00       217.96
  134.86        2955.25           1292          62.00       244.12
  134.89        2955.50           1296          55.00       213.60
  134.92        2955.75           1299          56.00       217.96
  134.95        2956.00           1302          59.00       231.04
  134.98        2956.25           1306          57.00       222.32
  135.01        2956.50           1309          62.00       244.12
  135.04        2956.75           1312          56.00       217.96
  135.07        2957.00           1316          64.00       252.84
  135.10        2957.25           1319          58.00       226.68
  135.14        2957.50           1322          67.00       265.91
  135.17        2957.75           1326          62.00       244.12
  135.20        2958.00           1329          57.00       222.32
  135.23        2958.25           1332          60.00       235.40
  135.26        2958.50           1336          60.00       235.40
  135.29        2958.75           1339          64.00       252.84
  135.32        2959.00           1342          62.00       244.12
  135.35        2959.25           1346          63.00       248.48
  135.38        2959.50           1349          62.00       244.12
  135.41        2959.75           1352          64.00       252.84
  135.44        2960.00           1356          94.00       383.61
  135.47        2960.25           1359         131.00       544.91
  135.51        2960.50           1362         151.00       632.10
  135.54        2960.75           1366         189.00       797.75
  135.57        2961.00           1369         244.00      1037.52
  135.60        2961.25           1372         300.00      1281.65
  135.63        2961.50           1376         332.00      1421.16
  135.66        2961.75           1379         428.00      1839.68
  135.69        2962.00           1382         712.00      3077.88
  135.72        2962.25           1386        1983.00      8620.36
  135.75        2962.50           1389        3374.00     14688.25
  135.78        2962.75           1392        4893.00     21317.03
  135.81        2963.00           1396        6679.00     29114.35
  135.84        2963.25           1399        7913.00     34503.88
  135.88        2963.50           1402        9486.00     41376.52
  135.91        2963.75           1406       11472.00     50057.69
  135.94        2964.00           1409       12869.00     56166.93
  135.97        2964.25           1412       14569.00     63604.25
  136.00        2964.50           1416       16636.00     72651.63
  136.03        2964.75           1419       18289.00     79890.46
  136.06        2965.00           1422       19925.00     87057.94
  136.09        2965.25           1426       21787.00     95219.31
  136.12        2965.50           1429       23373.00    102174.10
  136.15        2965.75           1432       24812.00    108486.80
  136.19        2966.00           1436       26893.00    117620.10
  136.22        2966.25           1439       28316.00    123868.30
  136.25        2966.50           1442       29663.00    129785.10
  136.28        2966.75           1446       31428.00    137541.10
  136.31        2967.00           1449       31838.00    139343.30
  136.34        2967.25           1452       32158.00    140750.00
  136.37        2967.50           1456       32220.00    141022.60
  136.40        2967.75           1459       31969.00    139919.10
  136.43        2968.00           1462       31986.00    139993.90
  136.46        2968.25           1466       31358.00    137233.40
  136.50        2968.50           1469       30606.00    133928.50
  136.53        2968.75           1472       29260.00    128014.70
  136.56        2969.00           1476       27380.00    119758.20
  136.59        2969.25           1479       26035.00    113853.80
  136.62        2969.50           1482       24516.00    107188.10
  136.65        2969.75           1486       22631.00     98919.97
  136.68        2970.00           1489       21182.00     92567.08
  136.71        2970.25           1492       19866.00     86799.40
  136.74        2970.50           1496       17807.00     77779.37
  136.78        2970.75           1499       16295.00     71158.72
  136.81        2971.00           1502       14847.00     64820.80
  136.84        2971.25           1506       12760.00     55690.18
  136.87        2971.50           1509       11274.00     49191.99
  136.90        2971.75           1513        9379.00     40908.93
  136.93        2972.00           1516        7980.00     34796.55
  136.96        2972.25           1519        6608.00     28804.31
  136.99        2972.50           1523        4655.00     20278.25
  137.02        2972.75           1526        3294.00     14339.21
  137.06        2973.00           1529        1939.00      8428.46
  137.09        2973.25           1533         641.00      2768.32
  137.12        2973.50           1536         380.00      1630.42
  137.15        2973.75           1539         294.00      1255.50
  137.18        2974.00           1543         254.00      1081.12
  137.21        2974.25           1546         211.00       893.66
  137.24        2974.50           1549         166.00       697.49
  137.27        2974.75           1553         111.00       457.72
  137.30        2975.00           1556          89.00       361.82
  137.33        2975.25           1559          70.00       278.99
  137.36        2975.50           1563          62.00       244.12
  137.40        2975.75           1566          59.00       231.04
  137.43        2976.00           1569          57.00       222.32
  137.46        2976.25           1573          56.00       217.96
  137.49        2976.50           1576          54.00       209.24
  137.52        2976.75           1579          62.00       244.12
  137.55        2977.00           1583          58.00       226.68
  137.58        2977.25           1586          54.00       209.24
  137.61        2977.50           1590          48.00       183.09
  137.64        2977.75           1593          57.00       222.32
  137.67        2978.00           1596          60.00       235.40
  137.70        2978.25           1600          54.00       209.24
  137.73        2978.50           1603          53.00       204.88
  137.77        2978.75           1606          50.00       191.81
  137.80        2979.00           1610          55.00       213.60
  137.83        2979.25           1613          57.00       222.32
  137.86        2979.50           1616          58.00       226.68
  137.89        2979.75           1620          56.00       217.96
  137.92        2980.00           1623          53.00       204.88
  137.95        2980.25           1626          60.00       235.40
  137.98        2980.50           1630          45.00       170.01
  138.01        2980.75           1633          57.00       222.32
  138.04        2981.00           1637          55.00       213.60
  138.07        2981.25           1640          54.00       209.24
  138.10        2981.50           1643          52.00       200.52
  138.13        2981.75           1647          51.00       196.17
  138.17        2982.00           1650          48.00       183.09
  138.20        2982.25           1653          56.00       217.96
  138.23        2982.50           1657          52.00       200.52
  138.26        2982.75           1660          49.00       187.45
  138.29        2983.00           1663          42.00       156.93
  138.32        2983.25           1667          51.00       196.17
  138.35        2983.50           1670          56.00       217.96
  138.38        2983.75           1673          51.00       196.17
  138.41        2984.00           1677          50.00       191.81
HS scan finished at 02:18:38
end
************************************************************
  HS Scan of (1) Internal mercury lamp
************************************************************
Integration time is 0.2294 seconds per sample
dh300318Manchester 53.47 2.23 2.804185pr1000
************************************************************
Dead Time -------------------------  3E-08 
Number of Cycles Used -------------  4 
Starting Wavelength (Angstroms) ---  2950 
Final Wavelength (Angstoms) -------  2984 
Wavelength Increment (Angstroms) --  .25 
Filter Wheel #1 Position ---------- (1) Ground quartz diffuser (ND=2.32)
Filter Wheel #2 Position ---------- (1) Neutral Density 0.494



************************************************************
HS scan start time = 19:42:00
Dark Count =  5.7 


Time (GMT)  Wavelength (Ang)  Step Number  Raw Counts  Counts/Second

 1182.37        2950.00           1222          60.00       236.71
 1182.44        2950.25           1226          64.00       254.14
 1182.47        2950.50           1229          51.00       197.47
 1182.50        2950.75           1232          66.00       262.86
 1182.53        2951.00           1236          57.00       223.63
 1182.56        2951.25           1239          59.00       232.35
 1182.59        2951.50           1242          58.00       227.99
 1182.62        2951.75           1246          53.00       206.19
 1182.65        2952.00           1249          58.00       227.99
 1182.68        2952.25           1252          53.00       206.19
 1182.71        2952.50           1256          63.00       249.78
 1182.74        2952.75           1259          61.00       241.07
 1182.77        2953.00           1262          62.00       245.42
 1182.81        2953.25           1266          62.00       245.42
 1182.84        2953.50           1269          65.00       258.50
 1182.87        2953.75           1272          55.00       214.91
 1182.90        2954.00           1276          56.00       219.27
 1182.93        2954.25           1279          58.00       227.99
 1182.96        2954.50           1282          60.00       236.71
 1182.99        2954.75           1286          55.00       214.91
 1183.02        2955.00           1289          55.00       214.91
 1183.05        2955.25           1292          60.00       236.71
 1183.08        2955.50           1296          59.00       232.35
 1183.11        2955.75           1299          58.00       227.99
 1183.15        2956.00           1302          61.00       241.07
 1183.18        2956.25           1306          52.00       201.83
 1183.21        2956.50           1309          54.00       210.55
 1183.24        2956.75           1312          65.00       258.50
 1183.27        2957.00           1316          60.00       236.71
 1183.30        2957.25           1319          71.00       284.66
 1183.33        2957.50           1322          60.00       236.71
 1183.36        2957.75           1326          56.00       219.27
 1183.39        2958.00           1329          51.00       197.47
 1183.42        2958.25           1332          65.00       258.50
 1183.45        2958.50           1336          62.00       245.42
 1183.48        2958.75           1339          59.00       232.35
 1183.51        2959.00           1342          62.00       245.42
 1183.54        2959.25           1346          60.00       236.71
 1183.57        2959.50           1349          69.00       275.94
 1183.60        2959.75           1352          80.00       323.89
 1183.64        2960.00           1356         103.00       424.16
 1183.67        2960.25           1359         140.00       585.45
 1183.70        2960.50           1362         169.00       711.87
 1183.73        2960.75           1366         214.00       908.05
 1183.76        2961.00           1369         255.00      1086.78
 1183.79        2961.25           1372         290.00      1239.37
 1183.82        2961.50           1376         358.00      1535.82
 1183.85        2961.75           1379         486.00      2093.85
 1183.88        2962.00           1382        1046.00      4535.49
 1183.91        2962.25           1386        2589.00     11264.92
 1183.94        2962.50           1389        4091.00     17818.15
 1183.97        2962.75           1392        5475.00     23858.83
 1184.00        2963.00           1396        7497.00     32688.10
 1184.04        2963.25           1399        8910.00     38860.88
 1184.07        2963.50           1402       10468.00     45669.77
 1184.10        2963.75           1406       12395.00     54095.13
 1184.13        2964.00           1409       13884.00     60608.36
 1184.16        2964.25           1412       15376.00     67137.27
 1184.19        2964.50           1416       17403.00     76011.43
 1184.22        2964.75           1419       19054.00     83242.94
 1184.25        2965.00           1422       20473.00     89460.80
 1184.28        2965.25           1426       22419.00     97991.66
 1184.32        2965.50           1429       23785.00    103982.60
 1184.35        2965.75           1432       25297.00    110616.30
 1184.38        2966.00           1436       27269.00    119272.10
 1184.41        2966.25           1439       28426.00    124352.80
 1184.44        2966.50           1442       29964.00    131108.90
 1184.47        2966.75           1446       31351.00    137204.00
 1184.50        2967.00           1449       32020.00    140144.70
 1184.53        2967.25           1452       32052.00    140285.30
 1184.56        2967.50           1456       32262.00    141208.60
 1184.59        2967.75           1459       32189.00    140887.60
 1184.62        2968.00           1462       31939.00    139788.60
 1184.66        2968.25           1466       31275.00    136869.90
 1184.69        2968.50           1469       30026.00    131381.30
 1184.72        2968.75           1472       28784.00    125925.10
 1184.75        2969.00           1476       26808.00    117248.20
 1184.78        2969.25           1479       25377.00    110967.30
 1184.81        2969.50           1482       23930.00    104618.60
 1184.84        2969.75           1486       22108.00     96628.02
 1184.87        2970.00           1489       20535.00     89732.52
 1184.90        2970.25           1492       19111.00     83492.66
 1184.93        2970.50           1496       17149.00     74899.15
 1184.96        2970.75           1499       15466.00     67531.18
 1184.99        2971.00           1502       13971.00     60988.99
 1185.02        2971.25           1506       12057.00     52617.00
 1185.06        2971.50           1509       10456.00     45617.32
 1185.09        2971.75           1513        8650.00     37724.88
 1185.12        2972.00           1516        7163.00     31229.33
 1185.15        2972.25           1519        5753.00     25072.47
 1185.18        2972.50           1523        3825.00     16657.41
 1185.21        2972.75           1526        2427.00     10558.27
 1185.24        2973.00           1529        1082.00      4692.47
 1185.27        2973.25           1533         421.00      1810.47
 1185.30        2973.50           1536         325.00      1391.95
 1185.33        2973.75           1539         262.00      1117.30
 1185.36        2974.00           1543         232.00       986.52
 1185.39        2974.25           1546         182.00       768.54
 1185.42        2974.50           1549         155.00       650.84
 1185.46        2974.75           1553         102.00       419.80
 1185.49        2975.00           1556          78.00       315.17
 1185.52        2975.25           1559          65.00       258.50
 1185.55        2975.50           1563          57.00       223.63
 1185.58        2975.75           1566          48.00       184.40
 1185.61        2976.00           1569          57.00       223.63
 1185.64        2976.25           1573          64.00       254.14
 1185.67        2976.50           1576          55.00       214.91
 1185.70        2976.75           1579          62.00       245.42
 1185.73        2977.00           1583          54.00       210.55
 1185.76        2977.25           1586          58.00       227.99
 1185.79        2977.50           1590          52.00       201.83
 1185.82        2977.75           1593          54.00       210.55
 1185.86        2978.00           1596          59.00       232.35
 1185.89        2978.25           1600          58.00       227.99
 1185.92        2978.50           1603          58.00       227.99
 1185.95        2978.75           1606          53.00       206.19
 1185.98        2979.00           1610          56.00       219.27
 1186.01        2979.25           1613          61.00       241.07
 1186.04        2979.50           1616          59.00       232.35
 1186.07        2979.75           1620          53.00       206.19
 1186.10        2980.00           1623          53.00       206.19
 1186.13        2980.25           1626          55.00       214.91
 1186.16        2980.50           1630          61.00       241.07
 1186.19        2980.75           1633          52.00       201.83
 1186.22        2981.00           1637          57.00       223.63
 1186.26        2981.25           1640          53.00       206.19
 1186.29        2981.50           1643          52.00       201.83
 1186.32        2981.75           1647          52.00       201.83
 1186.35        2982.00           1650          54.00       210.55
 1186.38        2982.25           1653          53.00       206.19
 1186.41        2982.50           1657          55.00       214.91
 1186.44        2982.75           1660          55.00       214.91
 1186.47        2983.00           1663          56.00       219.27
 1186.50        2983.25           1667          51.00       197.47
 1186.53        2983.50           1670          46.00       175.68
 1186.56        2983.75           1673          52.00       201.83
 1186.59        2984.00           1677          54.00       210.55
HS scan finished at 19:46:49
end
