************************************************************
  HS Scan of (1) Internal mercury lamp
************************************************************
Integration time is 0.2294 seconds per sample
dh210319Manchester 53.47 2.23 2.804185pr1000
************************************************************
Dead Time -------------------------  3E-08 
Number of Cycles Used -------------  4 
Starting Wavelength (Angstroms) ---  2950 
Final Wavelength (Angstoms) -------  2984 
Wavelength Increment (Angstroms) --  .25 
Filter Wheel #1 Position ---------- (1) Ground quartz diffuser (ND=2.32)
Filter Wheel #2 Position ---------- (1) Neutral Density 0.494



************************************************************
HS scan start time = 03:00:23
Dark Count =  6.6 


Time (GMT)  Wavelength (Ang)  Step Number  Raw Counts  Counts/Second

  180.76        2950.00           1222          62.00       241.50
  180.82        2950.25           1226          50.00       189.19
  180.85        2950.50           1229          64.00       250.22
  180.88        2950.75           1232          63.00       245.86
  180.92        2951.00           1236          55.00       210.99
  180.95        2951.25           1239          64.00       250.22
  180.98        2951.50           1242          54.00       206.63
  181.01        2951.75           1246          49.00       184.83
  181.04        2952.00           1249          58.00       224.06
  181.07        2952.25           1252          61.00       237.14
  181.10        2952.50           1256          54.00       206.63
  181.13        2952.75           1259          57.00       219.71
  181.16        2953.00           1262          55.00       210.99
  181.19        2953.25           1266          50.00       189.19
  181.22        2953.50           1269          57.00       219.71
  181.25        2953.75           1272          63.00       245.86
  181.28        2954.00           1276          58.00       224.06
  181.31        2954.25           1279          49.00       184.83
  181.34        2954.50           1282          59.00       228.42
  181.38        2954.75           1286          49.00       184.83
  181.41        2955.00           1289          56.00       215.35
  181.44        2955.25           1292          48.00       180.47
  181.47        2955.50           1296          53.00       202.27
  181.50        2955.75           1299          50.00       189.19
  181.53        2956.00           1302          54.00       206.63
  181.56        2956.25           1306          45.00       167.39
  181.59        2956.50           1309          60.00       232.78
  181.62        2956.75           1312          47.00       176.11
  181.65        2957.00           1316          54.00       206.63
  181.68        2957.25           1319          49.00       184.83
  181.71        2957.50           1322          59.00       228.42
  181.74        2957.75           1326          49.00       184.83
  181.78        2958.00           1329          52.00       197.91
  181.81        2958.25           1332          46.00       171.75
  181.84        2958.50           1336          50.00       189.19
  181.87        2958.75           1339          55.00       210.99
  181.90        2959.00           1342          57.00       219.71
  181.93        2959.25           1346          60.00       232.78
  181.96        2959.50           1349          64.00       250.22
  181.99        2959.75           1352          67.00       263.30
  182.02        2960.00           1356          90.00       363.56
  182.05        2960.25           1359         106.00       433.31
  182.08        2960.50           1362         134.00       555.37
  182.11        2960.75           1366         188.00       790.78
  182.14        2961.00           1369         204.00       860.53
  182.17        2961.25           1372         230.00       973.87
  182.21        2961.50           1376         293.00      1248.52
  182.24        2961.75           1379         328.00      1401.11
  182.27        2962.00           1382         549.00      2364.60
  182.30        2962.25           1386        1476.00      6406.64
  182.33        2962.50           1389        2644.00     11500.92
  182.36        2962.75           1392        3812.00     16596.75
  182.39        2963.00           1396        5245.00     22850.88
  182.42        2963.25           1399        6610.00     28810.42
  182.45        2963.50           1402        7752.00     33797.99
  182.48        2963.75           1406        9344.00     40753.37
  182.52        2964.00           1409       10721.00     46771.78
  182.55        2964.25           1412       11940.00     52101.43
  182.58        2964.50           1416       13703.00     59812.55
  182.61        2964.75           1419       15089.00     65877.24
  182.64        2965.00           1422       16149.00     70516.95
  182.67        2965.25           1426       17863.00     78022.00
  182.70        2965.50           1429       19189.00     83830.45
  182.73        2965.75           1432       20294.00     88672.37
  182.76        2966.00           1436       21978.00     96054.09
  182.80        2966.25           1439       23086.00    100912.70
  182.83        2966.50           1442       24157.00    105610.50
  182.86        2966.75           1446       25576.00    111836.70
  182.89        2967.00           1449       26196.00    114557.80
  182.92        2967.25           1452       26281.00    114930.90
  182.95        2967.50           1456       26480.00    115804.40
  182.98        2967.75           1459       26295.00    114992.40
  183.01        2968.00           1462       26379.00    115361.10
  183.04        2968.25           1466       25932.00    113399.10
  183.08        2968.50           1469       25036.00    109467.00
  183.11        2968.75           1472       24065.00    105206.90
  183.14        2969.00           1476       22587.00     98724.41
  183.17        2969.25           1479       21197.00     92630.21
  183.20        2969.50           1482       20190.00     88216.59
  183.23        2969.75           1486       18461.00     80641.25
  183.26        2970.00           1489       17336.00     75714.08
  183.29        2970.25           1492       16084.00     70232.40
  183.32        2970.50           1496       14531.00     63435.35
  183.35        2970.75           1499       13298.00     58040.82
  183.39        2971.00           1502       12074.00     52687.40
  183.42        2971.25           1506       10429.00     45495.36
  183.45        2971.50           1509        9230.00     40255.22
  183.48        2971.75           1513        7640.00     33308.77
  183.51        2972.00           1516        6559.00     28587.72
  183.54        2972.25           1519        5245.00     22850.88
  183.57        2972.50           1523        3650.00     15889.88
  183.60        2972.75           1526        2518.00     10951.29
  183.63        2973.00           1529        1328.00      5761.24
  183.67        2973.25           1533         453.00      1946.06
  183.70        2973.50           1536         282.00      1200.57
  183.73        2973.75           1539         232.00       982.59
  183.76        2974.00           1543         213.00       899.76
  183.79        2974.25           1546         143.00       594.61
  183.82        2974.50           1549         120.00       494.34
  183.85        2974.75           1553          85.00       341.76
  183.88        2975.00           1556          78.00       311.25
  183.91        2975.25           1559          73.00       289.45
  183.94        2975.50           1563          49.00       184.83
  183.98        2975.75           1566          55.00       210.99
  184.01        2976.00           1569          53.00       202.27
  184.04        2976.25           1573          58.00       224.06
  184.07        2976.50           1576          53.00       202.27
  184.10        2976.75           1579          48.00       180.47
  184.13        2977.00           1583          56.00       215.35
  184.16        2977.25           1586          51.00       193.55
  184.19        2977.50           1590          42.00       154.32
  184.22        2977.75           1593          58.00       224.06
  184.25        2978.00           1596          58.00       224.06
  184.28        2978.25           1600          58.00       224.06
  184.31        2978.50           1603          52.00       197.91
  184.34        2978.75           1606          49.00       184.83
  184.38        2979.00           1610          53.00       202.27
  184.41        2979.25           1613          53.00       202.27
  184.44        2979.50           1616          49.00       184.83
  184.47        2979.75           1620          55.00       210.99
  184.50        2980.00           1623          47.00       176.11
  184.53        2980.25           1626          53.00       202.27
  184.56        2980.50           1630          48.00       180.47
  184.59        2980.75           1633          48.00       180.47
  184.62        2981.00           1637          48.00       180.47
  184.65        2981.25           1640          49.00       184.83
  184.68        2981.50           1643          48.00       180.47
  184.71        2981.75           1647          55.00       210.99
  184.74        2982.00           1650          54.00       206.63
  184.77        2982.25           1653          55.00       210.99
  184.81        2982.50           1657          51.00       193.55
  184.84        2982.75           1660          48.00       180.47
  184.87        2983.00           1663          42.00       154.32
  184.90        2983.25           1667          50.00       189.19
  184.93        2983.50           1670          58.00       224.06
  184.96        2983.75           1673          40.00       145.60
  184.99        2984.00           1677          53.00       202.27
HS scan finished at 03:05:12
end
************************************************************
  HS Scan of (1) Internal mercury lamp
************************************************************
Integration time is 0.2294 seconds per sample
dh210319Manchester 53.47 2.23 2.804185pr1000
************************************************************
Dead Time -------------------------  3E-08 
Number of Cycles Used -------------  4 
Starting Wavelength (Angstroms) ---  2950 
Final Wavelength (Angstoms) -------  2984 
Wavelength Increment (Angstroms) --  .25 
Filter Wheel #1 Position ---------- (1) Ground quartz diffuser (ND=2.32)
Filter Wheel #2 Position ---------- (1) Neutral Density 0.494



************************************************************
HS scan start time = 19:12:07
Dark Count =  4.4 


Time (GMT)  Wavelength (Ang)  Step Number  Raw Counts  Counts/Second

 1152.49        2950.00           1222          53.00       211.86
 1152.56        2950.25           1226          56.00       224.94
 1152.59        2950.50           1229          58.00       233.65
 1152.62        2950.75           1232          52.00       207.50
 1152.65        2951.00           1236          64.00       259.81
 1152.68        2951.25           1239          63.00       255.45
 1152.71        2951.50           1242          54.00       216.22
 1152.74        2951.75           1246          55.00       220.58
 1152.77        2952.00           1249          55.00       220.58
 1152.80        2952.25           1252          59.00       238.01
 1152.83        2952.50           1256          50.00       198.78
 1152.86        2952.75           1259          55.00       220.58
 1152.90        2953.00           1262          57.00       229.30
 1152.93        2953.25           1266          67.00       272.89
 1152.96        2953.50           1269          49.00       194.42
 1152.99        2953.75           1272          53.00       211.86
 1153.02        2954.00           1276          49.00       194.42
 1153.05        2954.25           1279          61.00       246.73
 1153.08        2954.50           1282          58.00       233.65
 1153.11        2954.75           1286          56.00       224.94
 1153.14        2955.00           1289          55.00       220.58
 1153.17        2955.25           1292          54.00       216.22
 1153.20        2955.50           1296          54.00       216.22
 1153.23        2955.75           1299          53.00       211.86
 1153.27        2956.00           1302          56.00       224.94
 1153.30        2956.25           1306          51.00       203.14
 1153.33        2956.50           1309          54.00       216.22
 1153.36        2956.75           1312          51.00       203.14
 1153.39        2957.00           1316          51.00       203.14
 1153.42        2957.25           1319          56.00       224.94
 1153.45        2957.50           1322          58.00       233.65
 1153.48        2957.75           1326          50.00       198.78
 1153.51        2958.00           1329          61.00       246.73
 1153.54        2958.25           1332          61.00       246.73
 1153.58        2958.50           1336          61.00       246.73
 1153.61        2958.75           1339          56.00       224.94
 1153.64        2959.00           1342          57.00       229.30
 1153.67        2959.25           1346          53.00       211.86
 1153.70        2959.50           1349          60.00       242.37
 1153.73        2959.75           1352          74.00       303.40
 1153.76        2960.00           1356          92.00       381.87
 1153.79        2960.25           1359         106.00       442.90
 1153.82        2960.50           1362         139.00       586.76
 1153.85        2960.75           1366         161.00       682.66
 1153.88        2961.00           1369         205.00       874.48
 1153.91        2961.25           1372         240.00      1027.06
 1153.95        2961.50           1376         289.00      1240.67
 1153.98        2961.75           1379         396.00      1707.15
 1154.01        2962.00           1382         868.00      3765.03
 1154.04        2962.25           1386        2241.00      9752.64
 1154.07        2962.50           1389        3387.00     14751.95
 1154.10        2962.75           1392        4648.00     20254.68
 1154.13        2963.00           1396        6082.00     26514.55
 1154.16        2963.25           1399        7088.00     30907.46
 1154.19        2963.50           1402        8397.00     36625.22
 1154.22        2963.75           1406        9900.00     43192.82
 1154.25        2964.00           1409       11230.00     49006.61
 1154.28        2964.25           1412       12463.00     54398.21
 1154.31        2964.50           1416       14051.00     61344.70
 1154.34        2964.75           1419       15342.00     66994.15
 1154.38        2965.00           1422       16568.00     72360.93
 1154.41        2965.25           1426       18191.00     79468.23
 1154.44        2965.50           1429       19456.00     85009.90
 1154.47        2965.75           1432       20645.00     90220.31
 1154.50        2966.00           1436       22512.00     98405.16
 1154.53        2966.25           1439       23366.00    102150.40
 1154.56        2966.50           1442       24548.00    107335.50
 1154.59        2966.75           1446       25963.00    113544.80
 1154.62        2967.00           1449       26255.00    114826.40
 1154.66        2967.25           1452       26374.00    115348.80
 1154.69        2967.50           1456       26355.00    115265.40
 1154.72        2967.75           1459       26273.00    114905.50
 1154.75        2968.00           1462       26159.00    114405.10
 1154.78        2968.25           1466       25586.00    111890.20
 1154.81        2968.50           1469       24579.00    107471.50
 1154.84        2968.75           1472       23576.00    103071.50
 1154.87        2969.00           1476       21999.00     96155.79
 1154.90        2969.25           1479       20786.00     90838.31
 1154.93        2969.50           1482       19566.00     85491.86
 1154.96        2969.75           1486       18098.00     79060.88
 1155.00        2970.00           1489       16823.00     73477.41
 1155.03        2970.25           1492       15677.00     68460.43
 1155.06        2970.50           1496       14117.00     61633.48
 1155.09        2970.75           1499       12834.00     56020.84
 1155.12        2971.00           1502       11501.00     50191.48
 1155.15        2971.25           1506        9855.00     42996.14
 1155.18        2971.50           1509        8623.00     37612.60
 1155.21        2971.75           1513        6998.00     30514.41
 1155.24        2972.00           1516        5807.00     25313.90
 1155.27        2972.25           1519        4569.00     19909.89
 1155.30        2972.50           1523        2954.00     12862.85
 1155.34        2972.75           1526        1863.00      8103.98
 1155.37        2973.00           1529         911.00      3952.52
 1155.40        2973.25           1533         383.00      1650.47
 1155.43        2973.50           1536         262.00      1122.97
 1155.46        2973.75           1539         229.00       979.10
 1155.49        2974.00           1543         200.00       852.68
 1155.52        2974.25           1546         152.00       643.43
 1155.55        2974.50           1549         126.00       530.09
 1155.58        2974.75           1553          90.00       373.15
 1155.61        2975.00           1556          68.00       277.25
 1155.64        2975.25           1559          61.00       246.73
 1155.67        2975.50           1563          55.00       220.58
 1155.71        2975.75           1566          57.00       229.30
 1155.74        2976.00           1569          61.00       246.73
 1155.77        2976.25           1573          55.00       220.58
 1155.80        2976.50           1576          49.00       194.42
 1155.83        2976.75           1579          50.00       198.78
 1155.86        2977.00           1583          51.00       203.14
 1155.89        2977.25           1586          46.00       181.34
 1155.92        2977.50           1590          52.00       207.50
 1155.95        2977.75           1593          52.00       207.50
 1155.99        2978.00           1596          45.00       176.98
 1156.02        2978.25           1600          48.00       190.06
 1156.05        2978.50           1603          51.00       203.14
 1156.08        2978.75           1606          57.00       229.30
 1156.11        2979.00           1610          56.00       224.94
 1156.14        2979.25           1613          47.00       185.70
 1156.17        2979.50           1616          56.00       224.94
 1156.20        2979.75           1620          51.00       203.14
 1156.23        2980.00           1623          54.00       216.22
 1156.26        2980.25           1626          46.00       181.34
 1156.29        2980.50           1630          49.00       194.42
 1156.32        2980.75           1633          52.00       207.50
 1156.36        2981.00           1637          54.00       216.22
 1156.39        2981.25           1640          51.00       203.14
 1156.42        2981.50           1643          48.00       190.06
 1156.45        2981.75           1647          48.00       190.06
 1156.48        2982.00           1650          49.00       194.42
 1156.51        2982.25           1653          54.00       216.22
 1156.54        2982.50           1657          51.00       203.14
 1156.57        2982.75           1660          46.00       181.34
 1156.60        2983.00           1663          50.00       198.78
 1156.63        2983.25           1667          55.00       220.58
 1156.66        2983.50           1670          50.00       198.78
 1156.69        2983.75           1673          54.00       216.22
 1156.73        2984.00           1677          50.00       198.78
HS scan finished at 19:16:56
end
