************************************************************
  HS Scan of (1) Internal mercury lamp
************************************************************
Integration time is 0.2294 seconds per sample
dh230319Manchester 53.47 2.23 2.804185pr1000
************************************************************
Dead Time -------------------------  3E-08 
Number of Cycles Used -------------  4 
Starting Wavelength (Angstroms) ---  2950 
Final Wavelength (Angstoms) -------  2984 
Wavelength Increment (Angstroms) --  .25 
Filter Wheel #1 Position ---------- (1) Ground quartz diffuser (ND=2.32)
Filter Wheel #2 Position ---------- (1) Neutral Density 0.494



************************************************************
HS scan start time = 02:51:43
Dark Count =  5.6 


Time (GMT)  Wavelength (Ang)  Step Number  Raw Counts  Counts/Second

  172.08        2950.00           1222          56.00       219.71
  172.15        2950.25           1226          52.00       202.27
  172.18        2950.50           1229          57.00       224.06
  172.21        2950.75           1232          57.00       224.06
  172.24        2951.00           1236          53.00       206.63
  172.28        2951.25           1239          55.00       215.35
  172.31        2951.50           1242          54.00       210.99
  172.34        2951.75           1246          52.00       202.27
  172.37        2952.00           1249          54.00       210.99
  172.40        2952.25           1252          56.00       219.71
  172.43        2952.50           1256          58.00       228.42
  172.46        2952.75           1259          61.00       241.50
  172.49        2953.00           1262          60.00       237.14
  172.52        2953.25           1266          57.00       224.06
  172.55        2953.50           1269          63.00       250.22
  172.58        2953.75           1272          58.00       228.42
  172.61        2954.00           1276          53.00       206.63
  172.64        2954.25           1279          58.00       228.42
  172.67        2954.50           1282          52.00       202.27
  172.70        2954.75           1286          55.00       215.35
  172.74        2955.00           1289          53.00       206.63
  172.77        2955.25           1292          52.00       202.27
  172.80        2955.50           1296          54.00       210.99
  172.83        2955.75           1299          58.00       228.42
  172.86        2956.00           1302          55.00       215.35
  172.89        2956.25           1306          53.00       206.63
  172.92        2956.50           1309          56.00       219.71
  172.95        2956.75           1312          61.00       241.50
  172.98        2957.00           1316          56.00       219.71
  173.02        2957.25           1319          50.00       193.55
  173.05        2957.50           1322          57.00       224.06
  173.08        2957.75           1326          52.00       202.27
  173.11        2958.00           1329          51.00       197.91
  173.14        2958.25           1332          56.00       219.71
  173.17        2958.50           1336          55.00       215.35
  173.20        2958.75           1339          46.00       176.11
  173.23        2959.00           1342          63.00       250.22
  173.26        2959.25           1346          53.00       206.63
  173.29        2959.50           1349          59.00       232.78
  173.32        2959.75           1352          65.00       258.94
  173.35        2960.00           1356          96.00       394.08
  173.38        2960.25           1359         102.00       420.23
  173.42        2960.50           1362         133.00       555.37
  173.45        2960.75           1366         185.00       782.06
  173.48        2961.00           1369         213.00       904.12
  173.51        2961.25           1372         241.00      1026.19
  173.54        2961.50           1376         321.00      1374.95
  173.57        2961.75           1379         446.00      1919.90
  173.60        2962.00           1382         961.00      4165.30
  173.63        2962.25           1386        2276.00      9900.06
  173.66        2962.50           1389        3479.00     15148.12
  173.69        2962.75           1392        4572.00     19917.74
  173.72        2963.00           1396        6102.00     26596.63
  173.75        2963.25           1399        7286.00     31766.97
  173.79        2963.50           1402        8499.00     37065.61
  173.82        2963.75           1406       10180.00     44411.36
  173.85        2964.00           1409       11475.00     50072.55
  173.88        2964.25           1412       12802.00     55875.63
  173.91        2964.50           1416       14411.00     62914.63
  173.94        2964.75           1419       15652.00     68345.75
  173.97        2965.00           1422       16910.00     73853.07
  174.00        2965.25           1426       18683.00     81618.09
  174.03        2965.50           1429       19957.00     87199.91
  174.07        2965.75           1432       20871.00     91205.62
  174.10        2966.00           1436       22426.00     98022.81
  174.13        2966.25           1439       23749.00    103825.10
  174.16        2966.50           1442       24839.00    108607.00
  174.19        2966.75           1446       26218.00    114658.80
  174.22        2967.00           1449       26274.00    114904.60
  174.25        2967.25           1452       26506.00    115922.90
  174.28        2967.50           1456       26307.00    115049.40
  174.31        2967.75           1459       26255.00    114821.20
  174.35        2968.00           1462       26092.00    114105.70
  174.38        2968.25           1466       25388.00    111016.00
  174.41        2968.50           1469       24542.00    107303.90
  174.44        2968.75           1472       23446.00    102496.00
  174.47        2969.00           1476       21832.00     95418.34
  174.50        2969.25           1479       20720.00     90543.78
  174.53        2969.50           1482       19566.00     85486.61
  174.56        2969.75           1486       17715.00     77378.19
  174.59        2970.00           1489       16590.00     72452.00
  174.63        2970.25           1492       15422.00     67339.05
  174.66        2970.50           1496       13874.00     60565.05
  174.69        2970.75           1499       12559.00     54812.82
  174.72        2971.00           1502       11327.00     49425.46
  174.75        2971.25           1506        9763.00     42588.82
  174.78        2971.50           1509        8450.00     36851.53
  174.81        2971.75           1513        6813.00     29701.26
  174.84        2972.00           1516        5664.00     24684.36
  174.87        2972.25           1519        4542.00     19786.81
  174.91        2972.50           1523        2913.00     12678.75
  174.94        2972.75           1526        1783.00      7749.84
  174.97        2973.00           1529         826.00      3576.67
  175.00        2973.25           1533         356.00      1527.53
  175.03        2973.50           1536         297.00      1270.32
  175.06        2973.75           1539         242.00      1030.55
  175.09        2974.00           1543         194.00       821.29
  175.12        2974.25           1546         154.00       646.92
  175.15        2974.50           1549         121.00       503.06
  175.19        2974.75           1553          96.00       394.08
  175.22        2975.00           1556          71.00       285.09
  175.25        2975.25           1559          60.00       237.14
  175.28        2975.50           1563          49.00       189.19
  175.31        2975.75           1566          54.00       210.99
  175.34        2976.00           1569          50.00       193.55
  175.37        2976.25           1573          59.00       232.78
  175.40        2976.50           1576          50.00       193.55
  175.43        2976.75           1579          60.00       237.14
  175.46        2977.00           1583          64.00       254.58
  175.50        2977.25           1586          43.00       163.03
  175.53        2977.50           1590          53.00       206.63
  175.56        2977.75           1593          53.00       206.63
  175.59        2978.00           1596          55.00       215.35
  175.62        2978.25           1600          51.00       197.91
  175.65        2978.50           1603          51.00       197.91
  175.68        2978.75           1606          54.00       210.99
  175.71        2979.00           1610          49.00       189.19
  175.74        2979.25           1613          55.00       215.35
  175.77        2979.50           1616          51.00       197.91
  175.81        2979.75           1620          57.00       224.06
  175.84        2980.00           1623          47.00       180.47
  175.87        2980.25           1626          57.00       224.06
  175.90        2980.50           1630          51.00       197.91
  175.93        2980.75           1633          53.00       206.63
  175.96        2981.00           1637          46.00       176.11
  175.99        2981.25           1640          50.00       193.55
  176.02        2981.50           1643          52.00       202.27
  176.05        2981.75           1647          53.00       206.63
  176.08        2982.00           1650          46.00       176.11
  176.12        2982.25           1653          52.00       202.27
  176.15        2982.50           1657          49.00       189.19
  176.18        2982.75           1660          45.00       171.75
  176.21        2983.00           1663          46.00       176.11
  176.24        2983.25           1667          47.00       180.47
  176.27        2983.50           1670          42.00       158.68
  176.30        2983.75           1673          49.00       189.19
  176.33        2984.00           1677          51.00       197.91
HS scan finished at 02:56:33
end
************************************************************
  HS Scan of (1) Internal mercury lamp
************************************************************
Integration time is 0.2294 seconds per sample
dh230319Manchester 53.47 2.23 2.804185pr1000
************************************************************
Dead Time -------------------------  3E-08 
Number of Cycles Used -------------  4 
Starting Wavelength (Angstroms) ---  2950 
Final Wavelength (Angstoms) -------  2984 
Wavelength Increment (Angstroms) --  .25 
Filter Wheel #1 Position ---------- (1) Ground quartz diffuser (ND=2.32)
Filter Wheel #2 Position ---------- (1) Neutral Density 0.494



************************************************************
HS scan start time = 19:42:07
Dark Count =  6.4 


Time (GMT)  Wavelength (Ang)  Step Number  Raw Counts  Counts/Second

 1182.48        2950.00           1222          58.00       224.94
 1182.55        2950.25           1226          57.00       220.58
 1182.58        2950.50           1229          55.00       211.86
 1182.61        2950.75           1232          49.00       185.70
 1182.64        2951.00           1236          56.00       216.22
 1182.67        2951.25           1239          50.00       190.06
 1182.70        2951.50           1242          55.00       211.86
 1182.73        2951.75           1246          54.00       207.50
 1182.76        2952.00           1249          47.00       176.98
 1182.79        2952.25           1252          59.00       229.30
 1182.82        2952.50           1256          52.00       198.78
 1182.85        2952.75           1259          56.00       216.22
 1182.89        2953.00           1262          54.00       207.50
 1182.92        2953.25           1266          53.00       203.14
 1182.95        2953.50           1269          55.00       211.86
 1182.98        2953.75           1272          51.00       194.42
 1183.01        2954.00           1276          53.00       203.14
 1183.04        2954.25           1279          48.00       181.34
 1183.07        2954.50           1282          59.00       229.30
 1183.10        2954.75           1286          57.00       220.58
 1183.13        2955.00           1289          52.00       198.78
 1183.16        2955.25           1292          56.00       216.22
 1183.19        2955.50           1296          58.00       224.94
 1183.22        2955.75           1299          51.00       194.42
 1183.26        2956.00           1302          50.00       190.06
 1183.29        2956.25           1306          57.00       220.58
 1183.32        2956.50           1309          63.00       246.73
 1183.35        2956.75           1312          53.00       203.14
 1183.38        2957.00           1316          54.00       207.50
 1183.41        2957.25           1319          55.00       211.86
 1183.44        2957.50           1322          54.00       207.50
 1183.47        2957.75           1326          56.00       216.22
 1183.50        2958.00           1329          53.00       203.14
 1183.53        2958.25           1332          59.00       229.30
 1183.57        2958.50           1336          54.00       207.50
 1183.60        2958.75           1339          56.00       216.22
 1183.63        2959.00           1342          49.00       185.70
 1183.66        2959.25           1346          58.00       224.94
 1183.69        2959.50           1349          60.00       233.65
 1183.72        2959.75           1352          70.00       277.25
 1183.75        2960.00           1356          97.00       394.95
 1183.78        2960.25           1359         112.00       460.34
 1183.81        2960.50           1362         138.00       573.68
 1183.84        2960.75           1366         196.00       826.52
 1183.88        2961.00           1369         202.00       852.68
 1183.91        2961.25           1372         254.00      1079.37
 1183.94        2961.50           1376         308.00      1314.79
 1183.97        2961.75           1379         445.00      1912.05
 1184.00        2962.00           1382        1073.00      4650.17
 1184.03        2962.25           1386        2519.00     10956.52
 1184.06        2962.50           1389        3700.00     16108.92
 1184.09        2962.75           1392        4833.00     21053.40
 1184.12        2963.00           1396        6425.00     28003.47
 1184.15        2963.25           1399        7558.00     32951.48
 1184.18        2963.50           1402        8818.00     38455.85
 1184.22        2963.75           1406       10442.00     45553.06
 1184.25        2964.00           1409       11694.00     51026.62
 1184.28        2964.25           1412       12957.00     56550.08
 1184.31        2964.50           1416       14622.00     63834.42
 1184.34        2964.75           1419       15818.00     69068.86
 1184.37        2965.00           1422       17009.00     74283.06
 1184.40        2965.25           1426       18720.00     81776.66
 1184.43        2965.50           1429       20074.00     87709.12
 1184.46        2965.75           1432       21202.00     92652.99
 1184.49        2966.00           1436       22721.00     99312.88
 1184.53        2966.25           1439       23797.00    104032.10
 1184.56        2966.50           1442       25086.00    109687.30
 1184.59        2966.75           1446       26143.00    114326.10
 1184.62        2967.00           1449       26225.00    114686.00
 1184.65        2967.25           1452       26272.00    114892.30
 1184.68        2967.50           1456       26131.00    114273.40
 1184.71        2967.75           1459       26173.00    114457.70
 1184.74        2968.00           1462       26052.00    113926.70
 1184.77        2968.25           1466       25108.00    109783.80
 1184.80        2968.50           1469       23888.00    104431.30
 1184.84        2968.75           1472       22704.00     99238.33
 1184.87        2969.00           1476       21079.00     92113.83
 1184.90        2969.25           1479       20036.00     87542.60
 1184.93        2969.50           1482       18810.00     82170.93
 1184.96        2969.75           1486       17285.00     75491.62
 1184.99        2970.00           1489       16229.00     70868.03
 1185.02        2970.25           1492       15008.00     65523.62
 1185.05        2970.50           1496       13492.00     58890.35
 1185.08        2970.75           1499       12206.00     53265.52
 1185.11        2971.00           1502       10983.00     47918.01
 1185.15        2971.25           1506        9334.00     40710.54
 1185.18        2971.50           1509        8039.00     35052.54
 1185.21        2971.75           1513        6508.00     28365.89
 1185.24        2972.00           1516        5262.00     22925.96
 1185.27        2972.25           1519        4101.00     17858.74
 1185.30        2972.50           1523        2545.00     11069.94
 1185.33        2972.75           1526        1425.00      6185.11
 1185.36        2973.00           1529         621.00      2679.38
 1185.39        2973.25           1533         335.00      1432.49
 1185.43        2973.50           1536         261.00      1109.89
 1185.46        2973.75           1539         224.00       948.59
 1185.49        2974.00           1543         200.00       843.96
 1185.52        2974.25           1546         149.00       621.63
 1185.55        2974.50           1549         119.00       490.85
 1185.58        2974.75           1553          89.00       360.07
 1185.61        2975.00           1556          73.00       290.33
 1185.64        2975.25           1559          64.00       251.09
 1185.67        2975.50           1563          47.00       176.98
 1185.70        2975.75           1566          56.00       216.22
 1185.73        2976.00           1569          48.00       181.34
 1185.77        2976.25           1573          53.00       203.14
 1185.80        2976.50           1576          48.00       181.34
 1185.83        2976.75           1579          55.00       211.86
 1185.86        2977.00           1583          47.00       176.98
 1185.89        2977.25           1586          52.00       198.78
 1185.92        2977.50           1590          56.00       216.22
 1185.95        2977.75           1593          55.00       211.86
 1185.98        2978.00           1596          50.00       190.06
 1186.01        2978.25           1600          48.00       181.34
 1186.04        2978.50           1603          54.00       207.50
 1186.07        2978.75           1606          51.00       194.42
 1186.10        2979.00           1610          45.00       168.27
 1186.14        2979.25           1613          54.00       207.50
 1186.17        2979.50           1616          52.00       198.78
 1186.20        2979.75           1620          52.00       198.78
 1186.23        2980.00           1623          62.00       242.37
 1186.26        2980.25           1626          45.00       168.27
 1186.29        2980.50           1630          50.00       190.06
 1186.32        2980.75           1633          53.00       203.14
 1186.35        2981.00           1637          48.00       181.34
 1186.38        2981.25           1640          51.00       194.42
 1186.41        2981.50           1643          54.00       207.50
 1186.44        2981.75           1647          44.00       163.91
 1186.47        2982.00           1650          50.00       190.06
 1186.50        2982.25           1653          51.00       194.42
 1186.53        2982.50           1657          48.00       181.34
 1186.57        2982.75           1660          61.00       238.01
 1186.60        2983.00           1663          51.00       194.42
 1186.63        2983.25           1667          52.00       198.78
 1186.66        2983.50           1670          62.00       242.37
 1186.69        2983.75           1673          44.00       163.91
 1186.72        2984.00           1677          50.00       190.06
HS scan finished at 19:46:56
end
