************************************************************
  HS Scan of (1) Internal mercury lamp
************************************************************
Integration time is 0.2294 seconds per sample
dh270318Manchester 53.47 2.23 2.804185pr1000
************************************************************
Dead Time -------------------------  3E-08 
Number of Cycles Used -------------  4 
Starting Wavelength (Angstroms) ---  2950 
Final Wavelength (Angstoms) -------  2984 
Wavelength Increment (Angstroms) --  .25 
Filter Wheel #1 Position ---------- (1) Ground quartz diffuser (ND=2.32)
Filter Wheel #2 Position ---------- (1) Neutral Density 0.494



************************************************************
HS scan start time = 02:30:53
Dark Count =  7.6 


Time (GMT)  Wavelength (Ang)  Step Number  Raw Counts  Counts/Second

  151.26        2950.00           1222          57.00       215.35
  151.32        2950.25           1226          56.00       210.99
  151.35        2950.50           1229          64.00       245.86
  151.38        2950.75           1232          63.00       241.50
  151.41        2951.00           1236          56.00       210.99
  151.44        2951.25           1239          52.00       193.55
  151.48        2951.50           1242          57.00       215.35
  151.51        2951.75           1246          64.00       245.86
  151.54        2952.00           1249          57.00       215.35
  151.57        2952.25           1252          52.00       193.55
  151.60        2952.50           1256          61.00       232.78
  151.63        2952.75           1259          58.00       219.71
  151.66        2953.00           1262          68.00       263.30
  151.69        2953.25           1266          58.00       219.71
  151.72        2953.50           1269          60.00       228.42
  151.75        2953.75           1272          63.00       241.50
  151.78        2954.00           1276          60.00       228.42
  151.81        2954.25           1279          51.00       189.19
  151.85        2954.50           1282          59.00       224.06
  151.88        2954.75           1286          56.00       210.99
  151.91        2955.00           1289          67.00       258.94
  151.94        2955.25           1292          66.00       254.58
  151.97        2955.50           1296          57.00       215.35
  152.00        2955.75           1299          62.00       237.14
  152.03        2956.00           1302          66.00       254.58
  152.06        2956.25           1306          53.00       197.91
  152.09        2956.50           1309          56.00       210.99
  152.12        2956.75           1312          65.00       250.22
  152.15        2957.00           1316          52.00       193.55
  152.18        2957.25           1319          61.00       232.78
  152.21        2957.50           1322          48.00       176.11
  152.25        2957.75           1326          62.00       237.14
  152.28        2958.00           1329          58.00       219.71
  152.31        2958.25           1332          54.00       202.27
  152.34        2958.50           1336          52.00       193.55
  152.37        2958.75           1339          52.00       193.55
  152.40        2959.00           1342          52.00       193.55
  152.43        2959.25           1346          69.00       267.66
  152.46        2959.50           1349          68.00       263.30
  152.49        2959.75           1352          67.00       258.94
  152.52        2960.00           1356         102.00       411.51
  152.56        2960.25           1359         128.00       524.86
  152.59        2960.50           1362         161.00       668.71
  152.62        2960.75           1366         208.00       873.61
  152.65        2961.00           1369         253.00      1069.78
  152.68        2961.25           1372         290.00      1231.08
  152.71        2961.50           1376         350.00      1492.66
  152.74        2961.75           1379         485.00      2081.21
  152.77        2962.00           1382        1116.00      4832.44
  152.80        2962.25           1386        2740.00     11915.33
  152.84        2962.50           1389        4172.00     18163.34
  152.87        2962.75           1392        5580.00     24308.92
  152.90        2963.00           1396        7544.00     32885.09
  152.93        2963.25           1399        8954.00     39044.85
  152.96        2963.50           1402       10408.00     45399.20
  152.99        2963.75           1406       12381.00     54025.60
  153.02        2964.00           1409       14067.00     61400.71
  153.05        2964.25           1412       15605.00     68131.27
  153.08        2964.50           1416       17540.00     76603.04
  153.12        2964.75           1419       19029.00     83125.09
  153.15        2965.00           1422       20618.00     90087.97
  153.18        2965.25           1426       22552.00     98566.54
  153.21        2965.50           1429       24067.00    105211.20
  153.24        2965.75           1432       25601.00    111942.00
  153.27        2966.00           1436       27393.00    119808.20
  153.30        2966.25           1439       28438.00    124397.10
  153.33        2966.50           1442       29983.00    131184.00
  153.36        2966.75           1446       31556.00    138096.70
  153.39        2967.00           1449       32018.00    140127.50
  153.43        2967.25           1452       31885.00    139542.90
  153.46        2967.50           1456       31786.00    139107.70
  153.49        2967.75           1459       31888.00    139556.00
  153.52        2968.00           1462       31747.00    138936.20
  153.55        2968.25           1466       30850.00    134993.70
  153.58        2968.50           1469       29468.00    128921.40
  153.61        2968.75           1472       28060.00    122737.10
  153.64        2969.00           1476       26081.00    114048.70
  153.67        2969.25           1479       24817.00    108501.70
  153.70        2969.50           1482       23213.00    101465.30
  153.74        2969.75           1486       21237.00     92801.18
  153.77        2970.00           1489       19808.00     86538.24
  153.80        2970.25           1492       18421.00     80461.65
  153.83        2970.50           1496       16436.00     71769.01
  153.86        2970.75           1499       14973.00     65365.20
  153.89        2971.00           1502       13542.00     59103.84
  153.92        2971.25           1506       11509.00     50212.47
  153.95        2971.50           1509        9936.00     43336.17
  153.98        2971.75           1513        8133.00     35457.93
  154.02        2972.00           1516        6754.00     29434.88
  154.05        2972.25           1519        5217.00     22724.29
  154.08        2972.50           1523        3390.00     14751.08
  154.11        2972.75           1526        2070.00      8992.83
  154.14        2973.00           1529         878.00      3794.68
  154.17        2973.25           1533         461.00      1976.58
  154.20        2973.50           1536         340.00      1449.06
  154.23        2973.75           1539         281.00      1191.85
  154.26        2974.00           1543         252.00      1065.42
  154.29        2974.25           1546         188.00       786.42
  154.32        2974.50           1549         150.00       620.76
  154.35        2974.75           1553         104.00       420.23
  154.38        2975.00           1556          80.00       315.61
  154.41        2975.25           1559          68.00       263.30
  154.44        2975.50           1563          52.00       193.55
  154.48        2975.75           1566          51.00       189.19
  154.51        2976.00           1569          59.00       224.06
  154.54        2976.25           1573          62.00       237.14
  154.57        2976.50           1576          58.00       219.71
  154.60        2976.75           1579          55.00       206.63
  154.63        2977.00           1583          55.00       206.63
  154.66        2977.25           1586          48.00       176.11
  154.69        2977.50           1590          58.00       219.71
  154.72        2977.75           1593          58.00       219.71
  154.75        2978.00           1596          63.00       241.50
  154.78        2978.25           1600          50.00       184.83
  154.82        2978.50           1603          52.00       193.55
  154.85        2978.75           1606          58.00       219.71
  154.88        2979.00           1610          53.00       197.91
  154.91        2979.25           1613          59.00       224.06
  154.94        2979.50           1616          53.00       197.91
  154.97        2979.75           1620          60.00       228.42
  155.00        2980.00           1623          64.00       245.86
  155.03        2980.25           1626          56.00       210.99
  155.06        2980.50           1630          50.00       184.83
  155.09        2980.75           1633          51.00       189.19
  155.12        2981.00           1637          51.00       189.19
  155.15        2981.25           1640          53.00       197.91
  155.18        2981.50           1643          55.00       206.63
  155.21        2981.75           1647          55.00       206.63
  155.24        2982.00           1650          54.00       202.27
  155.27        2982.25           1653          53.00       197.91
  155.31        2982.50           1657          62.00       237.14
  155.34        2982.75           1660          49.00       180.47
  155.37        2983.00           1663          44.00       158.68
  155.40        2983.25           1667          58.00       219.71
  155.43        2983.50           1670          49.00       180.47
  155.46        2983.75           1673          53.00       197.91
  155.49        2984.00           1677          55.00       206.63
HS scan finished at 02:35:42
end
************************************************************
  HS Scan of (1) Internal mercury lamp
************************************************************
Integration time is 0.2294 seconds per sample
dh270318Manchester 53.47 2.23 2.804185pr1000
************************************************************
Dead Time -------------------------  3E-08 
Number of Cycles Used -------------  4 
Starting Wavelength (Angstroms) ---  2950 
Final Wavelength (Angstoms) -------  2984 
Wavelength Increment (Angstroms) --  .25 
Filter Wheel #1 Position ---------- (1) Ground quartz diffuser (ND=2.32)
Filter Wheel #2 Position ---------- (1) Neutral Density 0.494



************************************************************
HS scan start time = 19:41:58
Dark Count =  6.1 


Time (GMT)  Wavelength (Ang)  Step Number  Raw Counts  Counts/Second

 1182.33        2950.00           1222          54.00       208.81
 1182.40        2950.25           1226          59.00       230.60
 1182.43        2950.50           1229          55.00       213.17
 1182.46        2950.75           1232          54.00       208.81
 1182.49        2951.00           1236          58.00       226.24
 1182.52        2951.25           1239          54.00       208.81
 1182.55        2951.50           1242          63.00       248.04
 1182.58        2951.75           1246          61.00       239.32
 1182.61        2952.00           1249          58.00       226.24
 1182.65        2952.25           1252          54.00       208.81
 1182.68        2952.50           1256          69.00       274.20
 1182.71        2952.75           1259          62.00       243.68
 1182.74        2953.00           1262          55.00       213.17
 1182.77        2953.25           1266          54.00       208.81
 1182.80        2953.50           1269          59.00       230.60
 1182.83        2953.75           1272          56.00       217.53
 1182.86        2954.00           1276          60.00       234.96
 1182.89        2954.25           1279          62.00       243.68
 1182.92        2954.50           1282          61.00       239.32
 1182.95        2954.75           1286          55.00       213.17
 1182.98        2955.00           1289          61.00       239.32
 1183.01        2955.25           1292          66.00       261.12
 1183.04        2955.50           1296          67.00       265.48
 1183.07        2955.75           1299          55.00       213.17
 1183.10        2956.00           1302          60.00       234.96
 1183.13        2956.25           1306          66.00       261.12
 1183.16        2956.50           1309          57.00       221.88
 1183.19        2956.75           1312          56.00       217.53
 1183.23        2957.00           1316          57.00       221.88
 1183.26        2957.25           1319          61.00       239.32
 1183.29        2957.50           1322          58.00       226.24
 1183.32        2957.75           1326          53.00       204.45
 1183.35        2958.00           1329          65.00       256.76
 1183.38        2958.25           1332          56.00       217.53
 1183.41        2958.50           1336          59.00       230.60
 1183.44        2958.75           1339          56.00       217.53
 1183.47        2959.00           1342          58.00       226.24
 1183.50        2959.25           1346          62.00       243.68
 1183.53        2959.50           1349          70.00       278.56
 1183.56        2959.75           1352          73.00       291.63
 1183.59        2960.00           1356         103.00       422.41
 1183.63        2960.25           1359         146.00       609.86
 1183.66        2960.50           1362         179.00       753.72
 1183.69        2960.75           1366         223.00       945.54
 1183.72        2961.00           1369         258.00      1098.12
 1183.75        2961.25           1372         281.00      1198.39
 1183.78        2961.50           1376         380.00      1629.98
 1183.81        2961.75           1379         553.00      2384.22
 1183.84        2962.00           1382        1168.00      5065.72
 1183.87        2962.25           1386        2731.00     11882.61
 1183.90        2962.50           1389        4316.00     18798.31
 1183.93        2962.75           1392        5595.00     24380.95
 1183.96        2963.00           1396        7559.00     32957.16
 1184.00        2963.25           1399        9062.00     39523.30
 1184.03        2963.50           1402       10735.00     46835.17
 1184.06        2963.75           1406       12646.00     55191.14
 1184.09        2964.00           1409       14120.00     61639.16
 1184.12        2964.25           1412       15675.00     68444.23
 1184.15        2964.50           1416       17648.00     77082.59
 1184.18        2964.75           1419       18969.00     82868.81
 1184.21        2965.00           1422       20477.00     89476.57
 1184.24        2965.25           1426       22503.00     98358.24
 1184.27        2965.50           1429       23876.00    104380.00
 1184.31        2965.75           1432       25420.00    111154.30
 1184.34        2966.00           1436       27365.00    119691.90
 1184.37        2966.25           1439       28938.00    126599.80
 1184.40        2966.50           1442       30192.00    132108.90
 1184.43        2966.75           1446       31574.00    138182.40
 1184.46        2967.00           1449       32030.00    140186.90
 1184.49        2967.25           1452       32008.00    140090.10
 1184.52        2967.50           1456       31884.00    139545.00
 1184.55        2967.75           1459       31855.00    139417.60
 1184.58        2968.00           1462       31827.00    139294.50
 1184.62        2968.25           1466       30984.00    135589.20
 1184.65        2968.50           1469       29684.00    129876.90
 1184.68        2968.75           1472       28278.00    123701.00
 1184.71        2969.00           1476       26199.00    114573.20
 1184.74        2969.25           1479       24802.00    108442.50
 1184.77        2969.50           1482       23302.00    101862.30
 1184.80        2969.75           1486       21194.00     92619.24
 1184.83        2970.00           1489       19898.00     86939.19
 1184.87        2970.25           1492       18490.00     80770.46
 1184.90        2970.50           1496       16678.00     72835.10
 1184.93        2970.75           1499       15136.00     66085.12
 1184.96        2971.00           1502       13632.00     59504.12
 1184.99        2971.25           1506       11723.00     51154.73
 1185.02        2971.50           1509       10216.00     44566.53
 1185.05        2971.75           1513        8316.00     36263.93
 1185.08        2972.00           1516        6740.00     29380.29
 1185.11        2972.25           1519        5250.00     22874.89
 1185.14        2972.50           1523        3329.00     14491.48
 1185.17        2972.75           1526        2023.00      8794.39
 1185.20        2973.00           1529         864.00      3740.18
 1185.23        2973.25           1533         387.00      1660.50
 1185.26        2973.50           1536         327.00      1398.93
 1185.29        2973.75           1539         271.00      1154.79
 1185.32        2974.00           1543         217.00       919.38
 1185.35        2974.25           1546         173.00       727.57
 1185.38        2974.50           1549         151.00       631.66
 1185.42        2974.75           1553          92.00       374.46
 1185.45        2975.00           1556          69.00       274.20
 1185.48        2975.25           1559          61.00       239.32
 1185.51        2975.50           1563          56.00       217.53
 1185.54        2975.75           1566          56.00       217.53
 1185.57        2976.00           1569          54.00       208.81
 1185.60        2976.25           1573          65.00       256.76
 1185.63        2976.50           1576          59.00       230.60
 1185.66        2976.75           1579          63.00       248.04
 1185.69        2977.00           1583          59.00       230.60
 1185.72        2977.25           1586          57.00       221.88
 1185.76        2977.50           1590          59.00       230.60
 1185.79        2977.75           1593          58.00       226.24
 1185.82        2978.00           1596          60.00       234.96
 1185.85        2978.25           1600          54.00       208.81
 1185.88        2978.50           1603          53.00       204.45
 1185.91        2978.75           1606          52.00       200.09
 1185.94        2979.00           1610          56.00       217.53
 1185.97        2979.25           1613          55.00       213.17
 1186.00        2979.50           1616          57.00       221.88
 1186.03        2979.75           1620          56.00       217.53
 1186.07        2980.00           1623          55.00       213.17
 1186.10        2980.25           1626          51.00       195.73
 1186.13        2980.50           1630          60.00       234.96
 1186.16        2980.75           1633          54.00       208.81
 1186.19        2981.00           1637          51.00       195.73
 1186.22        2981.25           1640          56.00       217.53
 1186.25        2981.50           1643          59.00       230.60
 1186.28        2981.75           1647          57.00       221.88
 1186.31        2982.00           1650          48.00       182.65
 1186.34        2982.25           1653          54.00       208.81
 1186.37        2982.50           1657          48.00       182.65
 1186.40        2982.75           1660          52.00       200.09
 1186.43        2983.00           1663          55.00       213.17
 1186.46        2983.25           1667          63.00       248.04
 1186.49        2983.50           1670          49.00       187.01
 1186.52        2983.75           1673          53.00       204.45
 1186.56        2984.00           1677          55.00       213.17
HS scan finished at 19:46:46
end
