************************************************************
  HS Scan of (1) Internal mercury lamp
************************************************************
Integration time is 0.2294 seconds per sample
dh220317Manchester 53.47 2.23 2.750537pr1000
************************************************************
Dead Time -------------------------  3E-08 
Number of Cycles Used -------------  4 
Starting Wavelength (Angstroms) ---  2950 
Final Wavelength (Angstoms) -------  2984 
Wavelength Increment (Angstroms) --  .25 
Filter Wheel #1 Position ---------- (1) Ground quartz diffuser (ND=2.32)
Filter Wheel #2 Position ---------- (1) Neutral Density 0.494



************************************************************
HS scan start time = 02:53:56
Dark Count =  6.6 


Time (GMT)  Wavelength (Ang)  Step Number  Raw Counts  Counts/Second

  174.30        2950.00           1222          50.00       189.19
  174.37        2950.25           1226          38.00       136.88
  174.40        2950.50           1229          50.00       189.19
  174.43        2950.75           1232          45.00       167.39
  174.46        2951.00           1236          44.00       163.03
  174.49        2951.25           1239          49.00       184.83
  174.52        2951.50           1242          50.00       189.19
  174.55        2951.75           1246          45.00       167.39
  174.58        2952.00           1249          45.00       167.39
  174.62        2952.25           1252          33.00       115.08
  174.65        2952.50           1256          43.00       158.68
  174.68        2952.75           1259          49.00       184.83
  174.71        2953.00           1262          47.00       176.11
  174.74        2953.25           1266          50.00       189.19
  174.77        2953.50           1269          41.00       149.96
  174.80        2953.75           1272          48.00       180.47
  174.83        2954.00           1276          45.00       167.39
  174.86        2954.25           1279          42.00       154.32
  174.89        2954.50           1282          46.00       171.75
  174.93        2954.75           1286          45.00       167.39
  174.96        2955.00           1289          46.00       171.75
  174.99        2955.25           1292          53.00       202.27
  175.02        2955.50           1296          54.00       206.63
  175.05        2955.75           1299          46.00       171.75
  175.08        2956.00           1302          54.00       206.63
  175.11        2956.25           1306          45.00       167.39
  175.14        2956.50           1309          48.00       180.47
  175.17        2956.75           1312          47.00       176.11
  175.20        2957.00           1316          48.00       180.47
  175.23        2957.25           1319          40.00       145.60
  175.26        2957.50           1322          47.00       176.11
  175.30        2957.75           1326          45.00       167.39
  175.33        2958.00           1329          45.00       167.39
  175.36        2958.25           1332          41.00       149.96
  175.39        2958.50           1336          44.00       163.03
  175.42        2958.75           1339          46.00       171.75
  175.45        2959.00           1342          52.00       197.91
  175.48        2959.25           1346          45.00       167.39
  175.51        2959.50           1349          59.00       228.42
  175.54        2959.75           1352          68.00       267.66
  175.57        2960.00           1356          83.00       333.05
  175.61        2960.25           1359         110.00       450.75
  175.64        2960.50           1362         148.00       616.40
  175.67        2960.75           1366         222.00       939.00
  175.70        2961.00           1369         256.00      1087.22
  175.73        2961.25           1372         293.00      1248.52
  175.76        2961.50           1376         390.00      1671.40
  175.79        2961.75           1379         559.00      2408.19
  175.82        2962.00           1382        1062.00      4601.33
  175.85        2962.25           1386        2603.00     11322.07
  175.88        2962.50           1389        4111.00     17901.50
  175.91        2962.75           1392        5607.00     24431.15
  175.95        2963.00           1396        7750.00     33789.25
  175.98        2963.25           1399        9297.00     40547.99
  176.01        2963.50           1402       11072.00     48306.23
  176.04        2963.75           1406       13331.00     58185.18
  176.07        2964.00           1409       14854.00     64848.80
  176.10        2964.25           1412       16959.00     74063.25
  176.13        2964.50           1416       19431.00     84890.72
  176.16        2964.75           1419       21160.00     92468.02
  176.19        2965.00           1422       22736.00     99377.81
  176.23        2965.25           1426       25101.00    109752.20
  176.26        2965.50           1429       26695.00    116748.20
  176.29        2965.75           1432       28416.00    124304.90
  176.32        2966.00           1436       30531.00    133596.30
  176.35        2966.25           1439       32203.00    140945.20
  176.38        2966.50           1442       33634.00    147237.40
  176.41        2966.75           1446       35449.00    155221.60
  176.44        2967.00           1449       36001.00    157650.60
  176.47        2967.25           1452       36227.00    158645.20
  176.51        2967.50           1456       36244.00    158720.00
  176.54        2967.75           1459       36453.00    159639.80
  176.57        2968.00           1462       35843.00    156955.30
  176.60        2968.25           1466       35060.00    153510.00
  176.63        2968.50           1469       34077.00    149185.80
  176.66        2968.75           1472       32619.00    142774.10
  176.69        2969.00           1476       30364.00    132862.40
  176.72        2969.25           1479       28729.00    125679.60
  176.75        2969.50           1482       27185.00    118899.40
  176.78        2969.75           1486       25078.00    109651.30
  176.82        2970.00           1489       23359.00    102110.10
  176.85        2970.25           1492       21596.00     94379.31
  176.88        2970.50           1496       19609.00     85670.64
  176.91        2970.75           1499       17869.00     78048.27
  176.94        2971.00           1502       16166.00     70591.36
  176.97        2971.25           1506       13763.00     60075.05
  177.00        2971.50           1509       12068.00     52661.16
  177.03        2971.75           1513        9964.00     43462.92
  177.06        2972.00           1516        8450.00     36847.16
  177.09        2972.25           1519        6868.00     29937.08
  177.12        2972.50           1523        4731.00     20607.33
  177.15        2972.75           1526        3147.00     13695.25
  177.19        2973.00           1529        1770.00      7688.78
  177.22        2973.25           1533         611.00      2634.91
  177.25        2973.50           1536         390.00      1671.40
  177.28        2973.75           1539         284.00      1209.29
  177.31        2974.00           1543         254.00      1078.50
  177.34        2974.25           1546         208.00       877.97
  177.37        2974.50           1549         141.00       585.89
  177.40        2974.75           1553         102.00       415.87
  177.43        2975.00           1556          75.00       298.17
  177.46        2975.25           1559          61.00       237.14
  177.49        2975.50           1563          52.00       197.91
  177.53        2975.75           1566          57.00       219.71
  177.56        2976.00           1569          48.00       180.47
  177.59        2976.25           1573          51.00       193.55
  177.62        2976.50           1576          49.00       184.83
  177.65        2976.75           1579          44.00       163.03
  177.68        2977.00           1583          55.00       210.99
  177.71        2977.25           1586          43.00       158.68
  177.74        2977.50           1590          46.00       171.75
  177.77        2977.75           1593          55.00       210.99
  177.81        2978.00           1596          47.00       176.11
  177.84        2978.25           1600          46.00       171.75
  177.87        2978.50           1603          45.00       167.39
  177.90        2978.75           1606          44.00       163.03
  177.93        2979.00           1610          48.00       180.47
  177.96        2979.25           1613          50.00       189.19
  177.99        2979.50           1616          42.00       154.32
  178.02        2979.75           1620          45.00       167.39
  178.05        2980.00           1623          52.00       197.91
  178.08        2980.25           1626          45.00       167.39
  178.12        2980.50           1630          50.00       189.19
  178.15        2980.75           1633          44.00       163.03
  178.18        2981.00           1637          39.00       141.24
  178.21        2981.25           1640          44.00       163.03
  178.24        2981.50           1643          43.00       158.68
  178.27        2981.75           1647          46.00       171.75
  178.30        2982.00           1650          43.00       158.68
  178.33        2982.25           1653          52.00       197.91
  178.36        2982.50           1657          44.00       163.03
  178.39        2982.75           1660          45.00       167.39
  178.42        2983.00           1663          44.00       163.03
  178.45        2983.25           1667          46.00       171.75
  178.48        2983.50           1670          49.00       184.83
  178.51        2983.75           1673          45.00       167.39
  178.55        2984.00           1677          41.00       149.96
HS scan finished at 02:58:46
end
************************************************************
  HS Scan of (1) Internal mercury lamp
************************************************************
Integration time is 0.2294 seconds per sample
dh220317Manchester 53.47 2.23 2.750537pr1000
************************************************************
Dead Time -------------------------  3E-08 
Number of Cycles Used -------------  4 
Starting Wavelength (Angstroms) ---  2950 
Final Wavelength (Angstoms) -------  2984 
Wavelength Increment (Angstroms) --  .25 
Filter Wheel #1 Position ---------- (1) Ground quartz diffuser (ND=2.32)
Filter Wheel #2 Position ---------- (1) Neutral Density 0.494



************************************************************
HS scan start time = 19:12:01
Dark Count =  4.2 


Time (GMT)  Wavelength (Ang)  Step Number  Raw Counts  Counts/Second

 1152.39        2950.00           1222          48.00       190.93
 1152.46        2950.25           1226          51.00       204.01
 1152.49        2950.50           1229          44.00       173.50
 1152.52        2950.75           1232          50.00       199.65
 1152.55        2951.00           1236          44.00       173.50
 1152.59        2951.25           1239          50.00       199.65
 1152.62        2951.50           1242          45.00       177.86
 1152.65        2951.75           1246          44.00       173.50
 1152.68        2952.00           1249          41.00       160.42
 1152.71        2952.25           1252          53.00       212.73
 1152.74        2952.50           1256          44.00       173.50
 1152.77        2952.75           1259          44.00       173.50
 1152.80        2953.00           1262          38.00       147.34
 1152.83        2953.25           1266          51.00       204.01
 1152.86        2953.50           1269          53.00       212.73
 1152.89        2953.75           1272          39.00       151.70
 1152.92        2954.00           1276          57.00       230.17
 1152.95        2954.25           1279          49.00       195.29
 1152.99        2954.50           1282          46.00       182.22
 1153.02        2954.75           1286          40.00       156.06
 1153.05        2955.00           1289          46.00       182.22
 1153.08        2955.25           1292          47.00       186.57
 1153.11        2955.50           1296          47.00       186.57
 1153.14        2955.75           1299          57.00       230.17
 1153.17        2956.00           1302          40.00       156.06
 1153.20        2956.25           1306          51.00       204.01
 1153.23        2956.50           1309          45.00       177.86
 1153.26        2956.75           1312          53.00       212.73
 1153.29        2957.00           1316          53.00       212.73
 1153.32        2957.25           1319          49.00       195.29
 1153.36        2957.50           1322          44.00       173.50
 1153.39        2957.75           1326          48.00       190.93
 1153.42        2958.00           1329          49.00       195.29
 1153.45        2958.25           1332          45.00       177.86
 1153.48        2958.50           1336          42.00       164.78
 1153.51        2958.75           1339          54.00       217.09
 1153.54        2959.00           1342          56.00       225.81
 1153.57        2959.25           1346          59.00       238.89
 1153.60        2959.50           1349          58.00       234.53
 1153.63        2959.75           1352          76.00       312.99
 1153.66        2960.00           1356         122.00       513.52
 1153.69        2960.25           1359         144.00       609.43
 1153.73        2960.50           1362         185.00       788.16
 1153.76        2960.75           1366         262.00      1123.84
 1153.79        2961.00           1369         274.00      1176.15
 1153.82        2961.25           1372         346.00      1490.04
 1153.85        2961.50           1376         434.00      1873.69
 1153.88        2961.75           1379         617.00      2671.53
 1153.91        2962.00           1382        1238.00      5379.25
 1153.94        2962.25           1386        2893.00     12597.61
 1153.97        2962.50           1389        4511.00     19657.62
 1154.00        2962.75           1392        6008.00     26192.33
 1154.03        2963.00           1396        8087.00     35271.83
 1154.06        2963.25           1399        9766.00     42608.05
 1154.09        2963.50           1402       11450.00     49969.37
 1154.13        2963.75           1406       13593.00     59341.82
 1154.16        2964.00           1409       15423.00     67349.54
 1154.19        2964.25           1412       17204.00     75146.56
 1154.22        2964.50           1416       19483.00     85129.09
 1154.25        2964.75           1419       21102.00     92224.30
 1154.28        2965.00           1422       22597.00     98778.78
 1154.31        2965.25           1426       25001.00    109324.00
 1154.34        2965.50           1429       26557.00    116153.00
 1154.37        2965.75           1432       27869.00    121913.30
 1154.40        2966.00           1436       30150.00    131932.70
 1154.44        2966.25           1439       31610.00    138349.00
 1154.47        2966.50           1442       33180.00    145251.40
 1154.50        2966.75           1446       35051.00    153481.00
 1154.53        2967.00           1449       35689.00    156288.20
 1154.56        2967.25           1452       35849.00    156992.30
 1154.59        2967.50           1456       35806.00    156803.00
 1154.62        2967.75           1459       35842.00    156961.40
 1154.65        2968.00           1462       35726.00    156451.00
 1154.68        2968.25           1466       34720.00    152024.80
 1154.72        2968.50           1469       33625.00    147208.40
 1154.75        2968.75           1472       32178.00    140845.90
 1154.78        2969.00           1476       29913.00    130891.40
 1154.81        2969.25           1479       28323.00    123907.00
 1154.84        2969.50           1482       26745.00    116978.20
 1154.87        2969.75           1486       24532.00    107266.20
 1154.90        2970.00           1489       22996.00    100528.50
 1154.93        2970.25           1492       21344.00     93285.11
 1154.96        2970.50           1496       19081.00     83367.80
 1154.99        2970.75           1499       17363.00     75842.82
 1155.02        2971.00           1502       15710.00     68605.75
 1155.06        2971.25           1506       13588.00     59319.95
 1155.09        2971.50           1509       11926.00     52050.70
 1155.12        2971.75           1513        9822.00     42852.79
 1155.15        2972.00           1516        8200.00     35765.47
 1155.18        2972.25           1519        6487.00     28283.80
 1155.21        2972.50           1523        4252.00     18527.30
 1155.24        2972.75           1526        2664.00     11598.63
 1155.27        2973.00           1529        1221.00      5305.12
 1155.30        2973.25           1533         480.00      2074.24
 1155.33        2973.50           1536         334.00      1437.73
 1155.36        2973.75           1539         268.00      1150.00
 1155.40        2974.00           1543         209.00       892.79
 1155.43        2974.25           1546         151.00       639.94
 1155.46        2974.50           1549         113.00       474.29
 1155.49        2974.75           1553          72.00       295.56
 1155.52        2975.00           1556          58.00       234.53
 1155.55        2975.25           1559          55.00       221.45
 1155.58        2975.50           1563          47.00       186.57
 1155.61        2975.75           1566          49.00       195.29
 1155.64        2976.00           1569          43.00       169.14
 1155.67        2976.25           1573          49.00       195.29
 1155.70        2976.50           1576          47.00       186.57
 1155.73        2976.75           1579          49.00       195.29
 1155.77        2977.00           1583          56.00       225.81
 1155.80        2977.25           1586          49.00       195.29
 1155.83        2977.50           1590          49.00       195.29
 1155.86        2977.75           1593          48.00       190.93
 1155.89        2978.00           1596          54.00       217.09
 1155.92        2978.25           1600          48.00       190.93
 1155.95        2978.50           1603          45.00       177.86
 1155.98        2978.75           1606          47.00       186.57
 1156.01        2979.00           1610          53.00       212.73
 1156.04        2979.25           1613          44.00       173.50
 1156.07        2979.50           1616          43.00       169.14
 1156.11        2979.75           1620          49.00       195.29
 1156.14        2980.00           1623          51.00       204.01
 1156.17        2980.25           1626          40.00       156.06
 1156.20        2980.50           1630          50.00       199.65
 1156.23        2980.75           1633          51.00       204.01
 1156.26        2981.00           1637          42.00       164.78
 1156.29        2981.25           1640          41.00       160.42
 1156.32        2981.50           1643          43.00       169.14
 1156.35        2981.75           1647          43.00       169.14
 1156.38        2982.00           1650          38.00       147.34
 1156.41        2982.25           1653          42.00       164.78
 1156.45        2982.50           1657          43.00       169.14
 1156.48        2982.75           1660          47.00       186.57
 1156.51        2983.00           1663          44.00       173.50
 1156.54        2983.25           1667          45.00       177.86
 1156.57        2983.50           1670          45.00       177.86
 1156.60        2983.75           1673          39.00       151.70
 1156.63        2984.00           1677          46.00       182.22
HS scan finished at 19:16:51
end
