************************************************************
  HS Scan of (1) Internal mercury lamp
************************************************************
Integration time is 0.2294 seconds per sample
dh280319Manchester 53.47 2.23 2.804185pr1000
************************************************************
Dead Time -------------------------  3E-08 
Number of Cycles Used -------------  4 
Starting Wavelength (Angstroms) ---  2950 
Final Wavelength (Angstoms) -------  2984 
Wavelength Increment (Angstroms) --  .25 
Filter Wheel #1 Position ---------- (1) Ground quartz diffuser (ND=2.32)
Filter Wheel #2 Position ---------- (1) Neutral Density 0.494



************************************************************
HS scan start time = 02:26:58
Dark Count =  5.7 


Time (GMT)  Wavelength (Ang)  Step Number  Raw Counts  Counts/Second

  147.33        2950.00           1222          55.00       214.91
  147.40        2950.25           1226          60.00       236.71
  147.43        2950.50           1229          63.00       249.78
  147.46        2950.75           1232          54.00       210.55
  147.49        2951.00           1236          57.00       223.63
  147.52        2951.25           1239          54.00       210.55
  147.55        2951.50           1242          58.00       227.99
  147.59        2951.75           1246          57.00       223.63
  147.62        2952.00           1249          57.00       223.63
  147.65        2952.25           1252          59.00       232.35
  147.68        2952.50           1256          52.00       201.83
  147.71        2952.75           1259          54.00       210.55
  147.74        2953.00           1262          50.00       193.11
  147.77        2953.25           1266          55.00       214.91
  147.80        2953.50           1269          53.00       206.19
  147.83        2953.75           1272          54.00       210.55
  147.86        2954.00           1276          58.00       227.99
  147.89        2954.25           1279          49.00       188.75
  147.92        2954.50           1282          56.00       219.27
  147.96        2954.75           1286          52.00       201.83
  147.99        2955.00           1289          53.00       206.19
  148.02        2955.25           1292          56.00       219.27
  148.05        2955.50           1296          52.00       201.83
  148.08        2955.75           1299          56.00       219.27
  148.11        2956.00           1302          59.00       232.35
  148.14        2956.25           1306          53.00       206.19
  148.17        2956.50           1309          57.00       223.63
  148.20        2956.75           1312          59.00       232.35
  148.24        2957.00           1316          56.00       219.27
  148.27        2957.25           1319          63.00       249.78
  148.30        2957.50           1322          54.00       210.55
  148.33        2957.75           1326          48.00       184.40
  148.36        2958.00           1329          62.00       245.42
  148.39        2958.25           1332          58.00       227.99
  148.42        2958.50           1336          54.00       210.55
  148.45        2958.75           1339          56.00       219.27
  148.48        2959.00           1342          59.00       232.35
  148.51        2959.25           1346          57.00       223.63
  148.55        2959.50           1349          58.00       227.99
  148.58        2959.75           1352          74.00       297.74
  148.61        2960.00           1356          82.00       332.61
  148.64        2960.25           1359         117.00       485.19
  148.67        2960.50           1362         140.00       585.45
  148.70        2960.75           1366         167.00       703.15
  148.73        2961.00           1369         213.00       903.69
  148.76        2961.25           1372         248.00      1056.27
  148.79        2961.50           1376         287.00      1226.29
  148.83        2961.75           1379         411.00      1766.88
  148.86        2962.00           1382         737.00      3188.19
  148.89        2962.25           1386        2023.00      8796.13
  148.92        2962.50           1389        3183.00     13856.24
  148.95        2962.75           1392        4308.00     18765.14
  148.98        2963.00           1396        6028.00     26273.10
  149.01        2963.25           1399        7241.00     31569.99
  149.04        2963.50           1402        8439.00     36803.04
  149.07        2963.75           1406       10090.00     44017.55
  149.10        2964.00           1409       11266.00     49158.32
  149.14        2964.25           1412       12528.00     54676.80
  149.17        2964.50           1416       14418.00     62944.83
  149.20        2964.75           1419       15545.00     67876.96
  149.23        2965.00           1422       16694.00     72906.90
  149.26        2965.25           1426       18369.00     80242.20
  149.29        2965.50           1429       19511.00     85245.19
  149.32        2965.75           1432       20797.00     90880.84
  149.35        2966.00           1436       22292.00     97434.79
  149.38        2966.25           1439       23465.00    102578.90
  149.42        2966.50           1442       24665.00    107843.10
  149.45        2966.75           1446       25809.00    112863.20
  149.48        2967.00           1449       26432.00    115597.70
  149.51        2967.25           1452       26351.00    115242.10
  149.54        2967.50           1456       26354.00    115255.30
  149.57        2967.75           1459       26258.00    114833.90
  149.60        2968.00           1462       26237.00    114741.70
  149.63        2968.25           1466       25471.00    111379.80
  149.67        2968.50           1469       24494.00    107092.90
  149.70        2968.75           1472       23364.00    102135.90
  149.73        2969.00           1476       21908.00     95751.12
  149.76        2969.25           1479       20769.00     90758.11
  149.79        2969.50           1482       19549.00     85411.69
  149.82        2969.75           1486       17856.00     77995.28
  149.85        2970.00           1489       16473.00     71939.32
  149.88        2970.25           1492       15375.00     67132.90
  149.91        2970.50           1496       13690.00     59759.61
  149.95        2970.75           1499       12478.00     54458.13
  149.98        2971.00           1502       11254.00     49105.86
  150.01        2971.25           1506        9652.00     42103.28
  150.04        2971.50           1509        8427.00     36750.61
  150.07        2971.75           1513        6809.00     29683.35
  150.10        2972.00           1516        5694.00     24814.89
  150.13        2972.25           1519        4554.00     19838.74
  150.16        2972.50           1523        2990.00     13014.24
  150.19        2972.75           1526        1866.00      8111.39
  150.22        2973.00           1529         866.00      3750.64
  150.26        2973.25           1533         341.00      1461.70
  150.29        2973.50           1536         269.00      1147.82
  150.32        2973.75           1539         228.00       969.08
  150.35        2974.00           1543         195.00       825.22
  150.38        2974.25           1546         143.00       598.53
  150.41        2974.50           1549         117.00       485.19
  150.44        2974.75           1553          86.00       350.05
  150.47        2975.00           1556          70.00       280.30
  150.50        2975.25           1559          64.00       254.14
  150.53        2975.50           1563          48.00       184.40
  150.57        2975.75           1566          60.00       236.71
  150.60        2976.00           1569          55.00       214.91
  150.63        2976.25           1573          54.00       210.55
  150.66        2976.50           1576          50.00       193.11
  150.69        2976.75           1579          54.00       210.55
  150.72        2977.00           1583          50.00       193.11
  150.75        2977.25           1586          56.00       219.27
  150.78        2977.50           1590          53.00       206.19
  150.81        2977.75           1593          55.00       214.91
  150.85        2978.00           1596          52.00       201.83
  150.88        2978.25           1600          55.00       214.91
  150.91        2978.50           1603          60.00       236.71
  150.94        2978.75           1606          48.00       184.40
  150.97        2979.00           1610          62.00       245.42
  151.00        2979.25           1613          45.00       171.32
  151.03        2979.50           1616          52.00       201.83
  151.06        2979.75           1620          47.00       180.04
  151.09        2980.00           1623          55.00       214.91
  151.12        2980.25           1626          53.00       206.19
  151.16        2980.50           1630          57.00       223.63
  151.19        2980.75           1633          56.00       219.27
  151.22        2981.00           1637          45.00       171.32
  151.25        2981.25           1640          50.00       193.11
  151.28        2981.50           1643          46.00       175.68
  151.31        2981.75           1647          44.00       166.96
  151.34        2982.00           1650          51.00       197.47
  151.37        2982.25           1653          47.00       180.04
  151.40        2982.50           1657          66.00       262.86
  151.43        2982.75           1660          51.00       197.47
  151.47        2983.00           1663          44.00       166.96
  151.50        2983.25           1667          52.00       201.83
  151.53        2983.50           1670          49.00       188.75
  151.56        2983.75           1673          53.00       206.19
  151.59        2984.00           1677          45.00       171.32
HS scan finished at 02:31:48
end
************************************************************
  HS Scan of (1) Internal mercury lamp
************************************************************
Integration time is 0.2294 seconds per sample
dh280319Manchester 53.47 2.23 2.804185pr1000
************************************************************
Dead Time -------------------------  3E-08 
Number of Cycles Used -------------  4 
Starting Wavelength (Angstroms) ---  2950 
Final Wavelength (Angstoms) -------  2984 
Wavelength Increment (Angstroms) --  .25 
Filter Wheel #1 Position ---------- (1) Ground quartz diffuser (ND=2.32)
Filter Wheel #2 Position ---------- (1) Neutral Density 0.494



************************************************************
HS scan start time = 19:42:09
Dark Count =  5.2 


Time (GMT)  Wavelength (Ang)  Step Number  Raw Counts  Counts/Second

 1182.52        2950.00           1222          51.00       199.65
 1182.58        2950.25           1226          51.00       199.65
 1182.62        2950.50           1229          57.00       225.81
 1182.65        2950.75           1232          56.00       221.45
 1182.68        2951.00           1236          60.00       238.89
 1182.71        2951.25           1239          64.00       256.32
 1182.74        2951.50           1242          60.00       238.89
 1182.77        2951.75           1246          60.00       238.89
 1182.80        2952.00           1249          58.00       230.17
 1182.83        2952.25           1252          47.00       182.22
 1182.86        2952.50           1256          53.00       208.37
 1182.90        2952.75           1259          49.00       190.93
 1182.93        2953.00           1262          53.00       208.37
 1182.96        2953.25           1266          55.00       217.09
 1182.99        2953.50           1269          51.00       199.65
 1183.02        2953.75           1272          49.00       190.93
 1183.05        2954.00           1276          48.00       186.57
 1183.08        2954.25           1279          58.00       230.17
 1183.11        2954.50           1282          57.00       225.81
 1183.14        2954.75           1286          53.00       208.37
 1183.17        2955.00           1289          55.00       217.09
 1183.21        2955.25           1292          59.00       234.53
 1183.24        2955.50           1296          54.00       212.73
 1183.27        2955.75           1299          52.00       204.01
 1183.30        2956.00           1302          52.00       204.01
 1183.33        2956.25           1306          56.00       221.45
 1183.36        2956.50           1309          51.00       199.65
 1183.39        2956.75           1312          54.00       212.73
 1183.42        2957.00           1316          52.00       204.01
 1183.45        2957.25           1319          59.00       234.53
 1183.48        2957.50           1322          57.00       225.81
 1183.52        2957.75           1326          71.00       286.84
 1183.55        2958.00           1329          56.00       221.45
 1183.58        2958.25           1332          56.00       221.45
 1183.61        2958.50           1336          51.00       199.65
 1183.64        2958.75           1339          60.00       238.89
 1183.67        2959.00           1342          56.00       221.45
 1183.70        2959.25           1346          57.00       225.81
 1183.73        2959.50           1349          70.00       282.48
 1183.76        2959.75           1352          77.00       312.99
 1183.79        2960.00           1356          96.00       395.82
 1183.83        2960.25           1359         143.00       600.71
 1183.86        2960.50           1362         171.00       722.77
 1183.89        2960.75           1366         215.00       914.58
 1183.92        2961.00           1369         233.00       993.05
 1183.95        2961.25           1372         264.00      1128.20
 1183.98        2961.50           1376         324.00      1389.77
 1184.01        2961.75           1379         414.00      1782.14
 1184.04        2962.00           1382         800.00      3465.05
 1184.08        2962.25           1386        2040.00      8872.46
 1184.11        2962.50           1389        3168.00     13792.98
 1184.14        2962.75           1392        4387.00     19112.09
 1184.17        2963.00           1396        6112.00     26642.04
 1184.20        2963.25           1399        7248.00     31602.75
 1184.23        2963.50           1402        8414.00     36696.00
 1184.26        2963.75           1406       10139.00     44233.90
 1184.29        2964.00           1409       11446.00     49947.50
 1184.32        2964.25           1412       12823.00     55969.23
 1184.36        2964.50           1416       14152.00     61783.12
 1184.39        2964.75           1419       15334.00     66955.63
 1184.42        2965.00           1422       16605.00     72519.43
 1184.45        2965.25           1426       18175.00     79394.65
 1184.48        2965.50           1429       19615.00     85703.08
 1184.51        2965.75           1432       20827.00     91014.52
 1184.54        2966.00           1436       22495.00     98327.11
 1184.57        2966.25           1439       23670.00    103480.30
 1184.60        2966.50           1442       24836.00    108595.60
 1184.63        2966.75           1446       25894.00    113238.50
 1184.67        2967.00           1449       26259.00    114840.50
 1184.70        2967.25           1452       26267.00    114875.60
 1184.73        2967.50           1456       26205.00    114603.50
 1184.76        2967.75           1459       26263.00    114858.10
 1184.79        2968.00           1462       26259.00    114840.50
 1184.82        2968.25           1466       25522.00    111605.90
 1184.85        2968.50           1469       24461.00    106950.30
 1184.88        2968.75           1472       23484.00    102664.50
 1184.91        2969.00           1476       21804.00     95297.35
 1184.95        2969.25           1479       20545.00     89778.55
 1184.98        2969.50           1482       19266.00     84173.94
 1185.01        2969.75           1486       17613.00     76933.25
 1185.04        2970.00           1489       16385.00     71556.24
 1185.07        2970.25           1492       15227.00     66487.32
 1185.10        2970.50           1496       13617.00     59442.44
 1185.13        2970.75           1499       12467.00     54412.20
 1185.16        2971.00           1502       11474.00     50069.92
 1185.20        2971.25           1506        9707.00     42345.83
 1185.23        2971.50           1509        8537.00     37233.37
 1185.26        2971.75           1513        6873.00     29965.02
 1185.29        2972.00           1516        5651.00     24629.35
 1185.32        2972.25           1519        4388.00     19116.45
 1185.35        2972.50           1523        2832.00     12327.14
 1185.38        2972.75           1526        1718.00      7468.11
 1185.41        2973.00           1529         759.00      3286.29
 1185.44        2973.25           1533         337.00      1446.44
 1185.48        2973.50           1536         261.00      1115.12
 1185.51        2973.75           1539         222.00       945.10
 1185.54        2974.00           1543         180.00       762.01
 1185.57        2974.25           1546         130.00       544.04
 1185.60        2974.50           1549         118.00       491.72
 1185.63        2974.75           1553          82.00       334.79
 1185.66        2975.00           1556          65.00       260.68
 1185.69        2975.25           1559          53.00       208.37
 1185.72        2975.50           1563          53.00       208.37
 1185.76        2975.75           1566          55.00       217.09
 1185.79        2976.00           1569          57.00       225.81
 1185.82        2976.25           1573          53.00       208.37
 1185.85        2976.50           1576          58.00       230.17
 1185.88        2976.75           1579          56.00       221.45
 1185.91        2977.00           1583          50.00       195.29
 1185.94        2977.25           1586          61.00       243.25
 1185.97        2977.50           1590          49.00       190.93
 1186.00        2977.75           1593          51.00       199.65
 1186.04        2978.00           1596          48.00       186.57
 1186.07        2978.25           1600          58.00       230.17
 1186.10        2978.50           1603          53.00       208.37
 1186.13        2978.75           1606          55.00       217.09
 1186.16        2979.00           1610          51.00       199.65
 1186.19        2979.25           1613          50.00       195.29
 1186.22        2979.50           1616          57.00       225.81
 1186.25        2979.75           1620          50.00       195.29
 1186.28        2980.00           1623          52.00       204.01
 1186.31        2980.25           1626          64.00       256.32
 1186.34        2980.50           1630          54.00       212.73
 1186.37        2980.75           1633          46.00       177.86
 1186.41        2981.00           1637          46.00       177.86
 1186.44        2981.25           1640          48.00       186.57
 1186.47        2981.50           1643          46.00       177.86
 1186.50        2981.75           1647          54.00       212.73
 1186.53        2982.00           1650          45.00       173.50
 1186.56        2982.25           1653          45.00       173.50
 1186.59        2982.50           1657          49.00       190.93
 1186.62        2982.75           1660          48.00       186.57
 1186.65        2983.00           1663          53.00       208.37
 1186.69        2983.25           1667          51.00       199.65
 1186.72        2983.50           1670          52.00       204.01
 1186.75        2983.75           1673          48.00       186.57
 1186.78        2984.00           1677          46.00       177.86
HS scan finished at 19:47:00
end
