************************************************************
  HS Scan of (1) Internal mercury lamp
************************************************************
Integration time is 0.2294 seconds per sample
dh260319Manchester 53.47 2.23 2.804185pr1000
************************************************************
Dead Time -------------------------  3E-08 
Number of Cycles Used -------------  4 
Starting Wavelength (Angstroms) ---  2950 
Final Wavelength (Angstoms) -------  2984 
Wavelength Increment (Angstroms) --  .25 
Filter Wheel #1 Position ---------- (1) Ground quartz diffuser (ND=2.32)
Filter Wheel #2 Position ---------- (1) Neutral Density 0.494



************************************************************
HS scan start time = 02:37:28
Dark Count =  8.2 


Time (GMT)  Wavelength (Ang)  Step Number  Raw Counts  Counts/Second

  157.84        2950.00           1222          47.00       169.14
  157.91        2950.25           1226          57.00       212.73
  157.94        2950.50           1229          57.00       212.73
  157.97        2950.75           1232          51.00       186.57
  158.00        2951.00           1236          59.00       221.45
  158.03        2951.25           1239          53.00       195.29
  158.06        2951.50           1242          61.00       230.17
  158.09        2951.75           1246          49.00       177.86
  158.12        2952.00           1249          52.00       190.93
  158.15        2952.25           1252          57.00       212.73
  158.18        2952.50           1256          58.00       217.09
  158.21        2952.75           1259          62.00       234.53
  158.25        2953.00           1262          59.00       221.45
  158.28        2953.25           1266          56.00       208.37
  158.31        2953.50           1269          50.00       182.22
  158.34        2953.75           1272          54.00       199.65
  158.37        2954.00           1276          60.00       225.81
  158.40        2954.25           1279          50.00       182.22
  158.43        2954.50           1282          55.00       204.01
  158.46        2954.75           1286          59.00       221.45
  158.49        2955.00           1289          53.00       195.29
  158.52        2955.25           1292          66.00       251.96
  158.55        2955.50           1296          55.00       204.01
  158.58        2955.75           1299          47.00       169.14
  158.62        2956.00           1302          52.00       190.93
  158.65        2956.25           1306          57.00       212.73
  158.68        2956.50           1309          53.00       195.29
  158.71        2956.75           1312          56.00       208.37
  158.74        2957.00           1316          64.00       243.25
  158.77        2957.25           1319          58.00       217.09
  158.80        2957.50           1322          51.00       186.57
  158.83        2957.75           1326          51.00       186.57
  158.86        2958.00           1329          50.00       182.22
  158.89        2958.25           1332          53.00       195.29
  158.92        2958.50           1336          55.00       204.01
  158.95        2958.75           1339          57.00       212.73
  158.99        2959.00           1342          54.00       199.65
  159.02        2959.25           1346          51.00       186.57
  159.05        2959.50           1349          59.00       221.45
  159.08        2959.75           1352          62.00       234.53
  159.11        2960.00           1356          94.00       374.02
  159.14        2960.25           1359         115.00       465.57
  159.17        2960.50           1362         143.00       587.63
  159.20        2960.75           1366         170.00       705.33
  159.23        2961.00           1369         224.00       940.74
  159.26        2961.25           1372         242.00      1019.21
  159.29        2961.50           1376         288.00      1219.75
  159.33        2961.75           1379         405.00      1729.82
  159.36        2962.00           1382         929.00      4014.43
  159.39        2962.25           1386        2378.00     10333.63
  159.42        2962.50           1389        3504.00     15245.86
  159.45        2962.75           1392        4798.00     20892.78
  159.48        2963.00           1396        6337.00     27611.36
  159.51        2963.25           1399        7443.00     32441.32
  159.54        2963.50           1402        8724.00     38037.28
  159.57        2963.75           1406       10314.00     44985.70
  159.60        2964.00           1409       11658.00     50861.33
  159.63        2964.25           1412       12803.00     55868.63
  159.67        2964.50           1416       14622.00     63826.55
  159.70        2964.75           1419       15704.00     68561.98
  159.73        2965.00           1422       16990.00     74191.99
  159.76        2965.25           1426       18646.00     81444.62
  159.79        2965.50           1429       19753.00     86294.62
  159.82        2965.75           1432       21019.00     91842.94
  159.85        2966.00           1436       22574.00     98660.38
  159.88        2966.25           1439       23642.00    103344.30
  159.91        2966.50           1442       24725.00    108095.40
  159.95        2966.75           1446       25919.00    113335.00
  159.98        2967.00           1449       26170.00    114436.70
  160.01        2967.25           1452       26211.00    114616.60
  160.04        2967.50           1456       26359.00    115266.30
  160.07        2967.75           1459       26235.00    114722.00
  160.10        2968.00           1462       26342.00    115191.60
  160.13        2968.25           1466       25187.00    110122.60
  160.16        2968.50           1469       24228.00    105914.90
  160.19        2968.75           1472       23008.00    100563.60
  160.22        2969.00           1476       21611.00     94438.06
  160.25        2969.25           1479       20239.00     88424.32
  160.28        2969.50           1482       19264.00     84152.03
  160.32        2969.75           1486       17581.00     76779.98
  160.35        2970.00           1489       16440.00     71783.90
  160.38        2970.25           1492       15412.00     67283.90
  160.41        2970.50           1496       13670.00     59661.19
  160.44        2970.75           1499       12418.00     54184.78
  160.47        2971.00           1502       11078.00     48325.46
  160.50        2971.25           1506        9528.00     41550.45
  160.53        2971.50           1509        8249.00     35962.06
  160.56        2971.75           1513        6731.00     29331.82
  160.59        2972.00           1516        5528.00     24079.29
  160.63        2972.25           1519        4349.00     18933.16
  160.66        2972.50           1523        2841.00     12353.31
  160.69        2972.75           1526        1739.00      7546.61
  160.72        2973.00           1529         786.00      3390.93
  160.75        2973.25           1533         376.00      1603.39
  160.78        2973.50           1536         283.00      1197.95
  160.81        2973.75           1539         235.00       988.70
  160.84        2974.00           1543         205.00       857.91
  160.87        2974.25           1546         158.00       653.02
  160.90        2974.50           1549         135.00       552.76
  160.93        2974.75           1553          93.00       369.66
  160.97        2975.00           1556          86.00       339.15
  161.00        2975.25           1559          57.00       212.73
  161.03        2975.50           1563          59.00       221.45
  161.06        2975.75           1566          51.00       186.57
  161.09        2976.00           1569          56.00       208.37
  161.12        2976.25           1573          54.00       199.65
  161.15        2976.50           1576          44.00       156.06
  161.18        2976.75           1579          58.00       217.09
  161.21        2977.00           1583          50.00       182.22
  161.24        2977.25           1586          55.00       204.01
  161.27        2977.50           1590          57.00       212.73
  161.30        2977.75           1593          51.00       186.57
  161.34        2978.00           1596          49.00       177.86
  161.37        2978.25           1600          52.00       190.93
  161.40        2978.50           1603          47.00       169.14
  161.43        2978.75           1606          59.00       221.45
  161.46        2979.00           1610          51.00       186.57
  161.49        2979.25           1613          56.00       208.37
  161.52        2979.50           1616          50.00       182.22
  161.55        2979.75           1620          47.00       169.14
  161.58        2980.00           1623          49.00       177.86
  161.62        2980.25           1626          52.00       190.93
  161.65        2980.50           1630          58.00       217.09
  161.68        2980.75           1633          54.00       199.65
  161.71        2981.00           1637          53.00       195.29
  161.74        2981.25           1640          53.00       195.29
  161.77        2981.50           1643          45.00       160.42
  161.80        2981.75           1647          53.00       195.29
  161.83        2982.00           1650          44.00       156.06
  161.86        2982.25           1653          52.00       190.93
  161.90        2982.50           1657          48.00       173.50
  161.93        2982.75           1660          55.00       204.01
  161.96        2983.00           1663          51.00       186.57
  161.99        2983.25           1667          51.00       186.57
  162.02        2983.50           1670          42.00       147.34
  162.05        2983.75           1673          52.00       190.93
  162.08        2984.00           1677          44.00       156.06
HS scan finished at 02:42:18
end
************************************************************
  HS Scan of (1) Internal mercury lamp
************************************************************
Integration time is 0.2294 seconds per sample
dh260319Manchester 53.47 2.23 2.804185pr1000
************************************************************
Dead Time -------------------------  3E-08 
Number of Cycles Used -------------  4 
Starting Wavelength (Angstroms) ---  2950 
Final Wavelength (Angstoms) -------  2984 
Wavelength Increment (Angstroms) --  .25 
Filter Wheel #1 Position ---------- (1) Ground quartz diffuser (ND=2.32)
Filter Wheel #2 Position ---------- (1) Neutral Density 0.494



************************************************************
HS scan start time = 19:42:10
Dark Count =  7.2 


Time (GMT)  Wavelength (Ang)  Step Number  Raw Counts  Counts/Second

 1182.53        2950.00           1222          57.00       217.09
 1182.60        2950.25           1226          65.00       251.96
 1182.63        2950.50           1229          58.00       221.45
 1182.66        2950.75           1232          60.00       230.17
 1182.69        2951.00           1236          59.00       225.81
 1182.72        2951.25           1239          52.00       195.29
 1182.75        2951.50           1242          55.00       208.37
 1182.78        2951.75           1246          52.00       195.29
 1182.81        2952.00           1249          54.00       204.01
 1182.84        2952.25           1252          56.00       212.73
 1182.87        2952.50           1256          51.00       190.93
 1182.91        2952.75           1259          67.00       260.68
 1182.94        2953.00           1262          57.00       217.09
 1182.97        2953.25           1266          48.00       177.86
 1183.00        2953.50           1269          58.00       221.45
 1183.03        2953.75           1272          60.00       230.17
 1183.06        2954.00           1276          55.00       208.37
 1183.09        2954.25           1279          54.00       204.01
 1183.12        2954.50           1282          53.00       199.65
 1183.15        2954.75           1286          57.00       217.09
 1183.18        2955.00           1289          53.00       199.65
 1183.22        2955.25           1292          53.00       199.65
 1183.25        2955.50           1296          57.00       217.09
 1183.28        2955.75           1299          53.00       199.65
 1183.31        2956.00           1302          63.00       243.25
 1183.34        2956.25           1306          51.00       190.93
 1183.37        2956.50           1309          52.00       195.29
 1183.40        2956.75           1312          64.00       247.60
 1183.43        2957.00           1316          62.00       238.89
 1183.46        2957.25           1319          56.00       212.73
 1183.49        2957.50           1322          53.00       199.65
 1183.52        2957.75           1326          52.00       195.29
 1183.56        2958.00           1329          57.00       217.09
 1183.59        2958.25           1332          52.00       195.29
 1183.62        2958.50           1336          55.00       208.37
 1183.65        2958.75           1339          51.00       190.93
 1183.68        2959.00           1342          57.00       217.09
 1183.71        2959.25           1346          60.00       230.17
 1183.74        2959.50           1349          64.00       247.60
 1183.77        2959.75           1352          67.00       260.68
 1183.80        2960.00           1356          89.00       356.59
 1183.83        2960.25           1359         116.00       474.29
 1183.87        2960.50           1362         136.00       561.47
 1183.90        2960.75           1366         174.00       727.13
 1183.93        2961.00           1369         205.00       862.27
 1183.96        2961.25           1372         252.00      1067.17
 1183.99        2961.50           1376         294.00      1250.26
 1184.02        2961.75           1379         404.00      1729.82
 1184.05        2962.00           1382         809.00      3495.57
 1184.08        2962.25           1386        2017.00      8763.42
 1184.11        2962.50           1389        3346.00     14560.85
 1184.14        2962.75           1392        4546.00     19797.28
 1184.17        2963.00           1396        6190.00     26973.87
 1184.21        2963.25           1399        7326.00     31934.68
 1184.24        2963.50           1402        8420.00     36713.47
 1184.27        2963.75           1406       10116.00     44124.64
 1184.30        2964.00           1409       11344.00     49492.79
 1184.33        2964.25           1412       12666.00     55273.80
 1184.36        2964.50           1416       14319.00     62505.07
 1184.39        2964.75           1419       15439.00     67406.45
 1184.42        2965.00           1422       16714.00     72987.90
 1184.46        2965.25           1426       18330.00     80064.80
 1184.49        2965.50           1429       19630.00     85760.03
 1184.52        2965.75           1432       21005.00     91785.97
 1184.55        2966.00           1436       22571.00     98651.61
 1184.58        2966.25           1439       23632.00    103304.90
 1184.61        2966.50           1442       24948.00    109078.20
 1184.64        2966.75           1446       25940.00    113431.60
 1184.67        2967.00           1449       26297.00    114998.50
 1184.70        2967.25           1452       26329.00    115139.00
 1184.73        2967.50           1456       26262.00    114844.90
 1184.77        2967.75           1459       26144.00    114327.00
 1184.80        2968.00           1462       26142.00    114318.20
 1184.83        2968.25           1466       25265.00    110469.30
 1184.86        2968.50           1469       24311.00    106283.40
 1184.89        2968.75           1472       23048.00    100743.40
 1184.92        2969.00           1476       21384.00     93447.32
 1184.95        2969.25           1479       20326.00     88809.99
 1184.98        2969.50           1482       19026.00     83113.70
 1185.01        2969.75           1486       17409.00     76031.13
 1185.05        2970.00           1489       16219.00     70820.76
 1185.08        2970.25           1492       15041.00     65664.53
 1185.11        2970.50           1496       13424.00     58589.38
 1185.14        2970.75           1499       12214.00     53297.01
 1185.17        2971.00           1502       11066.00     48277.37
 1185.20        2971.25           1506        9415.00     41061.01
 1185.23        2971.50           1509        8055.00     35118.93
 1185.26        2971.75           1513        6554.00     28563.26
 1185.29        2972.00           1516        5382.00     23446.31
 1185.33        2972.25           1519        4140.00     18025.44
 1185.36        2972.50           1523        2692.00     11707.69
 1185.39        2972.75           1526        1501.00      6513.04
 1185.42        2973.00           1529         705.00      3042.13
 1185.45        2973.25           1533         342.00      1459.52
 1185.48        2973.50           1536         241.00      1019.21
 1185.51        2973.75           1539         216.00       910.23
 1185.54        2974.00           1543         165.00       687.90
 1185.57        2974.25           1546         133.00       548.40
 1185.61        2974.50           1549         101.00       408.90
 1185.64        2974.75           1553          93.00       374.02
 1185.67        2975.00           1556          59.00       225.81
 1185.70        2975.25           1559          56.00       212.73
 1185.73        2975.50           1563          52.00       195.29
 1185.76        2975.75           1566          51.00       190.93
 1185.79        2976.00           1569          50.00       186.57
 1185.82        2976.25           1573          52.00       195.29
 1185.85        2976.50           1576          57.00       217.09
 1185.89        2976.75           1579          52.00       195.29
 1185.92        2977.00           1583          44.00       160.42
 1185.95        2977.25           1586          52.00       195.29
 1185.98        2977.50           1590          50.00       186.57
 1186.01        2977.75           1593          57.00       217.09
 1186.04        2978.00           1596          51.00       190.93
 1186.07        2978.25           1600          52.00       195.29
 1186.10        2978.50           1603          59.00       225.81
 1186.13        2978.75           1606          56.00       212.73
 1186.16        2979.00           1610          49.00       182.22
 1186.20        2979.25           1613          48.00       177.86
 1186.23        2979.50           1616          52.00       195.29
 1186.26        2979.75           1620          58.00       221.45
 1186.29        2980.00           1623          50.00       186.57
 1186.32        2980.25           1626          49.00       182.22
 1186.35        2980.50           1630          48.00       177.86
 1186.39        2980.75           1633          47.00       173.50
 1186.42        2981.00           1637          48.00       177.86
 1186.45        2981.25           1640          51.00       190.93
 1186.48        2981.50           1643          48.00       177.86
 1186.51        2981.75           1647          52.00       195.29
 1186.54        2982.00           1650          51.00       190.93
 1186.57        2982.25           1653          51.00       190.93
 1186.60        2982.50           1657          60.00       230.17
 1186.63        2982.75           1660          52.00       195.29
 1186.66        2983.00           1663          50.00       186.57
 1186.69        2983.25           1667          52.00       195.29
 1186.72        2983.50           1670          50.00       186.57
 1186.75        2983.75           1673          46.00       169.14
 1186.79        2984.00           1677          47.00       173.50
HS scan finished at 19:47:00
end
