************************************************************
  HS Scan of (1) Internal mercury lamp
************************************************************
Integration time is 0.2294 seconds per sample
dh220318Manchester 53.47 2.23 2.804185pr1000
************************************************************
Dead Time -------------------------  3E-08 
Number of Cycles Used -------------  4 
Starting Wavelength (Angstroms) ---  2950 
Final Wavelength (Angstoms) -------  2984 
Wavelength Increment (Angstroms) --  .25 
Filter Wheel #1 Position ---------- (1) Ground quartz diffuser (ND=2.32)
Filter Wheel #2 Position ---------- (1) Neutral Density 0.494



************************************************************
HS scan start time = 02:54:58
Dark Count =  6.5 


Time (GMT)  Wavelength (Ang)  Step Number  Raw Counts  Counts/Second

  175.34        2950.00           1222          62.00       241.94
  175.40        2950.25           1226          65.00       255.02
  175.43        2950.50           1229          50.00       189.63
  175.47        2950.75           1232          69.00       272.45
  175.50        2951.00           1236          58.00       224.50
  175.53        2951.25           1239          54.00       207.06
  175.56        2951.50           1242          61.00       237.58
  175.59        2951.75           1246          55.00       211.42
  175.62        2952.00           1249          56.00       215.78
  175.65        2952.25           1252          55.00       211.42
  175.68        2952.50           1256          50.00       189.63
  175.71        2952.75           1259          59.00       228.86
  175.74        2953.00           1262          58.00       224.50
  175.78        2953.25           1266          61.00       237.58
  175.81        2953.50           1269          52.00       198.34
  175.84        2953.75           1272          60.00       233.22
  175.87        2954.00           1276          61.00       237.58
  175.90        2954.25           1279          57.00       220.14
  175.93        2954.50           1282          60.00       233.22
  175.96        2954.75           1286          63.00       246.30
  175.99        2955.00           1289          48.00       180.91
  176.02        2955.25           1292          61.00       237.58
  176.05        2955.50           1296          56.00       215.78
  176.08        2955.75           1299          58.00       224.50
  176.12        2956.00           1302          54.00       207.06
  176.15        2956.25           1306          59.00       228.86
  176.18        2956.50           1309          57.00       220.14
  176.21        2956.75           1312          63.00       246.30
  176.24        2957.00           1316          54.00       207.06
  176.27        2957.25           1319          61.00       237.58
  176.30        2957.50           1322          57.00       220.14
  176.33        2957.75           1326          55.00       211.42
  176.36        2958.00           1329          53.00       202.70
  176.40        2958.25           1332          62.00       241.94
  176.43        2958.50           1336          56.00       215.78
  176.46        2958.75           1339          54.00       207.06
  176.49        2959.00           1342          53.00       202.70
  176.52        2959.25           1346          60.00       233.22
  176.55        2959.50           1349          66.00       259.37
  176.58        2959.75           1352          84.00       337.84
  176.61        2960.00           1356         109.00       446.82
  176.64        2960.25           1359         131.00       542.73
  176.67        2960.50           1362         176.00       738.90
  176.70        2960.75           1366         226.00       956.87
  176.73        2961.00           1369         267.00      1135.61
  176.76        2961.25           1372         287.00      1222.80
  176.80        2961.50           1376         381.00      1632.60
  176.83        2961.75           1379         585.00      2521.99
  176.86        2962.00           1382        1287.00      5582.89
  176.89        2962.25           1386        2937.00     12779.53
  176.92        2962.50           1389        4297.00     18713.64
  176.95        2962.75           1392        5706.00     24863.79
  176.98        2963.00           1396        7521.00     32789.43
  177.01        2963.25           1399        9047.00     39456.00
  177.04        2963.50           1402       10638.00     46409.38
  177.07        2963.75           1406       12834.00     56011.66
  177.10        2964.00           1409       14443.00     63050.71
  177.13        2964.25           1412       15973.00     69746.93
  177.16        2964.50           1416       17949.00     78399.10
  177.20        2964.75           1419       19322.00     84413.58
  177.23        2965.00           1422       20896.00     91311.27
  177.26        2965.25           1426       22903.00    100110.60
  177.29        2965.50           1429       24404.00    106694.50
  177.32        2965.75           1432       25862.00    113092.30
  177.35        2966.00           1436       27845.00    121797.80
  177.38        2966.25           1439       29118.00    127388.70
  177.41        2966.50           1442       30432.00    133161.70
  177.44        2966.75           1446       31749.00    138949.90
  177.47        2967.00           1449       32021.00    140145.50
  177.50        2967.25           1452       32129.00    140620.30
  177.54        2967.50           1456       32006.00    140079.60
  177.57        2967.75           1459       32022.00    140149.90
  177.60        2968.00           1462       31742.00    138919.10
  177.63        2968.25           1466       30682.00    134260.30
  177.66        2968.50           1469       29180.00    127661.10
  177.69        2968.75           1472       28046.00    122680.40
  177.72        2969.00           1476       26313.00    115071.80
  177.75        2969.25           1479       24646.00    107756.20
  177.78        2969.50           1482       23174.00    101299.10
  177.82        2969.75           1486       21032.00     91907.38
  177.85        2970.00           1489       19766.00     86359.02
  177.88        2970.25           1492       18415.00     80440.18
  177.91        2970.50           1496       16340.00     71353.54
  177.94        2970.75           1499       14914.00     65111.81
  177.97        2971.00           1502       13492.00     58889.91
  178.00        2971.25           1506       11420.00     49828.14
  178.03        2971.50           1509        9972.00     43498.32
  178.07        2971.75           1513        8001.00     34886.10
  178.10        2972.00           1516        6639.00     28937.49
  178.13        2972.25           1519        5202.00     22663.62
  178.16        2972.50           1523        3228.00     14049.08
  178.19        2972.75           1526        1776.00      7715.39
  178.22        2973.00           1529         716.00      3093.14
  178.25        2973.25           1533         388.00      1663.12
  178.28        2973.50           1536         315.00      1344.87
  178.31        2973.75           1539         257.00      1092.01
  178.34        2974.00           1543         235.00       996.11
  178.37        2974.25           1546         179.00       751.98
  178.40        2974.50           1549         122.00       503.50
  178.43        2974.75           1553          98.00       398.87
  178.46        2975.00           1556          68.00       268.09
  178.50        2975.25           1559          60.00       233.22
  178.53        2975.50           1563          60.00       233.22
  178.56        2975.75           1566          59.00       228.86
  178.59        2976.00           1569          48.00       180.91
  178.62        2976.25           1573          61.00       237.58
  178.65        2976.50           1576          60.00       233.22
  178.68        2976.75           1579          53.00       202.70
  178.71        2977.00           1583          58.00       224.50
  178.74        2977.25           1586          55.00       211.42
  178.77        2977.50           1590          59.00       228.86
  178.80        2977.75           1593          63.00       246.30
  178.83        2978.00           1596          55.00       211.42
  178.86        2978.25           1600          54.00       207.06
  178.89        2978.50           1603          53.00       202.70
  178.93        2978.75           1606          59.00       228.86
  178.96        2979.00           1610          56.00       215.78
  178.99        2979.25           1613          53.00       202.70
  179.02        2979.50           1616          54.00       207.06
  179.05        2979.75           1620          55.00       211.42
  179.08        2980.00           1623          50.00       189.63
  179.11        2980.25           1626          55.00       211.42
  179.14        2980.50           1630          55.00       211.42
  179.17        2980.75           1633          56.00       215.78
  179.20        2981.00           1637          57.00       220.14
  179.23        2981.25           1640          52.00       198.34
  179.26        2981.50           1643          53.00       202.70
  179.30        2981.75           1647          51.00       193.99
  179.33        2982.00           1650          48.00       180.91
  179.36        2982.25           1653          48.00       180.91
  179.39        2982.50           1657          58.00       224.50
  179.42        2982.75           1660          55.00       211.42
  179.45        2983.00           1663          57.00       220.14
  179.48        2983.25           1667          56.00       215.78
  179.51        2983.50           1670          45.00       167.83
  179.54        2983.75           1673          51.00       193.99
  179.57        2984.00           1677          56.00       215.78
HS scan finished at 02:59:47
end
************************************************************
  HS Scan of (1) Internal mercury lamp
************************************************************
Integration time is 0.2294 seconds per sample
dh220318Manchester 53.47 2.23 2.804185pr1000
************************************************************
Dead Time -------------------------  3E-08 
Number of Cycles Used -------------  4 
Starting Wavelength (Angstroms) ---  2950 
Final Wavelength (Angstoms) -------  2984 
Wavelength Increment (Angstroms) --  .25 
Filter Wheel #1 Position ---------- (1) Ground quartz diffuser (ND=2.32)
Filter Wheel #2 Position ---------- (1) Neutral Density 0.494



************************************************************
HS scan start time = 19:12:03
Dark Count =  5.9 


Time (GMT)  Wavelength (Ang)  Step Number  Raw Counts  Counts/Second

 1152.42        2950.00           1222          58.00       227.12
 1152.48        2950.25           1226          55.00       214.04
 1152.51        2950.50           1229          56.00       218.40
 1152.55        2950.75           1232          60.00       235.83
 1152.58        2951.00           1236          62.00       244.55
 1152.61        2951.25           1239          62.00       244.55
 1152.64        2951.50           1242          59.00       231.48
 1152.67        2951.75           1246          59.00       231.48
 1152.70        2952.00           1249          61.00       240.19
 1152.73        2952.25           1252          53.00       205.32
 1152.76        2952.50           1256          56.00       218.40
 1152.79        2952.75           1259          55.00       214.04
 1152.82        2953.00           1262          66.00       261.99
 1152.85        2953.25           1266          64.00       253.27
 1152.89        2953.50           1269          57.00       222.76
 1152.92        2953.75           1272          58.00       227.12
 1152.95        2954.00           1276          54.00       209.68
 1152.98        2954.25           1279          60.00       235.83
 1153.01        2954.50           1282          55.00       214.04
 1153.04        2954.75           1286          61.00       240.19
 1153.07        2955.00           1289          55.00       214.04
 1153.10        2955.25           1292          56.00       218.40
 1153.13        2955.50           1296          63.00       248.91
 1153.16        2955.75           1299          49.00       187.88
 1153.19        2956.00           1302          55.00       214.04
 1153.22        2956.25           1306          54.00       209.68
 1153.25        2956.50           1309          53.00       205.32
 1153.28        2956.75           1312          59.00       231.48
 1153.31        2957.00           1316          52.00       200.96
 1153.35        2957.25           1319          57.00       222.76
 1153.38        2957.50           1322          59.00       231.48
 1153.41        2957.75           1326          61.00       240.19
 1153.44        2958.00           1329          54.00       209.68
 1153.47        2958.25           1332          57.00       222.76
 1153.50        2958.50           1336          60.00       235.83
 1153.53        2958.75           1339          61.00       240.19
 1153.56        2959.00           1342          57.00       222.76
 1153.59        2959.25           1346          50.00       192.24
 1153.62        2959.50           1349          64.00       253.27
 1153.66        2959.75           1352          76.00       305.58
 1153.69        2960.00           1356          95.00       388.41
 1153.72        2960.25           1359         127.00       527.91
 1153.75        2960.50           1362         184.00       776.39
 1153.78        2960.75           1366         223.00       946.41
 1153.81        2961.00           1369         247.00      1051.04
 1153.84        2961.25           1372         282.00      1203.62
 1153.87        2961.50           1376         369.00      1582.90
 1153.90        2961.75           1379         540.00      2328.41
 1153.93        2962.00           1382        1162.00      5040.43
 1153.96        2962.25           1386        2750.00     11966.37
 1153.99        2962.50           1389        4246.00     18493.69
 1154.03        2962.75           1392        5576.00     24298.88
 1154.06        2963.00           1396        7343.00     32014.61
 1154.09        2963.25           1399        8829.00     38506.10
 1154.12        2963.50           1402       10375.00     45262.38
 1154.15        2963.75           1406       12323.00     53779.37
 1154.18        2964.00           1409       13934.00     60826.24
 1154.21        2964.25           1412       15628.00     68239.40
 1154.24        2964.50           1416       17618.00     76952.08
 1154.27        2964.75           1419       19241.00     84061.33
 1154.31        2965.00           1422       20716.00     90524.93
 1154.34        2965.25           1426       22731.00     99358.94
 1154.37        2965.50           1429       24230.00    105933.80
 1154.40        2965.75           1432       25729.00    112511.20
 1154.43        2966.00           1436       27537.00    120448.00
 1154.46        2966.25           1439       29028.00    126996.00
 1154.49        2966.50           1442       30370.00    132891.90
 1154.52        2966.75           1446       31784.00    139106.30
 1154.55        2967.00           1449       31931.00    139752.50
 1154.58        2967.25           1452       32047.00    140262.50
 1154.62        2967.50           1456       31974.00    139941.60
 1154.65        2967.75           1459       31947.00    139822.90
 1154.68        2968.00           1462       31885.00    139550.30
 1154.71        2968.25           1466       30670.00    134210.20
 1154.74        2968.50           1469       29490.00    129025.50
 1154.77        2968.75           1472       28064.00    122762.10
 1154.80        2969.00           1476       26448.00    115667.00
 1154.83        2969.25           1479       25006.00    109338.40
 1154.86        2969.50           1482       23535.00    102885.10
 1154.89        2969.75           1486       21580.00     94312.24
 1154.93        2970.00           1489       19996.00     87369.51
 1154.96        2970.25           1492       18522.00     80911.51
 1154.99        2970.50           1496       16718.00     73011.10
 1155.02        2970.75           1499       15266.00     66654.96
 1155.05        2971.00           1502       13578.00     59268.76
 1155.08        2971.25           1506       11529.00     50307.34
 1155.11        2971.50           1509       10107.00     44090.98
 1155.14        2971.75           1513        8300.00     36194.90
 1155.17        2972.00           1516        6867.00     29935.77
 1155.20        2972.25           1519        5432.00     23670.25
 1155.23        2972.50           1523        3545.00     15434.78
 1155.27        2972.75           1526        2214.00      9628.33
 1155.30        2973.00           1529         960.00      4159.63
 1155.33        2973.25           1533         423.00      1818.32
 1155.36        2973.50           1536         315.00      1347.48
 1155.39        2973.75           1539         255.00      1085.91
 1155.42        2974.00           1543         220.00       933.33
 1155.45        2974.25           1546         162.00       680.48
 1155.48        2974.50           1549         135.00       562.78
 1155.51        2974.75           1553          90.00       366.61
 1155.54        2975.00           1556          76.00       305.58
 1155.57        2975.25           1559          56.00       218.40
 1155.60        2975.50           1563          58.00       227.12
 1155.63        2975.75           1566          61.00       240.19
 1155.66        2976.00           1569          65.00       257.63
 1155.70        2976.25           1573          51.00       196.60
 1155.73        2976.50           1576          52.00       200.96
 1155.76        2976.75           1579          57.00       222.76
 1155.79        2977.00           1583          54.00       209.68
 1155.82        2977.25           1586          58.00       227.12
 1155.85        2977.50           1590          56.00       218.40
 1155.88        2977.75           1593          54.00       209.68
 1155.91        2978.00           1596          63.00       248.91
 1155.94        2978.25           1600          58.00       227.12
 1155.97        2978.50           1603          52.00       200.96
 1156.01        2978.75           1606          57.00       222.76
 1156.04        2979.00           1610          52.00       200.96
 1156.07        2979.25           1613          58.00       227.12
 1156.10        2979.50           1616          59.00       231.48
 1156.13        2979.75           1620          53.00       205.32
 1156.16        2980.00           1623          46.00       174.80
 1156.19        2980.25           1626          54.00       209.68
 1156.22        2980.50           1630          60.00       235.83
 1156.25        2980.75           1633          56.00       218.40
 1156.28        2981.00           1637          51.00       196.60
 1156.31        2981.25           1640          52.00       200.96
 1156.34        2981.50           1643          51.00       196.60
 1156.37        2981.75           1647          51.00       196.60
 1156.40        2982.00           1650          56.00       218.40
 1156.44        2982.25           1653          58.00       227.12
 1156.47        2982.50           1657          50.00       192.24
 1156.50        2982.75           1660          52.00       200.96
 1156.53        2983.00           1663          51.00       196.60
 1156.56        2983.25           1667          56.00       218.40
 1156.59        2983.50           1670          53.00       205.32
 1156.62        2983.75           1673          51.00       196.60
 1156.65        2984.00           1677          56.00       218.40
HS scan finished at 19:16:52
end
