************************************************************
  HS Scan of (1) Internal mercury lamp
************************************************************
Integration time is 0.2294 seconds per sample
dh240318Manchester 53.47 2.23 2.804185pr1000
************************************************************
Dead Time -------------------------  3E-08 
Number of Cycles Used -------------  4 
Starting Wavelength (Angstroms) ---  2950 
Final Wavelength (Angstoms) -------  2984 
Wavelength Increment (Angstroms) --  .25 
Filter Wheel #1 Position ---------- (1) Ground quartz diffuser (ND=2.32)
Filter Wheel #2 Position ---------- (1) Neutral Density 0.494



************************************************************
HS scan start time = 02:45:48
Dark Count =  6.1 


Time (GMT)  Wavelength (Ang)  Step Number  Raw Counts  Counts/Second

  166.17        2950.00           1222          53.00       204.45
  166.24        2950.25           1226          56.00       217.53
  166.27        2950.50           1229          57.00       221.88
  166.30        2950.75           1232          66.00       261.12
  166.33        2951.00           1236          60.00       234.96
  166.36        2951.25           1239          55.00       213.17
  166.39        2951.50           1242          65.00       256.76
  166.42        2951.75           1246          66.00       261.12
  166.45        2952.00           1249          62.00       243.68
  166.49        2952.25           1252          58.00       226.24
  166.52        2952.50           1256          63.00       248.04
  166.55        2952.75           1259          54.00       208.81
  166.58        2953.00           1262          62.00       243.68
  166.61        2953.25           1266          64.00       252.40
  166.64        2953.50           1269          67.00       265.48
  166.67        2953.75           1272          62.00       243.68
  166.70        2954.00           1276          61.00       239.32
  166.73        2954.25           1279          55.00       213.17
  166.76        2954.50           1282          63.00       248.04
  166.79        2954.75           1286          55.00       213.17
  166.82        2955.00           1289          65.00       256.76
  166.85        2955.25           1292          62.00       243.68
  166.89        2955.50           1296          54.00       208.81
  166.92        2955.75           1299          63.00       248.04
  166.95        2956.00           1302          65.00       256.76
  166.98        2956.25           1306          61.00       239.32
  167.01        2956.50           1309          64.00       252.40
  167.04        2956.75           1312          60.00       234.96
  167.07        2957.00           1316          63.00       248.04
  167.10        2957.25           1319          62.00       243.68
  167.13        2957.50           1322          66.00       261.12
  167.17        2957.75           1326          58.00       226.24
  167.20        2958.00           1329          58.00       226.24
  167.23        2958.25           1332          59.00       230.60
  167.26        2958.50           1336          52.00       200.09
  167.29        2958.75           1339          57.00       221.88
  167.32        2959.00           1342          67.00       265.48
  167.35        2959.25           1346          56.00       217.53
  167.38        2959.50           1349          71.00       282.91
  167.41        2959.75           1352          85.00       343.94
  167.44        2960.00           1356         107.00       439.85
  167.47        2960.25           1359         136.00       566.27
  167.50        2960.50           1362         172.00       723.21
  167.53        2960.75           1366         211.00       893.22
  167.57        2961.00           1369         248.00      1054.52
  167.60        2961.25           1372         278.00      1185.31
  167.63        2961.50           1376         354.00      1516.63
  167.66        2961.75           1379         457.00      1965.68
  167.69        2962.00           1382         848.00      3670.41
  167.72        2962.25           1386        2252.00      9793.20
  167.75        2962.50           1389        3732.00     16249.86
  167.78        2962.75           1392        5110.00     22263.78
  167.81        2963.00           1396        6903.00     30092.11
  167.84        2963.25           1399        8389.00     36582.85
  167.87        2963.50           1402        9792.00     42713.38
  167.90        2963.75           1406       12069.00     52667.73
  167.94        2964.00           1409       13527.00     59044.78
  167.97        2964.25           1412       15035.00     65643.10
  168.00        2964.50           1416       17265.00     75405.35
  168.03        2964.75           1419       18640.00     81427.53
  168.06        2965.00           1422       20229.00     88389.71
  168.09        2965.25           1426       22074.00     96477.18
  168.12        2965.50           1429       23656.00    103414.90
  168.15        2965.75           1432       24918.00    108951.40
  168.18        2966.00           1436       26796.00    117193.80
  168.22        2966.25           1439       28281.00    123714.20
  168.25        2966.50           1442       29796.00    130369.00
  168.28        2966.75           1446       31327.00    137096.70
  168.31        2967.00           1449       32153.00    140727.60
  168.34        2967.25           1452       32272.00    141250.70
  168.37        2967.50           1456       32128.00    140617.70
  168.40        2967.75           1459       32131.00    140630.90
  168.43        2968.00           1462       32295.00    141351.90
  168.46        2968.25           1466       31299.00    136973.60
  168.49        2968.50           1469       30162.00    131977.10
  168.52        2968.75           1472       28750.00    125774.00
  168.55        2969.00           1476       27008.00    118124.50
  168.59        2969.25           1479       25625.00    112053.90
  168.62        2969.50           1482       23942.00    104669.50
  168.65        2969.75           1486       21962.00     95986.12
  168.68        2970.00           1489       20488.00     89524.78
  168.71        2970.25           1492       19007.00     83035.28
  168.74        2970.50           1496       17004.00     74262.48
  168.77        2970.75           1499       15522.00     67774.54
  168.80        2971.00           1502       14017.00     61188.51
  168.83        2971.25           1506       11983.00     52291.65
  168.87        2971.50           1509       10540.00     45982.75
  168.90        2971.75           1513        8636.00     37661.97
  168.93        2972.00           1516        7182.00     31310.57
  168.96        2972.25           1519        5773.00     25158.04
  168.99        2972.50           1523        3746.00     16310.94
  169.02        2972.75           1526        2391.00     10399.50
  169.05        2973.00           1529        1168.00      5065.72
  169.08        2973.25           1533         456.00      1961.32
  169.11        2973.50           1536         330.00      1412.00
  169.14        2973.75           1539         269.00      1146.07
  169.18        2974.00           1543         239.00      1015.29
  169.21        2974.25           1546         192.00       810.39
  169.24        2974.50           1549         147.00       614.22
  169.27        2974.75           1553          96.00       391.90
  169.30        2975.00           1556          78.00       313.43
  169.33        2975.25           1559          64.00       252.40
  169.36        2975.50           1563          56.00       217.53
  169.39        2975.75           1566          66.00       261.12
  169.42        2976.00           1569          52.00       200.09
  169.45        2976.25           1573          56.00       217.53
  169.48        2976.50           1576          64.00       252.40
  169.52        2976.75           1579          55.00       213.17
  169.55        2977.00           1583          55.00       213.17
  169.58        2977.25           1586          60.00       234.96
  169.61        2977.50           1590          58.00       226.24
  169.64        2977.75           1593          50.00       191.37
  169.67        2978.00           1596          60.00       234.96
  169.70        2978.25           1600          54.00       208.81
  169.73        2978.50           1603          58.00       226.24
  169.76        2978.75           1606          47.00       178.29
  169.79        2979.00           1610          49.00       187.01
  169.82        2979.25           1613          53.00       204.45
  169.85        2979.50           1616          69.00       274.20
  169.88        2979.75           1620          55.00       213.17
  169.91        2980.00           1623          54.00       208.81
  169.94        2980.25           1626          50.00       191.37
  169.98        2980.50           1630          62.00       243.68
  170.01        2980.75           1633          55.00       213.17
  170.04        2981.00           1637          54.00       208.81
  170.07        2981.25           1640          48.00       182.65
  170.10        2981.50           1643          62.00       243.68
  170.13        2981.75           1647          54.00       208.81
  170.16        2982.00           1650          52.00       200.09
  170.19        2982.25           1653          54.00       208.81
  170.22        2982.50           1657          47.00       178.29
  170.25        2982.75           1660          51.00       195.73
  170.29        2983.00           1663          55.00       213.17
  170.32        2983.25           1667          45.00       169.57
  170.35        2983.50           1670          53.00       204.45
  170.38        2983.75           1673          50.00       191.37
  170.41        2984.00           1677          54.00       208.81
HS scan finished at 02:50:37
end
************************************************************
  HS Scan of (1) Internal mercury lamp
************************************************************
Integration time is 0.2294 seconds per sample
dh240318Manchester 53.47 2.23 2.804185pr1000
************************************************************
Dead Time -------------------------  3E-08 
Number of Cycles Used -------------  4 
Starting Wavelength (Angstroms) ---  2950 
Final Wavelength (Angstoms) -------  2984 
Wavelength Increment (Angstroms) --  .25 
Filter Wheel #1 Position ---------- (1) Ground quartz diffuser (ND=2.32)
Filter Wheel #2 Position ---------- (1) Neutral Density 0.494



************************************************************
HS scan start time = 19:42:01
Dark Count =  7.8 


Time (GMT)  Wavelength (Ang)  Step Number  Raw Counts  Counts/Second

 1182.38        2950.00           1222          57.00       214.47
 1182.45        2950.25           1226          57.00       214.47
 1182.48        2950.50           1229          61.00       231.91
 1182.51        2950.75           1232          69.00       266.79
 1182.54        2951.00           1236          61.00       231.91
 1182.57        2951.25           1239          56.00       210.11
 1182.60        2951.50           1242          60.00       227.55
 1182.63        2951.75           1246          57.00       214.47
 1182.66        2952.00           1249          62.00       236.27
 1182.69        2952.25           1252          58.00       218.83
 1182.73        2952.50           1256          50.00       183.96
 1182.76        2952.75           1259          52.00       192.68
 1182.79        2953.00           1262          57.00       214.47
 1182.82        2953.25           1266          59.00       223.19
 1182.85        2953.50           1269          63.00       240.63
 1182.88        2953.75           1272          61.00       231.91
 1182.91        2954.00           1276          59.00       223.19
 1182.94        2954.25           1279          66.00       253.71
 1182.97        2954.50           1282          57.00       214.47
 1183.00        2954.75           1286          62.00       236.27
 1183.03        2955.00           1289          61.00       231.91
 1183.07        2955.25           1292          59.00       223.19
 1183.10        2955.50           1296          63.00       240.63
 1183.13        2955.75           1299          55.00       205.76
 1183.16        2956.00           1302          61.00       231.91
 1183.19        2956.25           1306          67.00       258.07
 1183.22        2956.50           1309          64.00       244.99
 1183.25        2956.75           1312          55.00       205.76
 1183.28        2957.00           1316          57.00       214.47
 1183.31        2957.25           1319          56.00       210.11
 1183.34        2957.50           1322          52.00       192.68
 1183.37        2957.75           1326          61.00       231.91
 1183.40        2958.00           1329          56.00       210.11
 1183.43        2958.25           1332          62.00       236.27
 1183.47        2958.50           1336          59.00       223.19
 1183.50        2958.75           1339          56.00       210.11
 1183.53        2959.00           1342          64.00       244.99
 1183.56        2959.25           1346          60.00       227.55
 1183.59        2959.50           1349          77.00       301.66
 1183.62        2959.75           1352          84.00       332.17
 1183.65        2960.00           1356         114.00       462.95
 1183.68        2960.25           1359         126.00       515.27
 1183.71        2960.50           1362         182.00       759.39
 1183.74        2960.75           1366         223.00       938.13
 1183.77        2961.00           1369         268.00      1134.30
 1183.80        2961.25           1372         301.00      1278.17
 1183.84        2961.50           1376         360.00      1535.38
 1183.87        2961.75           1379         472.00      2023.66
 1183.90        2962.00           1382         939.00      4059.78
 1183.93        2962.25           1386        2430.00     10562.20
 1183.96        2962.50           1389        3843.00     16726.79
 1183.99        2962.75           1392        5244.00     22841.28
 1184.02        2963.00           1396        7093.00     30914.45
 1184.05        2963.25           1399        8694.00     37907.95
 1184.08        2963.50           1402       10282.00     44847.58
 1184.11        2963.75           1406       12144.00     52988.27
 1184.15        2964.00           1409       13652.00     59584.18
 1184.18        2964.25           1412       15140.00     66095.19
 1184.21        2964.50           1416       17089.00     74627.22
 1184.24        2964.75           1419       18567.00     81100.30
 1184.27        2965.00           1422       20150.00     88036.04
 1184.30        2965.25           1426       22006.00     96171.57
 1184.33        2965.50           1429       23530.00    102854.80
 1184.36        2965.75           1432       25032.00    109444.20
 1184.39        2966.00           1436       27113.00    118578.00
 1184.43        2966.25           1439       28281.00    123706.70
 1184.46        2966.50           1442       29700.00    129939.70
 1184.49        2966.75           1446       31240.00    136706.90
 1184.52        2967.00           1449       31889.00    139559.50
 1184.55        2967.25           1452       32146.00    140689.30
 1184.58        2967.50           1456       32102.00    140495.90
 1184.61        2967.75           1459       32016.00    140117.80
 1184.64        2968.00           1462       31856.00    139414.50
 1184.67        2968.25           1466       31236.00    136689.30
 1184.70        2968.50           1469       29946.00    131020.50
 1184.74        2968.75           1472       28840.00    126161.90
 1184.77        2969.00           1476       26900.00    117642.90
 1184.80        2969.25           1479       25249.00    110396.40
 1184.83        2969.50           1482       23734.00    103749.60
 1184.86        2969.75           1486       21759.00     95088.65
 1184.89        2970.00           1489       20484.00     89499.79
 1184.92        2970.25           1492       19087.00     83378.31
 1184.95        2970.50           1496       17220.00     75200.85
 1184.98        2970.75           1499       15595.00     68086.63
 1185.01        2971.00           1502       14234.00     62130.52
 1185.04        2971.25           1506       12274.00     53556.78
 1185.08        2971.50           1509       10545.00     45997.17
 1185.11        2971.75           1513        8662.00     37768.14
 1185.14        2972.00           1516        7175.00     31272.57
 1185.17        2972.25           1519        5864.00     25547.91
 1185.20        2972.50           1523        3871.00     16848.97
 1185.23        2972.75           1526        2369.00     10296.12
 1185.26        2973.00           1529        1043.00      4513.25
 1185.29        2973.25           1533         433.00      1853.63
 1185.32        2973.50           1536         323.00      1374.08
 1185.36        2973.75           1539         289.00      1225.85
 1185.39        2974.00           1543         239.00      1007.88
 1185.42        2974.25           1546         168.00       698.36
 1185.45        2974.50           1549         132.00       541.42
 1185.48        2974.75           1553         102.00       410.64
 1185.51        2975.00           1556          76.00       297.30
 1185.54        2975.25           1559          69.00       266.79
 1185.57        2975.50           1563          62.00       236.27
 1185.60        2975.75           1566          57.00       214.47
 1185.63        2976.00           1569          73.00       284.22
 1185.67        2976.25           1573          60.00       227.55
 1185.70        2976.50           1576          61.00       231.91
 1185.73        2976.75           1579          54.00       201.40
 1185.76        2977.00           1583          52.00       192.68
 1185.79        2977.25           1586          54.00       201.40
 1185.82        2977.50           1590          57.00       214.47
 1185.85        2977.75           1593          58.00       218.83
 1185.88        2978.00           1596          56.00       210.11
 1185.91        2978.25           1600          58.00       218.83
 1185.94        2978.50           1603          57.00       214.47
 1185.97        2978.75           1606          57.00       214.47
 1186.01        2979.00           1610          53.00       197.04
 1186.04        2979.25           1613          54.00       201.40
 1186.07        2979.50           1616          53.00       197.04
 1186.10        2979.75           1620          59.00       223.19
 1186.13        2980.00           1623          53.00       197.04
 1186.16        2980.25           1626          50.00       183.96
 1186.19        2980.50           1630          67.00       258.07
 1186.22        2980.75           1633          49.00       179.60
 1186.25        2981.00           1637          55.00       205.76
 1186.28        2981.25           1640          54.00       201.40
 1186.32        2981.50           1643          54.00       201.40
 1186.35        2981.75           1647          48.00       175.24
 1186.38        2982.00           1650          50.00       183.96
 1186.41        2982.25           1653          58.00       218.83
 1186.44        2982.50           1657          49.00       179.60
 1186.47        2982.75           1660          50.00       183.96
 1186.50        2983.00           1663          57.00       214.47
 1186.53        2983.25           1667          62.00       236.27
 1186.56        2983.50           1670          55.00       205.76
 1186.59        2983.75           1673          52.00       192.68
 1186.62        2984.00           1677          53.00       197.04
HS scan finished at 19:46:50
end
