************************************************************
  HS Scan of (1) Internal mercury lamp
************************************************************
Integration time is 0.2294 seconds per sample
dh300319Manchester 53.47 2.23 2.804185pr1000
************************************************************
Dead Time -------------------------  3E-08 
Number of Cycles Used -------------  4 
Starting Wavelength (Angstroms) ---  2950 
Final Wavelength (Angstoms) -------  2984 
Wavelength Increment (Angstroms) --  .25 
Filter Wheel #1 Position ---------- (1) Ground quartz diffuser (ND=2.32)
Filter Wheel #2 Position ---------- (1) Neutral Density 0.494



************************************************************
HS scan start time = 02:16:39
Dark Count =  6.6 


Time (GMT)  Wavelength (Ang)  Step Number  Raw Counts  Counts/Second

  137.02        2950.00           1222          53.00       202.27
  137.09        2950.25           1226          55.00       210.99
  137.12        2950.50           1229          56.00       215.35
  137.15        2950.75           1232          58.00       224.06
  137.18        2951.00           1236          63.00       245.86
  137.21        2951.25           1239          58.00       224.06
  137.24        2951.50           1242          50.00       189.19
  137.27        2951.75           1246          59.00       228.42
  137.30        2952.00           1249          53.00       202.27
  137.34        2952.25           1252          55.00       210.99
  137.37        2952.50           1256          69.00       272.02
  137.40        2952.75           1259          46.00       171.75
  137.43        2953.00           1262          49.00       184.83
  137.46        2953.25           1266          66.00       258.94
  137.49        2953.50           1269          61.00       237.14
  137.52        2953.75           1272          54.00       206.63
  137.55        2954.00           1276          53.00       202.27
  137.58        2954.25           1279          49.00       184.83
  137.62        2954.50           1282          54.00       206.63
  137.65        2954.75           1286          54.00       206.63
  137.68        2955.00           1289          52.00       197.91
  137.71        2955.25           1292          58.00       224.06
  137.74        2955.50           1296          60.00       232.78
  137.77        2955.75           1299          56.00       215.35
  137.80        2956.00           1302          64.00       250.22
  137.83        2956.25           1306          56.00       215.35
  137.86        2956.50           1309          58.00       224.06
  137.89        2956.75           1312          56.00       215.35
  137.92        2957.00           1316          59.00       228.42
  137.96        2957.25           1319          58.00       224.06
  137.99        2957.50           1322          61.00       237.14
  138.02        2957.75           1326          52.00       197.91
  138.05        2958.00           1329          63.00       245.86
  138.08        2958.25           1332          53.00       202.27
  138.11        2958.50           1336          57.00       219.71
  138.14        2958.75           1339          54.00       206.63
  138.17        2959.00           1342          52.00       197.91
  138.20        2959.25           1346          61.00       237.14
  138.23        2959.50           1349          57.00       219.71
  138.27        2959.75           1352          64.00       250.22
  138.30        2960.00           1356          83.00       333.05
  138.33        2960.25           1359          99.00       402.79
  138.36        2960.50           1362         141.00       585.89
  138.39        2960.75           1366         170.00       712.31
  138.42        2961.00           1369         198.00       834.37
  138.45        2961.25           1372         234.00       991.31
  138.48        2961.50           1376         293.00      1248.52
  138.51        2961.75           1379         384.00      1645.24
  138.54        2962.00           1382         778.00      3363.02
  138.58        2962.25           1386        2033.00      8835.82
  138.61        2962.50           1389        3278.00     14266.78
  138.64        2962.75           1392        4362.00     18996.87
  138.67        2963.00           1396        5992.00     26111.99
  138.70        2963.25           1399        7143.00     31138.06
  138.73        2963.50           1402        8433.00     36772.89
  138.76        2963.75           1406       10114.00     44118.52
  138.79        2964.00           1409       11411.00     49788.35
  138.82        2964.25           1412       12583.00     54913.41
  138.85        2964.50           1416       14416.00     62932.13
  138.89        2964.75           1419       15632.00     68253.82
  138.92        2965.00           1422       16852.00     73594.75
  138.95        2965.25           1426       18350.00     80155.03
  138.98        2965.50           1429       19596.00     85613.69
  139.01        2965.75           1432       21064.00     92047.21
  139.04        2966.00           1436       22682.00     99140.99
  139.07        2966.25           1439       23764.00    103886.50
  139.10        2966.50           1442       24960.00    109133.50
  139.13        2966.75           1446       25952.00    113486.90
  139.17        2967.00           1449       26312.00    115067.00
  139.20        2967.25           1452       26370.00    115321.60
  139.23        2967.50           1456       26353.00    115247.00
  139.26        2967.75           1459       26408.00    115488.40
  139.29        2968.00           1462       26331.00    115150.40
  139.32        2968.25           1466       25766.00    112670.50
  139.35        2968.50           1469       24661.00    107821.60
  139.38        2968.75           1472       23539.00    102899.60
  139.41        2969.00           1476       21776.00     95168.44
  139.45        2969.25           1479       20671.00     90324.64
  139.48        2969.50           1482       19420.00     84842.54
  139.51        2969.75           1486       17749.00     77522.72
  139.54        2970.00           1489       16524.00     72158.66
  139.57        2970.25           1492       15460.00     67500.98
  139.60        2970.50           1496       13777.00     60136.30
  139.63        2970.75           1499       12555.00     54790.95
  139.66        2971.00           1502       11353.00     49534.76
  139.69        2971.25           1506        9821.00     42837.93
  139.73        2971.50           1509        8586.00     37441.34
  139.76        2971.75           1513        6851.00     29862.84
  139.79        2972.00           1516        5608.00     24435.52
  139.82        2972.25           1519        4423.00     19263.09
  139.85        2972.50           1523        2890.00     12574.05
  139.88        2972.75           1526        1764.00      7662.62
  139.91        2973.00           1529         832.00      3598.47
  139.94        2973.25           1533         384.00      1645.24
  139.97        2973.50           1536         278.00      1183.13
  140.01        2973.75           1539         247.00      1047.98
  140.04        2974.00           1543         213.00       899.76
  140.07        2974.25           1546         165.00       690.51
  140.10        2974.50           1549         124.00       511.78
  140.13        2974.75           1553          91.00       367.92
  140.16        2975.00           1556          68.00       267.66
  140.19        2975.25           1559          68.00       267.66
  140.22        2975.50           1563          56.00       215.35
  140.25        2975.75           1566          55.00       210.99
  140.28        2976.00           1569          43.00       158.68
  140.32        2976.25           1573          51.00       193.55
  140.35        2976.50           1576          52.00       197.91
  140.38        2976.75           1579          50.00       189.19
  140.41        2977.00           1583          44.00       163.03
  140.44        2977.25           1586          49.00       184.83
  140.47        2977.50           1590          51.00       193.55
  140.50        2977.75           1593          57.00       219.71
  140.53        2978.00           1596          54.00       206.63
  140.56        2978.25           1600          49.00       184.83
  140.59        2978.50           1603          47.00       176.11
  140.63        2978.75           1606          54.00       206.63
  140.66        2979.00           1610          50.00       189.19
  140.69        2979.25           1613          53.00       202.27
  140.72        2979.50           1616          53.00       202.27
  140.75        2979.75           1620          51.00       193.55
  140.78        2980.00           1623          50.00       189.19
  140.81        2980.25           1626          45.00       167.39
  140.84        2980.50           1630          52.00       197.91
  140.87        2980.75           1633          49.00       184.83
  140.90        2981.00           1637          54.00       206.63
  140.93        2981.25           1640          52.00       197.91
  140.96        2981.50           1643          60.00       232.78
  141.00        2981.75           1647          55.00       210.99
  141.03        2982.00           1650          45.00       167.39
  141.06        2982.25           1653          50.00       189.19
  141.09        2982.50           1657          73.00       289.45
  141.12        2982.75           1660          56.00       215.35
  141.15        2983.00           1663          50.00       189.19
  141.18        2983.25           1667          50.00       189.19
  141.21        2983.50           1670          47.00       176.11
  141.24        2983.75           1673          46.00       171.75
  141.28        2984.00           1677          46.00       171.75
HS scan finished at 02:21:30
end
************************************************************
  HS Scan of (1) Internal mercury lamp
************************************************************
Integration time is 0.2294 seconds per sample
dh300319Manchester 53.47 2.23 2.804185pr1000
************************************************************
Dead Time -------------------------  3E-08 
Number of Cycles Used -------------  4 
Starting Wavelength (Angstroms) ---  2950 
Final Wavelength (Angstoms) -------  2984 
Wavelength Increment (Angstroms) --  .25 
Filter Wheel #1 Position ---------- (1) Ground quartz diffuser (ND=2.32)
Filter Wheel #2 Position ---------- (1) Neutral Density 0.494



************************************************************
HS scan start time = 19:42:12
Dark Count =  5.2 


Time (GMT)  Wavelength (Ang)  Step Number  Raw Counts  Counts/Second

 1182.57        2950.00           1222          57.00       225.81
 1182.63        2950.25           1226          56.00       221.45
 1182.67        2950.50           1229          54.00       212.73
 1182.70        2950.75           1232          52.00       204.01
 1182.73        2951.00           1236          54.00       212.73
 1182.76        2951.25           1239          48.00       186.57
 1182.79        2951.50           1242          60.00       238.89
 1182.82        2951.75           1246          63.00       251.96
 1182.85        2952.00           1249          59.00       234.53
 1182.88        2952.25           1252          56.00       221.45
 1182.91        2952.50           1256          62.00       247.60
 1182.94        2952.75           1259          53.00       208.37
 1182.97        2953.00           1262          57.00       225.81
 1183.00        2953.25           1266          58.00       230.17
 1183.03        2953.50           1269          52.00       204.01
 1183.06        2953.75           1272          54.00       212.73
 1183.09        2954.00           1276          45.00       173.50
 1183.12        2954.25           1279          54.00       212.73
 1183.16        2954.50           1282          49.00       190.93
 1183.19        2954.75           1286          56.00       221.45
 1183.22        2955.00           1289          49.00       190.93
 1183.25        2955.25           1292          48.00       186.57
 1183.28        2955.50           1296          53.00       208.37
 1183.31        2955.75           1299          54.00       212.73
 1183.34        2956.00           1302          57.00       225.81
 1183.37        2956.25           1306          55.00       217.09
 1183.40        2956.50           1309          55.00       217.09
 1183.43        2956.75           1312          53.00       208.37
 1183.46        2957.00           1316          53.00       208.37
 1183.50        2957.25           1319          57.00       225.81
 1183.53        2957.50           1322          63.00       251.96
 1183.56        2957.75           1326          52.00       204.01
 1183.59        2958.00           1329          61.00       243.25
 1183.62        2958.25           1332          59.00       234.53
 1183.65        2958.50           1336          53.00       208.37
 1183.68        2958.75           1339          55.00       217.09
 1183.71        2959.00           1342          51.00       199.65
 1183.74        2959.25           1346          59.00       234.53
 1183.77        2959.50           1349          62.00       247.60
 1183.80        2959.75           1352          70.00       282.48
 1183.83        2960.00           1356          99.00       408.90
 1183.86        2960.25           1359         114.00       474.29
 1183.89        2960.50           1362         160.00       674.82
 1183.92        2960.75           1366         193.00       818.68
 1183.96        2961.00           1369         221.00       940.74
 1183.99        2961.25           1372         260.00      1110.76
 1184.02        2961.50           1376         324.00      1389.77
 1184.05        2961.75           1379         427.00      1838.81
 1184.08        2962.00           1382         886.00      3840.02
 1184.11        2962.25           1386        2272.00      9884.36
 1184.14        2962.50           1389        3401.00     14809.54
 1184.17        2962.75           1392        4544.00     19797.28
 1184.20        2963.00           1396        6078.00     26493.59
 1184.23        2963.25           1399        7277.00     31729.41
 1184.26        2963.50           1402        8507.00     37102.30
 1184.29        2963.75           1406       10101.00     44067.81
 1184.32        2964.00           1409       11360.00     49571.49
 1184.36        2964.25           1412       12585.00     54928.28
 1184.39        2964.50           1416       14089.00     61507.46
 1184.42        2964.75           1419       15452.00     67472.10
 1184.45        2965.00           1422       16751.00     73158.65
 1184.48        2965.25           1426       18479.00     80726.22
 1184.51        2965.50           1429       19721.00     86167.54
 1184.54        2965.75           1432       20887.00     91277.51
 1184.57        2966.00           1436       22462.00     98182.41
 1184.60        2966.25           1439       23551.00    102958.30
 1184.63        2966.50           1442       24593.00    107529.40
 1184.66        2966.75           1446       25844.00    113019.00
 1184.69        2967.00           1449       26332.00    115160.90
 1184.73        2967.25           1452       26385.00    115393.60
 1184.76        2967.50           1456       26311.00    115068.70
 1184.79        2967.75           1459       26566.00    116188.10
 1184.82        2968.00           1462       26315.00    115086.30
 1184.85        2968.25           1466       25655.00    112189.50
 1184.88        2968.50           1469       24551.00    107345.10
 1184.91        2968.75           1472       23857.00    104300.60
 1184.94        2969.00           1476       22097.00     96581.97
 1184.97        2969.25           1479       20785.00     90830.43
 1185.00        2969.50           1482       19773.00     86395.39
 1185.03        2969.75           1486       18101.00     79070.52
 1185.06        2970.00           1489       16917.00     73885.49
 1185.09        2970.25           1492       15684.00     68487.56
 1185.13        2970.50           1496       14105.00     61577.47
 1185.16        2970.75           1499       12819.00     55951.74
 1185.19        2971.00           1502       11573.00     50502.79
 1185.22        2971.25           1506        9770.00     42621.16
 1185.25        2971.50           1509        8579.00     37416.87
 1185.28        2971.75           1513        6930.00     30213.95
 1185.31        2972.00           1516        5677.00     24742.86
 1185.34        2972.25           1519        4579.00     19950.04
 1185.37        2972.50           1523        3105.00     13518.12
 1185.40        2972.75           1526        1942.00      8445.03
 1185.43        2973.00           1529         935.00      4053.68
 1185.47        2973.25           1533         382.00      1642.63
 1185.50        2973.50           1536         261.00      1115.12
 1185.53        2973.75           1539         245.00      1045.37
 1185.56        2974.00           1543         180.00       762.01
 1185.59        2974.25           1546         145.00       609.43
 1185.62        2974.50           1549         109.00       452.49
 1185.65        2974.75           1553          75.00       304.27
 1185.68        2975.00           1556          68.00       273.76
 1185.71        2975.25           1559          58.00       230.17
 1185.74        2975.50           1563          56.00       221.45
 1185.77        2975.75           1566          48.00       186.57
 1185.80        2976.00           1569          50.00       195.29
 1185.83        2976.25           1573          56.00       221.45
 1185.86        2976.50           1576          53.00       208.37
 1185.89        2976.75           1579          49.00       190.93
 1185.93        2977.00           1583          54.00       212.73
 1185.96        2977.25           1586          50.00       195.29
 1185.99        2977.50           1590          48.00       186.57
 1186.02        2977.75           1593          57.00       225.81
 1186.05        2978.00           1596          56.00       221.45
 1186.08        2978.25           1600          56.00       221.45
 1186.11        2978.50           1603          58.00       230.17
 1186.14        2978.75           1606          49.00       190.93
 1186.17        2979.00           1610          52.00       204.01
 1186.20        2979.25           1613          47.00       182.22
 1186.23        2979.50           1616          44.00       169.14
 1186.27        2979.75           1620          56.00       221.45
 1186.30        2980.00           1623          48.00       186.57
 1186.33        2980.25           1626          56.00       221.45
 1186.36        2980.50           1630          42.00       160.42
 1186.39        2980.75           1633          47.00       182.22
 1186.42        2981.00           1637          48.00       186.57
 1186.45        2981.25           1640          55.00       217.09
 1186.48        2981.50           1643          52.00       204.01
 1186.51        2981.75           1647          52.00       204.01
 1186.54        2982.00           1650          46.00       177.86
 1186.57        2982.25           1653          51.00       199.65
 1186.60        2982.50           1657          56.00       221.45
 1186.63        2982.75           1660          51.00       199.65
 1186.67        2983.00           1663          44.00       169.14
 1186.70        2983.25           1667          46.00       177.86
 1186.73        2983.50           1670          51.00       199.65
 1186.76        2983.75           1673          45.00       173.50
 1186.79        2984.00           1677          50.00       195.29
HS scan finished at 19:47:00
end
