************************************************************
  HS Scan of (1) Internal mercury lamp
************************************************************
Integration time is 0.2294 seconds per sample
dh250319Manchester 53.47 2.23 2.804185pr1000
************************************************************
Dead Time -------------------------  3E-08 
Number of Cycles Used -------------  4 
Starting Wavelength (Angstroms) ---  2950 
Final Wavelength (Angstoms) -------  2984 
Wavelength Increment (Angstroms) --  .25 
Filter Wheel #1 Position ---------- (1) Ground quartz diffuser (ND=2.32)
Filter Wheel #2 Position ---------- (1) Neutral Density 0.494



************************************************************
HS scan start time = 02:42:24
Dark Count =  6.3 


Time (GMT)  Wavelength (Ang)  Step Number  Raw Counts  Counts/Second

  162.77        2950.00           1222          49.00       186.14
  162.84        2950.25           1226          60.00       234.09
  162.87        2950.50           1229          59.00       229.73
  162.90        2950.75           1232          55.00       212.29
  162.93        2951.00           1236          44.00       164.34
  162.96        2951.25           1239          58.00       225.37
  162.99        2951.50           1242          64.00       251.53
  163.02        2951.75           1246          54.00       207.94
  163.05        2952.00           1249          59.00       229.73
  163.09        2952.25           1252          49.00       186.14
  163.12        2952.50           1256          58.00       225.37
  163.15        2952.75           1259          60.00       234.09
  163.18        2953.00           1262          50.00       190.50
  163.21        2953.25           1266          52.00       199.22
  163.24        2953.50           1269          52.00       199.22
  163.27        2953.75           1272          54.00       207.94
  163.30        2954.00           1276          51.00       194.86
  163.33        2954.25           1279          53.00       203.58
  163.36        2954.50           1282          58.00       225.37
  163.39        2954.75           1286          59.00       229.73
  163.42        2955.00           1289          57.00       221.01
  163.46        2955.25           1292          55.00       212.29
  163.49        2955.50           1296          43.00       159.98
  163.52        2955.75           1299          57.00       221.01
  163.55        2956.00           1302          61.00       238.45
  163.58        2956.25           1306          58.00       225.37
  163.61        2956.50           1309          43.00       159.98
  163.64        2956.75           1312          56.00       216.65
  163.67        2957.00           1316          53.00       203.58
  163.70        2957.25           1319          52.00       199.22
  163.73        2957.50           1322          53.00       203.58
  163.77        2957.75           1326          53.00       203.58
  163.80        2958.00           1329          55.00       212.29
  163.83        2958.25           1332          53.00       203.58
  163.86        2958.50           1336          56.00       216.65
  163.89        2958.75           1339          48.00       181.78
  163.92        2959.00           1342          58.00       225.37
  163.95        2959.25           1346          58.00       225.37
  163.98        2959.50           1349          63.00       247.17
  164.01        2959.75           1352          68.00       268.96
  164.04        2960.00           1356          87.00       351.79
  164.08        2960.25           1359         129.00       534.88
  164.11        2960.50           1362         137.00       569.76
  164.14        2960.75           1366         186.00       783.37
  164.17        2961.00           1369         212.00       896.71
  164.20        2961.25           1372         234.00       992.62
  164.23        2961.50           1376         298.00      1271.63
  164.26        2961.75           1379         383.00      1642.19
  164.29        2962.00           1382         659.00      2845.49
  164.32        2962.25           1386        1735.00      7537.45
  164.36        2962.50           1389        2924.00     12723.69
  164.39        2962.75           1392        4048.00     17627.89
  164.42        2963.00           1396        5709.00     24877.76
  164.45        2963.25           1399        6774.00     29527.89
  164.48        2963.50           1402        8154.00     35555.35
  164.51        2963.75           1406        9740.00     42485.24
  164.54        2964.00           1409       10785.00     47052.87
  164.57        2964.25           1412       12156.00     53047.30
  164.60        2964.50           1416       13649.00     59577.62
  164.64        2964.75           1419       14915.00     65117.06
  164.67        2965.00           1422       16081.00     70220.58
  164.70        2965.25           1426       17666.00     77160.53
  164.73        2965.50           1429       19014.00     83065.06
  164.76        2965.75           1432       20324.00     88805.15
  164.79        2966.00           1436       21939.00     95884.40
  164.82        2966.25           1439       23006.00    100563.20
  164.85        2966.50           1442       24263.00    106076.80
  164.88        2966.75           1446       25580.00    111855.60
  164.92        2967.00           1449       26283.00    114941.00
  164.95        2967.25           1452       26502.00    115902.30
  164.98        2967.50           1456       26337.00    115178.00
  165.01        2967.75           1459       26445.00    115652.10
  165.04        2968.00           1462       26255.00    114818.10
  165.07        2968.25           1466       25976.00    113593.50
  165.10        2968.50           1469       25087.00    109692.10
  165.13        2968.75           1472       23986.00    104861.60
  165.17        2969.00           1476       22417.00     97980.26
  165.20        2969.25           1479       21230.00     92776.16
  165.23        2969.50           1482       19880.00     86859.43
  165.26        2969.75           1486       18324.00     80042.46
  165.29        2970.00           1489       17283.00     75483.30
  165.32        2970.25           1492       15977.00     69765.31
  165.35        2970.50           1496       14452.00     63090.97
  165.38        2970.75           1499       13251.00     57836.54
  165.41        2971.00           1502       12220.00     53327.19
  165.45        2971.25           1506       10544.00     45999.36
  165.48        2971.50           1509        9237.00     40287.11
  165.51        2971.75           1513        7521.00     32790.31
  165.54        2972.00           1516        6333.00     27602.19
  165.57        2972.25           1519        5192.00     22620.84
  165.60        2972.50           1523        3582.00     15594.48
  165.63        2972.75           1526        2467.00     10730.13
  165.66        2973.00           1529        1282.00      5561.96
  165.70        2973.25           1533         435.00      1868.89
  165.73        2973.50           1536         276.00      1175.72
  165.76        2973.75           1539         239.00      1014.42
  165.79        2974.00           1543         196.00       826.96
  165.82        2974.25           1546         165.00       691.82
  165.85        2974.50           1549         121.00       500.01
  165.88        2974.75           1553          87.00       351.79
  165.91        2975.00           1556          65.00       255.89
  165.94        2975.25           1559          60.00       234.09
  165.97        2975.50           1563          54.00       207.94
  166.00        2975.75           1566          50.00       190.50
  166.03        2976.00           1569          48.00       181.78
  166.06        2976.25           1573          55.00       212.29
  166.10        2976.50           1576          59.00       229.73
  166.13        2976.75           1579          60.00       234.09
  166.16        2977.00           1583          52.00       199.22
  166.19        2977.25           1586          46.00       173.06
  166.22        2977.50           1590          56.00       216.65
  166.25        2977.75           1593          51.00       194.86
  166.28        2978.00           1596          59.00       229.73
  166.31        2978.25           1600          45.00       168.70
  166.34        2978.50           1603          50.00       190.50
  166.38        2978.75           1606          51.00       194.86
  166.41        2979.00           1610          60.00       234.09
  166.44        2979.25           1613          53.00       203.58
  166.47        2979.50           1616          43.00       159.98
  166.50        2979.75           1620          54.00       207.94
  166.53        2980.00           1623          54.00       207.94
  166.56        2980.25           1626          58.00       225.37
  166.59        2980.50           1630          50.00       190.50
  166.62        2980.75           1633          51.00       194.86
  166.65        2981.00           1637          49.00       186.14
  166.69        2981.25           1640          47.00       177.42
  166.72        2981.50           1643          49.00       186.14
  166.75        2981.75           1647          45.00       168.70
  166.78        2982.00           1650          50.00       190.50
  166.81        2982.25           1653          52.00       199.22
  166.84        2982.50           1657          43.00       159.98
  166.87        2982.75           1660          50.00       190.50
  166.90        2983.00           1663          51.00       194.86
  166.93        2983.25           1667          53.00       203.58
  166.96        2983.50           1670          46.00       173.06
  166.99        2983.75           1673          55.00       212.29
  167.02        2984.00           1677          46.00       173.06
HS scan finished at 02:47:14
end
************************************************************
  HS Scan of (1) Internal mercury lamp
************************************************************
Integration time is 0.2294 seconds per sample
dh250319Manchester 53.47 2.23 2.804185pr1000
************************************************************
Dead Time -------------------------  3E-08 
Number of Cycles Used -------------  4 
Starting Wavelength (Angstroms) ---  2950 
Final Wavelength (Angstoms) -------  2984 
Wavelength Increment (Angstroms) --  .25 
Filter Wheel #1 Position ---------- (1) Ground quartz diffuser (ND=2.32)
Filter Wheel #2 Position ---------- (1) Neutral Density 0.494



************************************************************
HS scan start time = 19:42:09
Dark Count =  9.5 


Time (GMT)  Wavelength (Ang)  Step Number  Raw Counts  Counts/Second

 1182.52        2950.00           1222          60.00       220.14
 1182.58        2950.25           1226          54.00       193.99
 1182.62        2950.50           1229          58.00       211.42
 1182.65        2950.75           1232          50.00       176.55
 1182.68        2951.00           1236          54.00       193.99
 1182.71        2951.25           1239          60.00       220.14
 1182.74        2951.50           1242          52.00       185.27
 1182.77        2951.75           1246          59.00       215.78
 1182.80        2952.00           1249          56.00       202.70
 1182.83        2952.25           1252          63.00       233.22
 1182.86        2952.50           1256          50.00       176.55
 1182.89        2952.75           1259          56.00       202.70
 1182.93        2953.00           1262          49.00       172.19
 1182.96        2953.25           1266          58.00       211.42
 1182.99        2953.50           1269          54.00       193.99
 1183.02        2953.75           1272          51.00       180.91
 1183.05        2954.00           1276          60.00       220.14
 1183.08        2954.25           1279          53.00       189.63
 1183.11        2954.50           1282          55.00       198.34
 1183.14        2954.75           1286          51.00       180.91
 1183.17        2955.00           1289          62.00       228.86
 1183.20        2955.25           1292          55.00       198.34
 1183.23        2955.50           1296          49.00       172.19
 1183.26        2955.75           1299          44.00       150.39
 1183.30        2956.00           1302          59.00       215.78
 1183.33        2956.25           1306          65.00       241.94
 1183.36        2956.50           1309          55.00       198.34
 1183.39        2956.75           1312          57.00       207.06
 1183.42        2957.00           1316          66.00       246.30
 1183.45        2957.25           1319          57.00       207.06
 1183.48        2957.50           1322          54.00       193.99
 1183.51        2957.75           1326          61.00       224.50
 1183.54        2958.00           1329          57.00       207.06
 1183.57        2958.25           1332          50.00       176.55
 1183.60        2958.50           1336          55.00       198.34
 1183.63        2958.75           1339          53.00       189.63
 1183.66        2959.00           1342          50.00       176.55
 1183.69        2959.25           1346          55.00       198.34
 1183.72        2959.50           1349          61.00       224.50
 1183.76        2959.75           1352          74.00       281.17
 1183.79        2960.00           1356          94.00       368.36
 1183.82        2960.25           1359         112.00       446.82
 1183.85        2960.50           1362         137.00       555.81
 1183.88        2960.75           1366         189.00       782.49
 1183.91        2961.00           1369         229.00       956.87
 1183.94        2961.25           1372         249.00      1044.06
 1183.97        2961.50           1376         303.00      1279.47
 1184.00        2961.75           1379         492.00      2103.45
 1184.04        2962.00           1382        1122.00      4850.31
 1184.07        2962.25           1386        2500.00     10860.12
 1184.10        2962.50           1389        3666.00     15947.03
 1184.13        2962.75           1392        4828.00     21018.04
 1184.16        2963.00           1396        6377.00     27780.34
 1184.19        2963.25           1399        7445.00     32444.38
 1184.22        2963.50           1402        8764.00     38206.36
 1184.25        2963.75           1406       10336.00     45076.17
 1184.28        2964.00           1409       11707.00     51069.90
 1184.32        2964.25           1412       12959.00     56545.28
 1184.35        2964.50           1416       14729.00     64289.09
 1184.38        2964.75           1419       16064.00     70132.15
 1184.41        2965.00           1422       17237.00     75267.85
 1184.44        2965.25           1426       18856.00     82358.86
 1184.47        2965.50           1429       19967.00     87226.65
 1184.50        2965.75           1432       21243.00     92819.13
 1184.53        2966.00           1436       22796.00     99628.19
 1184.56        2966.25           1439       24058.00    105163.40
 1184.60        2966.50           1442       24911.00    108905.80
 1184.63        2966.75           1446       26013.00    113741.90
 1184.66        2967.00           1449       26138.00    114290.50
 1184.69        2967.25           1452       26283.00    114927.00
 1184.72        2967.50           1456       26246.00    114764.60
 1184.75        2967.75           1459       26212.00    114615.30
 1184.78        2968.00           1462       26045.00    113882.30
 1184.81        2968.25           1466       25000.00    109296.30
 1184.84        2968.50           1469       23966.00    104759.80
 1184.88        2968.75           1472       22843.00     99834.31
 1184.91        2969.00           1476       21329.00     93196.12
 1184.94        2969.25           1479       20307.00     88716.62
 1184.97        2969.50           1482       19063.00     83265.72
 1185.00        2969.75           1486       17529.00     76546.55
 1185.03        2970.00           1489       16219.00     70810.69
 1185.06        2970.25           1492       15062.00     65746.38
 1185.09        2970.50           1496       13488.00     58859.30
 1185.12        2970.75           1499       12139.00     52958.96
 1185.16        2971.00           1502       10905.00     47563.46
 1185.19        2971.25           1506        9274.00     40434.81
 1185.22        2971.50           1509        8099.00     35301.10
 1185.25        2971.75           1513        6569.00     28618.72
 1185.28        2972.00           1516        5335.00     23231.09
 1185.31        2972.25           1519        4093.00     17810.30
 1185.34        2972.50           1523        2654.00     11531.89
 1185.37        2972.75           1526        1547.00      6703.61
 1185.40        2973.00           1529         689.00      2962.34
 1185.44        2973.25           1533         328.00      1388.46
 1185.47        2973.50           1536         275.00      1157.41
 1185.50        2973.75           1539         225.00       939.43
 1185.53        2974.00           1543         190.00       786.85
 1185.56        2974.25           1546         154.00       629.92
 1185.59        2974.50           1549         131.00       529.65
 1185.62        2974.75           1553          88.00       342.20
 1185.65        2975.00           1556          74.00       281.17
 1185.68        2975.25           1559          51.00       180.91
 1185.71        2975.50           1563          55.00       198.34
 1185.74        2975.75           1566          50.00       176.55
 1185.78        2976.00           1569          50.00       176.55
 1185.81        2976.25           1573          47.00       163.47
 1185.84        2976.50           1576          43.00       146.03
 1185.87        2976.75           1579          52.00       185.27
 1185.90        2977.00           1583          47.00       163.47
 1185.93        2977.25           1586          51.00       180.91
 1185.96        2977.50           1590          60.00       220.14
 1185.99        2977.75           1593          51.00       180.91
 1186.02        2978.00           1596          57.00       207.06
 1186.06        2978.25           1600          51.00       180.91
 1186.09        2978.50           1603          55.00       198.34
 1186.12        2978.75           1606          50.00       176.55
 1186.15        2979.00           1610          49.00       172.19
 1186.18        2979.25           1613          48.00       167.83
 1186.21        2979.50           1616          53.00       189.63
 1186.24        2979.75           1620          50.00       176.55
 1186.27        2980.00           1623          49.00       172.19
 1186.30        2980.25           1626          54.00       193.99
 1186.33        2980.50           1630          53.00       189.63
 1186.36        2980.75           1633          49.00       172.19
 1186.40        2981.00           1637          48.00       167.83
 1186.43        2981.25           1640          55.00       198.34
 1186.46        2981.50           1643          55.00       198.34
 1186.49        2981.75           1647          50.00       176.55
 1186.52        2982.00           1650          55.00       198.34
 1186.55        2982.25           1653          47.00       163.47
 1186.58        2982.50           1657          46.00       159.11
 1186.61        2982.75           1660          53.00       189.63
 1186.64        2983.00           1663          48.00       167.83
 1186.67        2983.25           1667          49.00       172.19
 1186.71        2983.50           1670          52.00       185.27
 1186.74        2983.75           1673          44.00       150.39
 1186.77        2984.00           1677          55.00       198.34
HS scan finished at 19:46:59
end
