************************************************************
  HS Scan of (1) Internal mercury lamp
************************************************************
Integration time is 0.2294 seconds per sample
dh290318Manchester 53.47 2.23 2.804185pr1000
************************************************************
Dead Time -------------------------  3E-08 
Number of Cycles Used -------------  4 
Starting Wavelength (Angstroms) ---  2950 
Final Wavelength (Angstoms) -------  2984 
Wavelength Increment (Angstroms) --  .25 
Filter Wheel #1 Position ---------- (1) Ground quartz diffuser (ND=2.32)
Filter Wheel #2 Position ---------- (1) Neutral Density 0.494



************************************************************
HS scan start time = 02:21:03
Dark Count =  7.7 


Time (GMT)  Wavelength (Ang)  Step Number  Raw Counts  Counts/Second

  141.42        2950.00           1222          60.00       227.99
  141.49        2950.25           1226          58.00       219.27
  141.52        2950.50           1229          60.00       227.99
  141.55        2950.75           1232          63.00       241.07
  141.58        2951.00           1236          55.00       206.19
  141.61        2951.25           1239          71.00       275.94
  141.64        2951.50           1242          56.00       210.55
  141.67        2951.75           1246          58.00       219.27
  141.70        2952.00           1249          59.00       223.63
  141.73        2952.25           1252          55.00       206.19
  141.76        2952.50           1256          53.00       197.47
  141.80        2952.75           1259          57.00       214.91
  141.83        2953.00           1262          55.00       206.19
  141.86        2953.25           1266          57.00       214.91
  141.89        2953.50           1269          63.00       241.07
  141.92        2953.75           1272          54.00       201.83
  141.95        2954.00           1276          56.00       210.55
  141.98        2954.25           1279          57.00       214.91
  142.01        2954.50           1282          59.00       223.63
  142.04        2954.75           1286          67.00       258.50
  142.07        2955.00           1289          80.00       315.17
  142.10        2955.25           1292          64.00       245.42
  142.14        2955.50           1296          67.00       258.50
  142.17        2955.75           1299          72.00       280.30
  142.20        2956.00           1302          63.00       241.07
  142.23        2956.25           1306          54.00       201.83
  142.26        2956.50           1309          54.00       201.83
  142.29        2956.75           1312          52.00       193.11
  142.32        2957.00           1316          58.00       219.27
  142.35        2957.25           1319          59.00       223.63
  142.38        2957.50           1322          58.00       219.27
  142.41        2957.75           1326          67.00       258.50
  142.44        2958.00           1329          51.00       188.75
  142.47        2958.25           1332          62.00       236.71
  142.50        2958.50           1336          52.00       193.11
  142.54        2958.75           1339          58.00       219.27
  142.57        2959.00           1342          60.00       227.99
  142.60        2959.25           1346          64.00       245.42
  142.63        2959.50           1349          57.00       214.91
  142.66        2959.75           1352          78.00       306.45
  142.69        2960.00           1356          90.00       358.77
  142.72        2960.25           1359         122.00       498.26
  142.75        2960.50           1362         134.00       550.58
  142.78        2960.75           1366         206.00       864.45
  142.81        2961.00           1369         220.00       925.48
  142.84        2961.25           1372         267.00      1130.38
  142.87        2961.50           1376         329.00      1400.67
  142.91        2961.75           1379         449.00      1923.83
  142.94        2962.00           1382        1000.00      4326.19
  142.97        2962.25           1386        2629.00     11430.69
  143.00        2962.50           1389        4037.00     17573.78
  143.03        2962.75           1392        5401.00     23527.06
  143.06        2963.00           1396        7371.00     32129.03
  143.09        2963.25           1399        8783.00     38297.24
  143.12        2963.50           1402       10262.00     44760.59
  143.15        2963.75           1406       12322.00     53767.13
  143.18        2964.00           1409       13727.00     59912.74
  143.22        2964.25           1412       15430.00     67364.86
  143.25        2964.50           1416       17313.00     75608.54
  143.28        2964.75           1419       18815.00     82187.15
  143.31        2965.00           1422       20366.00     88983.09
  143.34        2965.25           1426       22387.00     97842.58
  143.37        2965.50           1429       23984.00    104846.70
  143.40        2965.75           1432       25378.00    110962.90
  143.43        2966.00           1436       27254.00    119197.50
  143.46        2966.25           1439       28586.00    125046.70
  143.49        2966.50           1442       29977.00    131157.20
  143.53        2966.75           1446       31383.00    137335.80
  143.56        2967.00           1449       31913.00    139665.50
  143.59        2967.25           1452       32116.00    140557.90
  143.62        2967.50           1456       31974.00    139933.60
  143.65        2967.75           1459       32055.00    140289.70
  143.68        2968.00           1462       32017.00    140122.70
  143.71        2968.25           1466       30985.00    135586.60
  143.74        2968.50           1469       29741.00    130120.30
  143.77        2968.75           1472       28319.00    123874.10
  143.80        2969.00           1476       26507.00    115918.10
  143.84        2969.25           1479       24985.00    109238.40
  143.87        2969.50           1482       23601.00    103166.70
  143.90        2969.75           1486       21801.00     95273.24
  143.93        2970.00           1489       20147.00     88023.34
  143.96        2970.25           1492       18914.00     82620.85
  143.99        2970.50           1496       16905.00     73821.99
  144.02        2970.75           1499       15256.00     66603.31
  144.05        2971.00           1502       13842.00     60415.86
  144.08        2971.25           1506       11816.00     51554.39
  144.12        2971.50           1509       10268.00     44786.82
  144.15        2971.75           1513        8355.00     36427.32
  144.18        2972.00           1516        7010.00     30552.40
  144.21        2972.25           1519        5505.00     23981.07
  144.24        2972.50           1523        3713.00     16159.97
  144.27        2972.75           1526        2307.00     10026.12
  144.30        2973.00           1529        1073.00      4644.50
  144.33        2973.25           1533         483.00      2072.06
  144.36        2973.50           1536         345.00      1470.42
  144.39        2973.75           1539         310.00      1317.84
  144.42        2974.00           1543         275.00      1165.25
  144.45        2974.25           1546         202.00       847.01
  144.49        2974.50           1549         172.00       716.23
  144.52        2974.75           1553         123.00       502.62
  144.55        2975.00           1556          94.00       376.20
  144.58        2975.25           1559          67.00       258.50
  144.61        2975.50           1563          66.00       254.14
  144.64        2975.75           1566          65.00       249.78
  144.67        2976.00           1569          52.00       193.11
  144.70        2976.25           1573          57.00       214.91
  144.73        2976.50           1576          65.00       249.78
  144.76        2976.75           1579          51.00       188.75
  144.79        2977.00           1583          63.00       241.07
  144.82        2977.25           1586          53.00       197.47
  144.85        2977.50           1590          52.00       193.11
  144.89        2977.75           1593          58.00       219.27
  144.92        2978.00           1596          48.00       175.68
  144.95        2978.25           1600          48.00       175.68
  144.98        2978.50           1603          53.00       197.47
  145.01        2978.75           1606          52.00       193.11
  145.04        2979.00           1610          54.00       201.83
  145.07        2979.25           1613          54.00       201.83
  145.10        2979.50           1616          60.00       227.99
  145.13        2979.75           1620          55.00       206.19
  145.16        2980.00           1623          51.00       188.75
  145.19        2980.25           1626          57.00       214.91
  145.22        2980.50           1630          53.00       197.47
  145.26        2980.75           1633          50.00       184.40
  145.29        2981.00           1637          63.00       241.07
  145.32        2981.25           1640          48.00       175.68
  145.35        2981.50           1643          59.00       223.63
  145.38        2981.75           1647          47.00       171.32
  145.41        2982.00           1650          51.00       188.75
  145.44        2982.25           1653          53.00       197.47
  145.47        2982.50           1657          61.00       232.35
  145.50        2982.75           1660          64.00       245.42
  145.53        2983.00           1663          55.00       206.19
  145.56        2983.25           1667          51.00       188.75
  145.59        2983.50           1670          51.00       188.75
  145.62        2983.75           1673          56.00       210.55
  145.65        2984.00           1677          49.00       180.04
HS scan finished at 02:25:52
end
************************************************************
  HS Scan of (1) Internal mercury lamp
************************************************************
Integration time is 0.2294 seconds per sample
dh290318Manchester 53.47 2.23 2.804185pr1000
************************************************************
Dead Time -------------------------  3E-08 
Number of Cycles Used -------------  4 
Starting Wavelength (Angstroms) ---  2950 
Final Wavelength (Angstoms) -------  2984 
Wavelength Increment (Angstroms) --  .25 
Filter Wheel #1 Position ---------- (1) Ground quartz diffuser (ND=2.32)
Filter Wheel #2 Position ---------- (1) Neutral Density 0.494



************************************************************
HS scan start time = 19:42:03
Dark Count =  8.8 


Time (GMT)  Wavelength (Ang)  Step Number  Raw Counts  Counts/Second

 1182.42        2950.00           1222          63.00       236.27
 1182.48        2950.25           1226          56.00       205.76
 1182.52        2950.50           1229          66.00       249.35
 1182.55        2950.75           1232          62.00       231.91
 1182.58        2951.00           1236          59.00       218.83
 1182.61        2951.25           1239          60.00       223.19
 1182.64        2951.50           1242          54.00       197.04
 1182.67        2951.75           1246          55.00       201.40
 1182.70        2952.00           1249          57.00       210.11
 1182.73        2952.25           1252          65.00       244.99
 1182.76        2952.50           1256          62.00       231.91
 1182.79        2952.75           1259          63.00       236.27
 1182.82        2953.00           1262          59.00       218.83
 1182.85        2953.25           1266          56.00       205.76
 1182.88        2953.50           1269          57.00       210.11
 1182.91        2953.75           1272          55.00       201.40
 1182.94        2954.00           1276          55.00       201.40
 1182.98        2954.25           1279          61.00       227.55
 1183.01        2954.50           1282          61.00       227.55
 1183.04        2954.75           1286          61.00       227.55
 1183.07        2955.00           1289          50.00       179.60
 1183.10        2955.25           1292          62.00       231.91
 1183.13        2955.50           1296          57.00       210.11
 1183.16        2955.75           1299          62.00       231.91
 1183.19        2956.00           1302          53.00       192.68
 1183.22        2956.25           1306          55.00       201.40
 1183.25        2956.50           1309          59.00       218.83
 1183.28        2956.75           1312          54.00       197.04
 1183.31        2957.00           1316          54.00       197.04
 1183.34        2957.25           1319          61.00       227.55
 1183.38        2957.50           1322          61.00       227.55
 1183.41        2957.75           1326          58.00       214.47
 1183.44        2958.00           1329          62.00       231.91
 1183.47        2958.25           1332          64.00       240.63
 1183.50        2958.50           1336          56.00       205.76
 1183.53        2958.75           1339          63.00       236.27
 1183.56        2959.00           1342          64.00       240.63
 1183.59        2959.25           1346          59.00       218.83
 1183.62        2959.50           1349          78.00       301.66
 1183.65        2959.75           1352          78.00       301.66
 1183.68        2960.00           1356          98.00       388.85
 1183.72        2960.25           1359         124.00       502.19
 1183.75        2960.50           1362         157.00       646.05
 1183.78        2960.75           1366         219.00       916.33
 1183.81        2961.00           1369         249.00      1047.11
 1183.84        2961.25           1372         297.00      1256.37
 1183.87        2961.50           1376         363.00      1544.10
 1183.90        2961.75           1379         555.00      2381.16
 1183.93        2962.00           1382        1293.00      5599.02
 1183.96        2962.25           1386        3013.00     13101.05
 1183.99        2962.50           1389        4321.00     18808.34
 1184.02        2962.75           1392        5704.00     24845.02
 1184.06        2963.00           1396        7573.00     33006.51
 1184.09        2963.25           1399        8889.00     38755.59
 1184.12        2963.50           1402       10409.00     45398.32
 1184.15        2963.75           1406       12439.00     54274.01
 1184.18        2964.00           1409       13993.00     61071.69
 1184.21        2964.25           1412       15381.00     67145.58
 1184.24        2964.50           1416       17434.00     76133.59
 1184.27        2964.75           1419       18995.00     82970.87
 1184.30        2965.00           1422       20428.00     89249.99
 1184.33        2965.25           1426       22452.00     98122.78
 1184.37        2965.50           1429       23993.00    104881.40
 1184.40        2965.75           1432       25544.00    111686.60
 1184.43        2966.00           1436       27389.00    119785.40
 1184.46        2966.25           1439       28570.00    124971.60
 1184.49        2966.50           1442       29949.00    131029.30
 1184.52        2966.75           1446       31405.00    137427.70
 1184.55        2967.00           1449       31767.00    139018.90
 1184.58        2967.25           1452       31951.00    139827.70
 1184.61        2967.50           1456       31835.00    139317.80
 1184.64        2967.75           1459       31793.00    139133.20
 1184.68        2968.00           1462       31766.00    139014.50
 1184.71        2968.25           1466       30688.00    134276.50
 1184.74        2968.50           1469       29477.00    128955.70
 1184.77        2968.75           1472       27945.00    122226.80
 1184.80        2969.00           1476       26020.00    113775.70
 1184.83        2969.25           1479       24822.00    108518.40
 1184.86        2969.50           1482       23314.00    101903.00
 1184.89        2969.75           1486       21385.00     93444.68
 1184.92        2970.00           1489       19939.00     87107.02
 1184.95        2970.25           1492       18468.00     80662.26
 1184.98        2970.50           1496       16622.00     72578.09
 1185.02        2970.75           1499       15117.00     65990.15
 1185.05        2971.00           1502       13375.00     58368.03
 1185.08        2971.25           1506       11433.00     49874.92
 1185.11        2971.50           1509        9960.00     43435.82
 1185.14        2971.75           1513        8062.00     35142.53
 1185.17        2972.00           1516        6641.00     28936.18
 1185.20        2972.25           1519        5220.00     22732.15
 1185.23        2972.50           1523        3312.00     14405.53
 1185.26        2972.75           1526        1943.00      8433.69
 1185.29        2973.00           1529         872.00      3763.28
 1185.33        2973.25           1533         400.00      1705.41
 1185.36        2973.50           1536         287.00      1212.77
 1185.39        2973.75           1539         248.00      1042.75
 1185.42        2974.00           1543         220.00       920.69
 1185.45        2974.25           1546         165.00       680.92
 1185.48        2974.50           1549         128.00       519.62
 1185.51        2974.75           1553          96.00       380.13
 1185.54        2975.00           1556          68.00       258.07
 1185.57        2975.25           1559          70.00       266.79
 1185.60        2975.50           1563          61.00       227.55
 1185.63        2975.75           1566          64.00       240.63
 1185.67        2976.00           1569          52.00       188.32
 1185.70        2976.25           1573          60.00       223.19
 1185.73        2976.50           1576          61.00       227.55
 1185.76        2976.75           1579          52.00       188.32
 1185.79        2977.00           1583          54.00       197.04
 1185.82        2977.25           1586          51.00       183.96
 1185.85        2977.50           1590          75.00       288.58
 1185.88        2977.75           1593          54.00       197.04
 1185.91        2978.00           1596          66.00       249.35
 1185.94        2978.25           1600          57.00       210.11
 1185.98        2978.50           1603          52.00       188.32
 1186.01        2978.75           1606          52.00       188.32
 1186.04        2979.00           1610          57.00       210.11
 1186.07        2979.25           1613          56.00       205.76
 1186.10        2979.50           1616          59.00       218.83
 1186.13        2979.75           1620          59.00       218.83
 1186.16        2980.00           1623          51.00       183.96
 1186.19        2980.25           1626          59.00       218.83
 1186.22        2980.50           1630          61.00       227.55
 1186.25        2980.75           1633          52.00       188.32
 1186.28        2981.00           1637          53.00       192.68
 1186.32        2981.25           1640          50.00       179.60
 1186.35        2981.50           1643          59.00       218.83
 1186.38        2981.75           1647          47.00       166.52
 1186.41        2982.00           1650          56.00       205.76
 1186.44        2982.25           1653          53.00       192.68
 1186.47        2982.50           1657          58.00       214.47
 1186.50        2982.75           1660          56.00       205.76
 1186.53        2983.00           1663          46.00       162.16
 1186.56        2983.25           1667          59.00       218.83
 1186.59        2983.50           1670          55.00       201.40
 1186.62        2983.75           1673          53.00       192.68
 1186.65        2984.00           1677          55.00       201.40
HS scan finished at 19:46:52
end
