************************************************************
  HS Scan of (1) Internal mercury lamp
************************************************************
Integration time is 0.2294 seconds per sample
dh260317Manchester 53.47 2.23 2.804185pr1000
************************************************************
Dead Time -------------------------  3E-08 
Number of Cycles Used -------------  4 
Starting Wavelength (Angstroms) ---  2950 
Final Wavelength (Angstoms) -------  2984 
Wavelength Increment (Angstroms) --  .25 
Filter Wheel #1 Position ---------- (1) Ground quartz diffuser (ND=2.32)
Filter Wheel #2 Position ---------- (1) Neutral Density 0.494



************************************************************
HS scan start time = 02:34:51
Dark Count =  5.3 


Time (GMT)  Wavelength (Ang)  Step Number  Raw Counts  Counts/Second

  155.22        2950.00           1222          45.00       173.06
  155.28        2950.25           1226          41.00       155.62
  155.31        2950.50           1229          45.00       173.06
  155.35        2950.75           1232          42.00       159.98
  155.38        2951.00           1236          47.00       181.78
  155.41        2951.25           1239          37.00       138.19
  155.44        2951.50           1242          48.00       186.14
  155.47        2951.75           1246          48.00       186.14
  155.50        2952.00           1249          48.00       186.14
  155.53        2952.25           1252          55.00       216.65
  155.56        2952.50           1256          46.00       177.42
  155.59        2952.75           1259          50.00       194.86
  155.62        2953.00           1262          40.00       151.26
  155.65        2953.25           1266          53.00       207.94
  155.68        2953.50           1269          38.00       142.55
  155.72        2953.75           1272          52.00       203.58
  155.75        2954.00           1276          47.00       181.78
  155.78        2954.25           1279          50.00       194.86
  155.81        2954.50           1282          44.00       168.70
  155.84        2954.75           1286          49.00       190.50
  155.87        2955.00           1289          47.00       181.78
  155.90        2955.25           1292          45.00       173.06
  155.93        2955.50           1296          47.00       181.78
  155.96        2955.75           1299          45.00       173.06
  155.99        2956.00           1302          49.00       190.50
  156.02        2956.25           1306          49.00       190.50
  156.05        2956.50           1309          47.00       181.78
  156.08        2956.75           1312          42.00       159.98
  156.12        2957.00           1316          49.00       190.50
  156.15        2957.25           1319          46.00       177.42
  156.18        2957.50           1322          53.00       207.94
  156.21        2957.75           1326          47.00       181.78
  156.24        2958.00           1329          53.00       207.94
  156.27        2958.25           1332          48.00       186.14
  156.30        2958.50           1336          49.00       190.50
  156.33        2958.75           1339          54.00       212.29
  156.36        2959.00           1342          43.00       164.34
  156.39        2959.25           1346          55.00       216.65
  156.42        2959.50           1349          50.00       194.86
  156.45        2959.75           1352          55.00       216.65
  156.49        2960.00           1356          84.00       343.07
  156.52        2960.25           1359         110.00       456.41
  156.55        2960.50           1362         144.00       604.63
  156.58        2960.75           1366         210.00       892.35
  156.61        2961.00           1369         256.00      1092.89
  156.64        2961.25           1372         285.00      1219.31
  156.67        2961.50           1376         391.00      1681.43
  156.70        2961.75           1379         615.00      2658.02
  156.73        2962.00           1382        1198.00      5200.03
  156.76        2962.25           1386        2854.00     12422.68
  156.79        2962.50           1389        4542.00     19788.12
  156.82        2962.75           1392        6116.00     26659.07
  156.86        2963.00           1396        8150.00     35542.24
  156.89        2963.25           1399        9750.00     42533.32
  156.92        2963.50           1402       11378.00     49649.75
  156.95        2963.75           1406       13585.00     59302.01
  156.98        2964.00           1409       15446.00     67445.40
  157.01        2964.25           1412       17234.00     75273.10
  157.04        2964.50           1416       19450.00     84979.66
  157.07        2964.75           1419       20982.00     91693.47
  157.10        2965.00           1422       22782.00     99585.21
  157.14        2965.25           1426       24850.00    108656.60
  157.17        2965.50           1429       26505.00    115919.90
  157.20        2965.75           1432       28099.00    122918.40
  157.23        2966.00           1436       30278.00    132490.30
  157.26        2966.25           1439       31969.00    139922.20
  157.29        2966.50           1442       33353.00    146007.40
  157.32        2966.75           1446       34939.00    152983.40
  157.35        2967.00           1449       35334.00    154721.30
  157.38        2967.25           1452       35603.00    155904.90
  157.42        2967.50           1456       35608.00    155926.90
  157.45        2967.75           1459       35361.00    154840.10
  157.48        2968.00           1462       35473.00    155332.90
  157.51        2968.25           1466       33981.00    148769.30
  157.54        2968.50           1469       32623.00    142797.40
  157.57        2968.75           1472       31023.00    135764.10
  157.60        2969.00           1476       29139.00    127486.20
  157.63        2969.25           1479       27568.00    120586.70
  157.66        2969.50           1482       25935.00    113418.00
  157.69        2969.75           1486       23634.00    103321.90
  157.72        2970.00           1489       21965.00     96002.78
  157.76        2970.25           1492       20207.00     88296.79
  157.79        2970.50           1496       18126.00     79179.58
  157.82        2970.75           1499       16543.00     72247.53
  157.85        2971.00           1502       14911.00     65103.93
  157.88        2971.25           1506       12698.00     55422.07
  157.91        2971.50           1509       11048.00     48206.98
  157.94        2971.75           1513        8739.00     38115.49
  157.97        2972.00           1516        7161.00     31222.35
  158.00        2972.25           1519        5687.00     24786.08
  158.03        2972.50           1523        3460.00     15066.53
  158.07        2972.75           1526        2161.00      9399.77
  158.10        2973.00           1529        1012.00      4388.98
  158.13        2973.25           1533         447.00      1925.57
  158.16        2973.50           1536         330.00      1415.49
  158.19        2973.75           1539         294.00      1258.55
  158.22        2974.00           1543         221.00       940.31
  158.25        2974.25           1546         180.00       761.57
  158.28        2974.50           1549         138.00       578.48
  158.31        2974.75           1553          90.00       369.23
  158.34        2975.00           1556          75.00       303.84
  158.37        2975.25           1559          55.00       216.65
  158.41        2975.50           1563          46.00       177.42
  158.44        2975.75           1566          62.00       247.17
  158.47        2976.00           1569          48.00       186.14
  158.50        2976.25           1573          51.00       199.22
  158.53        2976.50           1576          52.00       203.58
  158.56        2976.75           1579          46.00       177.42
  158.59        2977.00           1583          49.00       190.50
  158.62        2977.25           1586          42.00       159.98
  158.65        2977.50           1590          44.00       168.70
  158.68        2977.75           1593          59.00       234.09
  158.71        2978.00           1596          44.00       168.70
  158.74        2978.25           1600          57.00       225.37
  158.77        2978.50           1603          48.00       186.14
  158.80        2978.75           1606          47.00       181.78
  158.83        2979.00           1610          46.00       177.42
  158.87        2979.25           1613          46.00       177.42
  158.90        2979.50           1616          44.00       168.70
  158.93        2979.75           1620          47.00       181.78
  158.96        2980.00           1623          45.00       173.06
  158.99        2980.25           1626          43.00       164.34
  159.02        2980.50           1630          44.00       168.70
  159.05        2980.75           1633          47.00       181.78
  159.08        2981.00           1637          47.00       181.78
  159.11        2981.25           1640          45.00       173.06
  159.14        2981.50           1643          53.00       207.94
  159.17        2981.75           1647          41.00       155.62
  159.20        2982.00           1650          40.00       151.26
  159.23        2982.25           1653          43.00       164.34
  159.26        2982.50           1657          40.00       151.26
  159.30        2982.75           1660          53.00       207.94
  159.33        2983.00           1663          46.00       177.42
  159.36        2983.25           1667          44.00       168.70
  159.39        2983.50           1670          37.00       138.19
  159.42        2983.75           1673          47.00       181.78
  159.45        2984.00           1677          43.00       164.34
HS scan finished at 02:39:40
end
************************************************************
  HS Scan of (1) Internal mercury lamp
************************************************************
Integration time is 0.2294 seconds per sample
dh260317Manchester 53.47 2.23 2.804185pr1000
************************************************************
Dead Time -------------------------  3E-08 
Number of Cycles Used -------------  4 
Starting Wavelength (Angstroms) ---  2950 
Final Wavelength (Angstoms) -------  2984 
Wavelength Increment (Angstroms) --  .25 
Filter Wheel #1 Position ---------- (1) Ground quartz diffuser (ND=2.32)
Filter Wheel #2 Position ---------- (1) Neutral Density 0.494



************************************************************
HS scan start time = 19:42:03
Dark Count =  6.1 


Time (GMT)  Wavelength (Ang)  Step Number  Raw Counts  Counts/Second

 1182.42        2950.00           1222          46.00       173.93
 1182.48        2950.25           1226          45.00       169.57
 1182.51        2950.50           1229          43.00       160.86
 1182.55        2950.75           1232          44.00       165.21
 1182.58        2951.00           1236          46.00       173.93
 1182.61        2951.25           1239          43.00       160.86
 1182.64        2951.50           1242          44.00       165.21
 1182.67        2951.75           1246          48.00       182.65
 1182.70        2952.00           1249          48.00       182.65
 1182.73        2952.25           1252          42.00       156.50
 1182.76        2952.50           1256          52.00       200.09
 1182.79        2952.75           1259          43.00       160.86
 1182.82        2953.00           1262          45.00       169.57
 1182.85        2953.25           1266          51.00       195.73
 1182.88        2953.50           1269          54.00       208.81
 1182.92        2953.75           1272          45.00       169.57
 1182.95        2954.00           1276          48.00       182.65
 1182.98        2954.25           1279          40.00       147.78
 1183.01        2954.50           1282          44.00       165.21
 1183.04        2954.75           1286          44.00       165.21
 1183.07        2955.00           1289          48.00       182.65
 1183.10        2955.25           1292          41.00       152.14
 1183.13        2955.50           1296          42.00       156.50
 1183.16        2955.75           1299          48.00       182.65
 1183.19        2956.00           1302          46.00       173.93
 1183.22        2956.25           1306          44.00       165.21
 1183.25        2956.50           1309          43.00       160.86
 1183.28        2956.75           1312          43.00       160.86
 1183.31        2957.00           1316          44.00       165.21
 1183.35        2957.25           1319          48.00       182.65
 1183.38        2957.50           1322          45.00       169.57
 1183.41        2957.75           1326          50.00       191.37
 1183.44        2958.00           1329          48.00       182.65
 1183.47        2958.25           1332          44.00       165.21
 1183.50        2958.50           1336          53.00       204.45
 1183.53        2958.75           1339          40.00       147.78
 1183.56        2959.00           1342          48.00       182.65
 1183.59        2959.25           1346          53.00       204.45
 1183.62        2959.50           1349          52.00       200.09
 1183.65        2959.75           1352          67.00       265.48
 1183.68        2960.00           1356          95.00       387.54
 1183.72        2960.25           1359         128.00       531.39
 1183.75        2960.50           1362         161.00       675.25
 1183.78        2960.75           1366         209.00       884.50
 1183.81        2961.00           1369         241.00      1024.01
 1183.84        2961.25           1372         300.00      1281.22
 1183.87        2961.50           1376         434.00      1865.41
 1183.90        2961.75           1379         684.00      2955.36
 1183.93        2962.00           1382        1453.00      6308.52
 1183.96        2962.25           1386        3282.00     14286.42
 1183.99        2962.50           1389        4790.00     20867.03
 1184.03        2962.75           1392        6285.00     27393.47
 1184.06        2963.00           1396        8370.00     36499.85
 1184.09        2963.25           1399       10003.00     43635.55
 1184.12        2963.50           1402       11660.00     50879.26
 1184.15        2963.75           1406       14114.00     61612.92
 1184.18        2964.00           1409       15846.00     69192.75
 1184.21        2964.25           1412       17562.00     76705.96
 1184.24        2964.50           1416       19636.00     85791.15
 1184.27        2964.75           1419       21276.00     92978.71
 1184.31        2965.00           1422       23061.00    100805.30
 1184.34        2965.25           1426       25344.00    110820.70
 1184.37        2965.50           1429       27038.00    118256.20
 1184.40        2965.75           1432       28620.00    125203.10
 1184.43        2966.00           1436       30597.00    133888.50
 1184.46        2966.25           1439       32279.00    141281.50
 1184.49        2966.50           1442       33846.00    148172.00
 1184.52        2966.75           1446       35291.00    154528.60
 1184.55        2967.00           1449       35613.00    155945.40
 1184.58        2967.25           1452       35565.00    155734.20
 1184.61        2967.50           1456       35570.00    155756.20
 1184.64        2967.75           1459       35512.00    155501.00
 1184.68        2968.00           1462       35212.00    154181.00
 1184.71        2968.25           1466       34251.00    149953.40
 1184.74        2968.50           1469       32976.00    144346.00
 1184.77        2968.75           1472       31318.00    137057.20
 1184.80        2969.00           1476       29170.00    127618.90
 1184.83        2969.25           1479       27687.00    121105.70
 1184.86        2969.50           1482       25891.00    113221.30
 1184.89        2969.75           1486       23546.00    102932.50
 1184.92        2970.00           1489       22018.00     96231.64
 1184.95        2970.25           1492       20554.00     89814.04
 1184.99        2970.50           1496       18291.00     79898.78
 1185.02        2970.75           1499       16674.00     72817.58
 1185.05        2971.00           1502       15087.00     65870.68
 1185.08        2971.25           1506       12785.00     55799.09
 1185.11        2971.50           1509       11176.00     48763.10
 1185.14        2971.75           1513        9118.00     39768.00
 1185.17        2972.00           1516        7512.00     32751.87
 1185.20        2972.25           1519        5926.00     25826.02
 1185.23        2972.50           1523        3823.00     16646.93
 1185.26        2972.75           1526        2299.00      9998.20
 1185.29        2973.00           1529        1087.00      4712.52
 1185.33        2973.25           1533         443.00      1904.64
 1185.36        2973.50           1536         336.00      1438.16
 1185.39        2973.75           1539         288.00      1228.90
 1185.42        2974.00           1543         248.00      1054.52
 1185.45        2974.25           1546         181.00       762.44
 1185.48        2974.50           1549         133.00       553.19
 1185.51        2974.75           1553          87.00       352.66
 1185.54        2975.00           1556          71.00       282.91
 1185.57        2975.25           1559          55.00       213.17
 1185.60        2975.50           1563          60.00       234.96
 1185.63        2975.75           1566          46.00       173.93
 1185.66        2976.00           1569          45.00       169.57
 1185.69        2976.25           1573          63.00       248.04
 1185.72        2976.50           1576          43.00       160.86
 1185.75        2976.75           1579          40.00       147.78
 1185.79        2977.00           1583          45.00       169.57
 1185.82        2977.25           1586          50.00       191.37
 1185.85        2977.50           1590          50.00       191.37
 1185.88        2977.75           1593          49.00       187.01
 1185.91        2978.00           1596          55.00       213.17
 1185.94        2978.25           1600          54.00       208.81
 1185.97        2978.50           1603          44.00       165.21
 1186.00        2978.75           1606          46.00       173.93
 1186.03        2979.00           1610          44.00       165.21
 1186.06        2979.25           1613          46.00       173.93
 1186.09        2979.50           1616          46.00       173.93
 1186.12        2979.75           1620          42.00       156.50
 1186.15        2980.00           1623          41.00       152.14
 1186.19        2980.25           1626          43.00       160.86
 1186.22        2980.50           1630          44.00       165.21
 1186.25        2980.75           1633          52.00       200.09
 1186.28        2981.00           1637          38.00       139.06
 1186.31        2981.25           1640          47.00       178.29
 1186.34        2981.50           1643          46.00       173.93
 1186.37        2981.75           1647          52.00       200.09
 1186.40        2982.00           1650          39.00       143.42
 1186.43        2982.25           1653          47.00       178.29
 1186.46        2982.50           1657          50.00       191.37
 1186.49        2982.75           1660          43.00       160.86
 1186.52        2983.00           1663          46.00       173.93
 1186.56        2983.25           1667          39.00       143.42
 1186.59        2983.50           1670          45.00       169.57
 1186.62        2983.75           1673          54.00       208.81
 1186.65        2984.00           1677          44.00       165.21
HS scan finished at 19:46:52
end
