************************************************************
  HS Scan of (1) Internal mercury lamp
************************************************************
Integration time is 0.2294 seconds per sample
dh240319Manchester 53.47 2.23 2.804185pr1000
************************************************************
Dead Time -------------------------  3E-08 
Number of Cycles Used -------------  4 
Starting Wavelength (Angstroms) ---  2950 
Final Wavelength (Angstoms) -------  2984 
Wavelength Increment (Angstroms) --  .25 
Filter Wheel #1 Position ---------- (1) Ground quartz diffuser (ND=2.32)
Filter Wheel #2 Position ---------- (1) Neutral Density 0.494



************************************************************
HS scan start time = 02:48:26
Dark Count =  6.2 


Time (GMT)  Wavelength (Ang)  Step Number  Raw Counts  Counts/Second

  168.80        2950.00           1222          49.00       186.57
  168.87        2950.25           1226          49.00       186.57
  168.90        2950.50           1229          54.00       208.37
  168.93        2950.75           1232          56.00       217.09
  168.96        2951.00           1236          57.00       221.45
  168.99        2951.25           1239          49.00       186.57
  169.02        2951.50           1242          59.00       230.17
  169.05        2951.75           1246          53.00       204.01
  169.08        2952.00           1249          58.00       225.81
  169.11        2952.25           1252          49.00       186.57
  169.14        2952.50           1256          67.00       265.04
  169.17        2952.75           1259          59.00       230.17
  169.20        2953.00           1262          64.00       251.96
  169.24        2953.25           1266          53.00       204.01
  169.27        2953.50           1269          53.00       204.01
  169.30        2953.75           1272          57.00       221.45
  169.33        2954.00           1276          59.00       230.17
  169.36        2954.25           1279          60.00       234.53
  169.39        2954.50           1282          59.00       230.17
  169.42        2954.75           1286          59.00       230.17
  169.45        2955.00           1289          50.00       190.93
  169.48        2955.25           1292          54.00       208.37
  169.52        2955.50           1296          59.00       230.17
  169.55        2955.75           1299          55.00       212.73
  169.58        2956.00           1302          46.00       173.50
  169.61        2956.25           1306          49.00       186.57
  169.64        2956.50           1309          50.00       190.93
  169.67        2956.75           1312          58.00       225.81
  169.70        2957.00           1316          58.00       225.81
  169.73        2957.25           1319          48.00       182.22
  169.76        2957.50           1322          58.00       225.81
  169.79        2957.75           1326          64.00       251.96
  169.82        2958.00           1329          47.00       177.86
  169.86        2958.25           1332          57.00       221.45
  169.89        2958.50           1336          54.00       208.37
  169.92        2958.75           1339          52.00       199.65
  169.95        2959.00           1342          57.00       221.45
  169.98        2959.25           1346          58.00       225.81
  170.01        2959.50           1349          55.00       212.73
  170.04        2959.75           1352          61.00       238.89
  170.07        2960.00           1356          88.00       356.59
  170.10        2960.25           1359         100.00       408.90
  170.13        2960.50           1362         132.00       548.40
  170.17        2960.75           1366         169.00       709.69
  170.20        2961.00           1369         198.00       836.12
  170.23        2961.25           1372         242.00      1027.93
  170.26        2961.50           1376         276.00      1176.15
  170.29        2961.75           1379         339.00      1450.80
  170.32        2962.00           1382         507.00      2183.23
  170.35        2962.25           1386        1547.00      6718.01
  170.38        2962.50           1389        2606.00     11336.90
  170.42        2962.75           1392        3863.00     16821.04
  170.45        2963.00           1396        5465.00     23813.00
  170.48        2963.25           1399        6652.00     28995.57
  170.51        2963.50           1402        7817.00     34083.66
  170.54        2963.75           1406        9639.00     42044.28
  170.57        2964.00           1409       10764.00     46961.50
  170.60        2964.25           1412       11878.00     51832.07
  170.63        2964.50           1416       13478.00     58829.98
  170.66        2964.75           1419       14721.00     64268.52
  170.70        2965.00           1422       16022.00     69962.73
  170.73        2965.25           1426       17494.00     76407.74
  170.76        2965.50           1429       18885.00     82500.37
  170.79        2965.75           1432       20227.00     88380.50
  170.82        2966.00           1436       21811.00     95323.65
  170.85        2966.25           1439       23102.00    100984.60
  170.88        2966.50           1442       24214.00    105862.30
  170.91        2966.75           1446       25435.00    111219.70
  170.94        2967.00           1449       26167.00    114432.30
  170.98        2967.25           1452       26452.00    115683.30
  171.01        2967.50           1456       26277.00    114915.10
  171.04        2967.75           1459       26330.00    115147.80
  171.07        2968.00           1462       26321.00    115108.20
  171.10        2968.25           1466       25840.00    112997.10
  171.13        2968.50           1469       25034.00    109460.00
  171.16        2968.75           1472       23814.00    104107.60
  171.19        2969.00           1476       22259.00     97287.90
  171.22        2969.25           1479       21111.00     92254.99
  171.26        2969.50           1482       19899.00     86943.14
  171.29        2969.75           1486       18125.00     79171.26
  171.32        2970.00           1489       17139.00     74853.18
  171.35        2970.25           1492       15946.00     69630.04
  171.38        2970.50           1496       14281.00     62343.17
  171.41        2970.75           1499       13042.00     56922.76
  171.44        2971.00           1502       11896.00     51910.77
  171.47        2971.25           1506       10102.00     44067.81
  171.50        2971.50           1509        8715.00     38006.69
  171.54        2971.75           1513        7207.00     31419.32
  171.57        2972.00           1516        6006.00     26174.86
  171.60        2972.25           1519        4891.00     21307.43
  171.63        2972.50           1523        3382.00     14722.28
  171.66        2972.75           1526        2231.00      9701.17
  171.69        2973.00           1529        1171.00      5078.37
  171.72        2973.25           1533         436.00      1873.69
  171.75        2973.50           1536         284.00      1211.03
  171.78        2973.75           1539         219.00       927.66
  171.82        2974.00           1543         178.00       748.93
  171.85        2974.25           1546         134.00       557.11
  171.88        2974.50           1549         114.00       469.93
  171.91        2974.75           1553          79.00       317.35
  171.94        2975.00           1556          73.00       291.20
  171.97        2975.25           1559          63.00       247.60
  172.00        2975.50           1563          58.00       225.81
  172.03        2975.75           1566          52.00       199.65
  172.06        2976.00           1569          56.00       217.09
  172.10        2976.25           1573          56.00       217.09
  172.13        2976.50           1576          52.00       199.65
  172.16        2976.75           1579          52.00       199.65
  172.19        2977.00           1583          55.00       212.73
  172.22        2977.25           1586          56.00       217.09
  172.25        2977.50           1590          55.00       212.73
  172.28        2977.75           1593          46.00       173.50
  172.31        2978.00           1596          54.00       208.37
  172.34        2978.25           1600          49.00       186.57
  172.37        2978.50           1603          56.00       217.09
  172.40        2978.75           1606          55.00       212.73
  172.43        2979.00           1610          53.00       204.01
  172.47        2979.25           1613          54.00       208.37
  172.50        2979.50           1616          51.00       195.29
  172.53        2979.75           1620          51.00       195.29
  172.56        2980.00           1623          56.00       217.09
  172.59        2980.25           1626          54.00       208.37
  172.62        2980.50           1630          54.00       208.37
  172.65        2980.75           1633          50.00       190.93
  172.68        2981.00           1637          48.00       182.22
  172.71        2981.25           1640          54.00       208.37
  172.75        2981.50           1643          62.00       243.25
  172.78        2981.75           1647          42.00       156.06
  172.81        2982.00           1650          43.00       160.42
  172.84        2982.25           1653          53.00       204.01
  172.87        2982.50           1657          50.00       190.93
  172.90        2982.75           1660          47.00       177.86
  172.93        2983.00           1663          48.00       182.22
  172.96        2983.25           1667          48.00       182.22
  172.99        2983.50           1670          56.00       217.09
  173.02        2983.75           1673          46.00       173.50
  173.06        2984.00           1677          49.00       186.57
HS scan finished at 02:53:16
end
************************************************************
  HS Scan of (1) Internal mercury lamp
************************************************************
Integration time is 0.2294 seconds per sample
dh240319Manchester 53.47 2.23 2.804185pr1000
************************************************************
Dead Time -------------------------  3E-08 
Number of Cycles Used -------------  4 
Starting Wavelength (Angstroms) ---  2950 
Final Wavelength (Angstoms) -------  2984 
Wavelength Increment (Angstroms) --  .25 
Filter Wheel #1 Position ---------- (1) Ground quartz diffuser (ND=2.32)
Filter Wheel #2 Position ---------- (1) Neutral Density 0.494



************************************************************
HS scan start time = 19:42:20
Dark Count =  6 


Time (GMT)  Wavelength (Ang)  Step Number  Raw Counts  Counts/Second

 1182.70        2950.00           1222          53.00       204.88
 1182.76        2950.25           1226          60.00       235.40
 1182.80        2950.50           1229          53.00       204.88
 1182.83        2950.75           1232          56.00       217.96
 1182.86        2951.00           1236          52.00       200.52
 1182.89        2951.25           1239          56.00       217.96
 1182.92        2951.50           1242          62.00       244.12
 1182.95        2951.75           1246          50.00       191.81
 1182.98        2952.00           1249          65.00       257.19
 1183.01        2952.25           1252          64.00       252.84
 1183.04        2952.50           1256          56.00       217.96
 1183.08        2952.75           1259          54.00       209.24
 1183.11        2953.00           1262          58.00       226.68
 1183.14        2953.25           1266          62.00       244.12
 1183.17        2953.50           1269          51.00       196.17
 1183.20        2953.75           1272          59.00       231.04
 1183.23        2954.00           1276          49.00       187.45
 1183.26        2954.25           1279          60.00       235.40
 1183.29        2954.50           1282          58.00       226.68
 1183.32        2954.75           1286          54.00       209.24
 1183.35        2955.00           1289          57.00       222.32
 1183.39        2955.25           1292          51.00       196.17
 1183.42        2955.50           1296          55.00       213.60
 1183.45        2955.75           1299          51.00       196.17
 1183.48        2956.00           1302          53.00       204.88
 1183.51        2956.25           1306          61.00       239.76
 1183.54        2956.50           1309          59.00       231.04
 1183.57        2956.75           1312          56.00       217.96
 1183.60        2957.00           1316          56.00       217.96
 1183.63        2957.25           1319          51.00       196.17
 1183.66        2957.50           1322          55.00       213.60
 1183.70        2957.75           1326          63.00       248.48
 1183.73        2958.00           1329          52.00       200.52
 1183.76        2958.25           1332          60.00       235.40
 1183.79        2958.50           1336          64.00       252.84
 1183.82        2958.75           1339          59.00       231.04
 1183.85        2959.00           1342          51.00       196.17
 1183.88        2959.25           1346          57.00       222.32
 1183.91        2959.50           1349          60.00       235.40
 1183.94        2959.75           1352          65.00       257.19
 1183.97        2960.00           1356          88.00       357.46
 1184.01        2960.25           1359          89.00       361.82
 1184.04        2960.50           1362         131.00       544.91
 1184.07        2960.75           1366         176.00       741.08
 1184.10        2961.00           1369         218.00       924.18
 1184.13        2961.25           1372         246.00      1046.24
 1184.16        2961.50           1376         283.00      1207.54
 1184.19        2961.75           1379         400.00      1717.61
 1184.22        2962.00           1382         809.00      3500.80
 1184.25        2962.25           1386        2005.00      8716.32
 1184.29        2962.50           1389        3226.00     14042.53
 1184.32        2962.75           1392        4361.00     18995.13
 1184.35        2963.00           1396        5988.00     26097.15
 1184.38        2963.25           1399        7188.00     31337.21
 1184.41        2963.50           1402        8447.00     36836.68
 1184.44        2963.75           1406       10282.00     44855.44
 1184.47        2964.00           1409       11387.00     49686.04
 1184.50        2964.25           1412       12659.00     55248.43
 1184.53        2964.50           1416       14148.00     61762.11
 1184.56        2964.75           1419       15455.00     67481.73
 1184.60        2965.00           1422       16854.00     73606.13
 1184.63        2965.25           1426       18338.00     80105.10
 1184.66        2965.50           1429       19547.00     85401.61
 1184.69        2965.75           1432       20864.00     91173.19
 1184.72        2966.00           1436       22630.00     98915.59
 1184.75        2966.25           1439       23616.00    103239.90
 1184.78        2966.50           1442       24764.00    108276.20
 1184.81        2966.75           1446       25961.00    113529.00
 1184.84        2967.00           1449       26293.00    114986.20
 1184.88        2967.25           1452       26252.00    114806.20
 1184.91        2967.50           1456       26275.00    114907.20
 1184.94        2967.75           1459       26281.00    114933.50
 1184.97        2968.00           1462       26130.00    114270.80
 1185.00        2968.25           1466       25580.00    111856.90
 1185.03        2968.50           1469       24400.00    106679.10
 1185.06        2968.75           1472       23298.00    101845.10
 1185.09        2969.00           1476       21591.00     94360.02
 1185.13        2969.25           1479       20373.00     89021.22
 1185.16        2969.50           1482       19197.00     83868.12
 1185.19        2969.75           1486       17785.00     77683.01
 1185.22        2970.00           1489       16469.00     71920.49
 1185.25        2970.25           1492       15281.00     66720.16
 1185.28        2970.50           1496       13728.00     59924.55
 1185.31        2970.75           1499       12497.00     54539.91
 1185.34        2971.00           1502       11218.00     48947.15
 1185.37        2971.25           1506        9508.00     41472.67
 1185.41        2971.50           1509        8478.00     36972.11
 1185.44        2971.75           1513        6839.00     29813.05
 1185.47        2972.00           1516        5588.00     24350.83
 1185.50        2972.25           1519        4418.00     19243.89
 1185.53        2972.50           1523        2813.00     12240.76
 1185.56        2972.75           1526        1716.00      7455.90
 1185.59        2973.00           1529         776.00      3356.92
 1185.62        2973.25           1533         369.00      1582.46
 1185.65        2973.50           1536         275.00      1172.67
 1185.69        2973.75           1539         234.00       993.93
 1185.72        2974.00           1543         192.00       810.83
 1185.75        2974.25           1546         142.00       592.86
 1185.78        2974.50           1549         136.00       566.71
 1185.81        2974.75           1553          82.00       331.30
 1185.84        2975.00           1556          66.00       261.55
 1185.87        2975.25           1559          50.00       191.81
 1185.90        2975.50           1563          66.00       261.55
 1185.93        2975.75           1566          54.00       209.24
 1185.96        2976.00           1569          54.00       209.24
 1186.00        2976.25           1573          51.00       196.17
 1186.03        2976.50           1576          52.00       200.52
 1186.06        2976.75           1579          55.00       213.60
 1186.09        2977.00           1583          53.00       204.88
 1186.12        2977.25           1586          53.00       204.88
 1186.15        2977.50           1590          51.00       196.17
 1186.18        2977.75           1593          51.00       196.17
 1186.21        2978.00           1596          49.00       187.45
 1186.24        2978.25           1600          55.00       213.60
 1186.27        2978.50           1603          49.00       187.45
 1186.31        2978.75           1606          52.00       200.52
 1186.34        2979.00           1610          52.00       200.52
 1186.37        2979.25           1613          54.00       209.24
 1186.40        2979.50           1616          47.00       178.73
 1186.43        2979.75           1620          57.00       222.32
 1186.46        2980.00           1623          52.00       200.52
 1186.49        2980.25           1626          45.00       170.01
 1186.52        2980.50           1630          51.00       196.17
 1186.55        2980.75           1633          52.00       200.52
 1186.59        2981.00           1637          49.00       187.45
 1186.62        2981.25           1640          48.00       183.09
 1186.65        2981.50           1643          45.00       170.01
 1186.68        2981.75           1647          48.00       183.09
 1186.71        2982.00           1650          46.00       174.37
 1186.74        2982.25           1653          58.00       226.68
 1186.77        2982.50           1657          53.00       204.88
 1186.80        2982.75           1660          53.00       204.88
 1186.83        2983.00           1663          46.00       174.37
 1186.86        2983.25           1667          51.00       196.17
 1186.90        2983.50           1670          48.00       183.09
 1186.93        2983.75           1673          49.00       187.45
 1186.96        2984.00           1677          49.00       187.45
HS scan finished at 19:47:10
end
