************************************************************
  HS Scan of (1) Internal mercury lamp
************************************************************
Integration time is 0.2294 seconds per sample
dh240317Manchester 53.47 2.23 2.750537pr1000
************************************************************
Dead Time -------------------------  3E-08 
Number of Cycles Used -------------  4 
Starting Wavelength (Angstroms) ---  2950 
Final Wavelength (Angstoms) -------  2984 
Wavelength Increment (Angstroms) --  .25 
Filter Wheel #1 Position ---------- (1) Ground quartz diffuser (ND=2.32)
Filter Wheel #2 Position ---------- (1) Neutral Density 0.494



************************************************************
HS scan start time = 02:44:44
Dark Count =  6.7 


Time (GMT)  Wavelength (Ang)  Step Number  Raw Counts  Counts/Second

  165.10        2950.00           1222          44.00       162.60
  165.17        2950.25           1226          42.00       153.88
  165.20        2950.50           1229          40.00       145.16
  165.23        2950.75           1232          48.00       180.04
  165.26        2951.00           1236          48.00       180.04
  165.29        2951.25           1239          45.00       166.96
  165.32        2951.50           1242          49.00       184.40
  165.35        2951.75           1246          43.00       158.24
  165.38        2952.00           1249          43.00       158.24
  165.41        2952.25           1252          43.00       158.24
  165.45        2952.50           1256          43.00       158.24
  165.48        2952.75           1259          39.00       140.80
  165.51        2953.00           1262          48.00       180.04
  165.54        2953.25           1266          45.00       166.96
  165.57        2953.50           1269          45.00       166.96
  165.60        2953.75           1272          48.00       180.04
  165.63        2954.00           1276          50.00       188.75
  165.66        2954.25           1279          43.00       158.24
  165.69        2954.50           1282          49.00       184.40
  165.72        2954.75           1286          42.00       153.88
  165.76        2955.00           1289          39.00       140.80
  165.79        2955.25           1292          50.00       188.75
  165.82        2955.50           1296          43.00       158.24
  165.85        2955.75           1299          45.00       166.96
  165.88        2956.00           1302          44.00       162.60
  165.91        2956.25           1306          46.00       171.32
  165.94        2956.50           1309          41.00       149.52
  165.97        2956.75           1312          43.00       158.24
  166.00        2957.00           1316          48.00       180.04
  166.03        2957.25           1319          51.00       193.11
  166.06        2957.50           1322          46.00       171.32
  166.09        2957.75           1326          46.00       171.32
  166.12        2958.00           1329          51.00       193.11
  166.15        2958.25           1332          50.00       188.75
  166.19        2958.50           1336          50.00       188.75
  166.22        2958.75           1339          67.00       262.86
  166.25        2959.00           1342          47.00       175.68
  166.28        2959.25           1346          49.00       184.40
  166.31        2959.50           1349          53.00       201.83
  166.34        2959.75           1352          64.00       249.78
  166.37        2960.00           1356          84.00       336.97
  166.40        2960.25           1359         113.00       463.39
  166.43        2960.50           1362         154.00       642.12
  166.46        2960.75           1366         206.00       868.81
  166.49        2961.00           1369         263.00      1117.30
  166.53        2961.25           1372         299.00      1274.24
  166.56        2961.50           1376         372.00      1592.49
  166.59        2961.75           1379         479.00      2058.98
  166.62        2962.00           1382         811.00      3506.47
  166.65        2962.25           1386        2049.00      8905.17
  166.68        2962.50           1389        3516.00     15304.76
  166.71        2962.75           1392        5056.00     22025.45
  166.74        2963.00           1396        7127.00     31067.74
  166.77        2963.25           1399        8699.00     37934.60
  166.81        2963.50           1402       10305.00     44952.91
  166.84        2963.75           1406       12520.00     54637.44
  166.87        2964.00           1409       14386.00     62800.42
  166.90        2964.25           1412       15842.00     69172.61
  166.93        2964.50           1416       18202.00     79506.33
  166.96        2964.75           1419       19829.00     86634.21
  166.99        2965.00           1422       21397.00     93506.49
  167.02        2965.25           1426       23686.00    103543.90
  167.05        2965.50           1429       25290.00    110581.20
  167.08        2965.75           1432       26606.00    116357.10
  167.11        2966.00           1436       28981.00    126786.10
  167.15        2966.25           1439       30691.00    134298.90
  167.18        2966.50           1442       32180.00    140843.60
  167.21        2966.75           1446       34160.00    149550.50
  167.24        2967.00           1449       35372.00    154882.30
  167.27        2967.25           1452       35418.00    155084.70
  167.30        2967.50           1456       35676.00    156220.00
  167.33        2967.75           1459       35611.00    155934.00
  167.36        2968.00           1462       35527.00    155564.40
  167.39        2968.25           1466       34962.00    153078.50
  167.43        2968.50           1469       34110.00    149330.60
  167.46        2968.75           1472       32789.00    143521.20
  167.49        2969.00           1476       30659.00    134158.30
  167.52        2969.25           1479       28934.00    126579.60
  167.55        2969.50           1482       27410.00    119886.80
  167.58        2969.75           1486       25190.00    110142.30
  167.61        2970.00           1489       23673.00    103486.90
  167.64        2970.25           1492       22042.00     96334.24
  167.68        2970.50           1496       19740.00     86244.22
  167.71        2970.75           1499       18248.00     79707.81
  167.74        2971.00           1502       16660.00     72753.66
  167.77        2971.25           1506       14478.00     63202.99
  167.80        2971.50           1509       12809.00     55901.44
  167.83        2971.75           1513       10624.00     46347.32
  167.86        2972.00           1516        9030.00     39380.85
  167.89        2972.25           1519        7154.00     31185.66
  167.92        2972.50           1523        4961.00     21610.78
  167.95        2972.75           1526        3490.00     15191.32
  167.98        2973.00           1529        1898.00      8246.59
  168.02        2973.25           1533         675.00      2913.51
  168.05        2973.50           1536         387.00      1657.89
  168.08        2973.75           1539         304.00      1296.04
  168.11        2974.00           1543         255.00      1082.42
  168.14        2974.25           1546         192.00       807.78
  168.17        2974.50           1549         154.00       642.12
  168.20        2974.75           1553         102.00       415.44
  168.23        2975.00           1556          75.00       297.74
  168.26        2975.25           1559          61.00       236.71
  168.29        2975.50           1563          54.00       206.19
  168.32        2975.75           1566          55.00       210.55
  168.35        2976.00           1569          51.00       193.11
  168.39        2976.25           1573          50.00       188.75
  168.42        2976.50           1576          53.00       201.83
  168.45        2976.75           1579          44.00       162.60
  168.48        2977.00           1583          45.00       166.96
  168.51        2977.25           1586          38.00       136.44
  168.54        2977.50           1590          51.00       193.11
  168.57        2977.75           1593          49.00       184.40
  168.60        2978.00           1596          42.00       153.88
  168.63        2978.25           1600          51.00       193.11
  168.66        2978.50           1603          46.00       171.32
  168.69        2978.75           1606          44.00       162.60
  168.72        2979.00           1610          47.00       175.68
  168.75        2979.25           1613          42.00       153.88
  168.78        2979.50           1616          46.00       171.32
  168.81        2979.75           1620          44.00       162.60
  168.85        2980.00           1623          45.00       166.96
  168.88        2980.25           1626          42.00       153.88
  168.91        2980.50           1630          50.00       188.75
  168.94        2980.75           1633          43.00       158.24
  168.97        2981.00           1637          50.00       188.75
  169.00        2981.25           1640          50.00       188.75
  169.03        2981.50           1643          39.00       140.80
  169.06        2981.75           1647          45.00       166.96
  169.09        2982.00           1650          55.00       210.55
  169.12        2982.25           1653          45.00       166.96
  169.15        2982.50           1657          41.00       149.52
  169.18        2982.75           1660          38.00       136.44
  169.21        2983.00           1663          43.00       158.24
  169.25        2983.25           1667          44.00       162.60
  169.28        2983.50           1670          45.00       166.96
  169.31        2983.75           1673          48.00       180.04
  169.34        2984.00           1677          45.00       166.96
HS scan finished at 02:49:33
end
************************************************************
  HS Scan of (1) Internal mercury lamp
************************************************************
Integration time is 0.2294 seconds per sample
dh240317Manchester 53.47 2.23 2.804185pr1000
************************************************************
Dead Time -------------------------  3E-08 
Number of Cycles Used -------------  4 
Starting Wavelength (Angstroms) ---  2950 
Final Wavelength (Angstoms) -------  2984 
Wavelength Increment (Angstroms) --  .25 
Filter Wheel #1 Position ---------- (1) Ground quartz diffuser (ND=2.32)
Filter Wheel #2 Position ---------- (1) Neutral Density 0.494



************************************************************
HS scan start time = 19:42:04
Dark Count =  6.2 


Time (GMT)  Wavelength (Ang)  Step Number  Raw Counts  Counts/Second

 1182.43        2950.00           1222          41.00       151.70
 1182.50        2950.25           1226          43.00       160.42
 1182.53        2950.50           1229          44.00       164.78
 1182.56        2950.75           1232          43.00       160.42
 1182.59        2951.00           1236          47.00       177.86
 1182.62        2951.25           1239          44.00       164.78
 1182.65        2951.50           1242          45.00       169.14
 1182.68        2951.75           1246          45.00       169.14
 1182.71        2952.00           1249          54.00       208.37
 1182.74        2952.25           1252          45.00       169.14
 1182.77        2952.50           1256          48.00       182.22
 1182.81        2952.75           1259          42.00       156.06
 1182.84        2953.00           1262          48.00       182.22
 1182.87        2953.25           1266          45.00       169.14
 1182.90        2953.50           1269          37.00       134.26
 1182.93        2953.75           1272          43.00       160.42
 1182.96        2954.00           1276          46.00       173.50
 1182.99        2954.25           1279          48.00       182.22
 1183.02        2954.50           1282          50.00       190.93
 1183.05        2954.75           1286          47.00       177.86
 1183.08        2955.00           1289          49.00       186.57
 1183.11        2955.25           1292          46.00       173.50
 1183.14        2955.50           1296          45.00       169.14
 1183.18        2955.75           1299          44.00       164.78
 1183.21        2956.00           1302          44.00       164.78
 1183.24        2956.25           1306          51.00       195.29
 1183.27        2956.50           1309          46.00       173.50
 1183.30        2956.75           1312          50.00       190.93
 1183.33        2957.00           1316          38.00       138.62
 1183.36        2957.25           1319          49.00       186.57
 1183.39        2957.50           1322          45.00       169.14
 1183.42        2957.75           1326          51.00       195.29
 1183.45        2958.00           1329          62.00       243.25
 1183.49        2958.25           1332          52.00       199.65
 1183.52        2958.50           1336          38.00       138.62
 1183.55        2958.75           1339          43.00       160.42
 1183.58        2959.00           1342          58.00       225.81
 1183.61        2959.25           1346          44.00       164.78
 1183.64        2959.50           1349          55.00       212.73
 1183.67        2959.75           1352          65.00       256.32
 1183.70        2960.00           1356          97.00       395.82
 1183.73        2960.25           1359         135.00       561.47
 1183.76        2960.50           1362         175.00       735.85
 1183.79        2960.75           1366         226.00       958.18
 1183.82        2961.00           1369         277.00      1180.51
 1183.85        2961.25           1372         309.00      1320.02
 1183.88        2961.50           1376         400.00      1716.74
 1183.92        2961.75           1379         575.00      2479.70
 1183.95        2962.00           1382        1027.00      4450.46
 1183.98        2962.25           1386        2542.00     11057.72
 1184.01        2962.50           1389        4142.00     18038.53
 1184.04        2962.75           1392        5651.00     24624.99
 1184.07        2963.00           1396        7722.00     33668.69
 1184.10        2963.25           1399        9349.00     40776.97
 1184.13        2963.50           1402       11080.00     48342.95
 1184.16        2963.75           1406       13508.00     58961.22
 1184.19        2964.00           1409       15189.00     66316.63
 1184.23        2964.25           1412       16839.00     73539.58
 1184.26        2964.50           1416       19026.00     83118.07
 1184.29        2964.75           1419       20834.00     91040.81
 1184.32        2965.00           1422       22536.00     98502.52
 1184.35        2965.25           1426       24794.00    108406.90
 1184.38        2965.50           1429       26300.00    115016.10
 1184.41        2965.75           1432       27872.00    121917.70
 1184.44        2966.00           1436       30074.00    131590.00
 1184.47        2966.25           1439       31589.00    138247.90
 1184.51        2966.50           1442       32945.00    144209.30
 1184.54        2966.75           1446       34627.00    151606.90
 1184.57        2967.00           1449       35393.00    154976.90
 1184.60        2967.25           1452       35504.00    155465.40
 1184.63        2967.50           1456       35520.00    155535.70
 1184.66        2967.75           1459       35319.00    154651.40
 1184.69        2968.00           1462       35252.00    154356.60
 1184.72        2968.25           1466       34574.00    151373.80
 1184.75        2968.50           1469       33206.00    145357.00
 1184.79        2968.75           1472       31781.00    139091.90
 1184.82        2969.00           1476       29612.00    129560.10
 1184.85        2969.25           1479       27960.00    122304.10
 1184.88        2969.50           1482       26253.00    114809.80
 1184.91        2969.75           1486       24305.00    106261.50
 1184.94        2970.00           1489       22565.00     98629.69
 1184.97        2970.25           1492       21070.00     92075.28
 1185.00        2970.50           1496       18760.00     81952.77
 1185.03        2970.75           1499       17225.00     75229.77
 1185.06        2971.00           1502       15627.00     68233.69
 1185.10        2971.25           1506       13575.00     59254.33
 1185.13        2971.50           1509       11810.00     51534.72
 1185.16        2971.75           1513        9790.00     42704.20
 1185.19        2972.00           1516        8110.00     35363.56
 1185.22        2972.25           1519        6470.00     28200.83
 1185.25        2972.50           1523        4385.00     19099.00
 1185.28        2972.75           1526        2879.00     12527.81
 1185.31        2973.00           1529        1574.00      6835.75
 1185.34        2973.25           1533         528.00      2274.78
 1185.37        2973.50           1536         339.00      1450.80
 1185.41        2973.75           1539         271.00      1154.36
 1185.44        2974.00           1543         217.00       918.94
 1185.47        2974.25           1546         150.00       626.86
 1185.50        2974.50           1549         120.00       496.08
 1185.53        2974.75           1553          82.00       330.43
 1185.56        2975.00           1556          62.00       243.25
 1185.59        2975.25           1559          57.00       221.45
 1185.62        2975.50           1563          46.00       173.50
 1185.65        2975.75           1566          75.00       299.92
 1185.68        2976.00           1569          50.00       190.93
 1185.72        2976.25           1573          43.00       160.42
 1185.75        2976.50           1576          44.00       164.78
 1185.78        2976.75           1579          43.00       160.42
 1185.81        2977.00           1583          40.00       147.34
 1185.84        2977.25           1586          45.00       169.14
 1185.87        2977.50           1590          45.00       169.14
 1185.90        2977.75           1593          44.00       164.78
 1185.93        2978.00           1596          44.00       164.78
 1185.96        2978.25           1600          45.00       169.14
 1185.99        2978.50           1603          55.00       212.73
 1186.02        2978.75           1606          48.00       182.22
 1186.05        2979.00           1610          46.00       173.50
 1186.09        2979.25           1613          50.00       190.93
 1186.12        2979.50           1616          46.00       173.50
 1186.15        2979.75           1620          50.00       190.93
 1186.18        2980.00           1623          46.00       173.50
 1186.21        2980.25           1626          50.00       190.93
 1186.24        2980.50           1630          40.00       147.34
 1186.27        2980.75           1633          49.00       186.57
 1186.30        2981.00           1637          39.00       142.98
 1186.33        2981.25           1640          55.00       212.73
 1186.36        2981.50           1643          47.00       177.86
 1186.39        2981.75           1647          44.00       164.78
 1186.42        2982.00           1650          41.00       151.70
 1186.46        2982.25           1653          44.00       164.78
 1186.49        2982.50           1657          46.00       173.50
 1186.52        2982.75           1660          47.00       177.86
 1186.55        2983.00           1663          50.00       190.93
 1186.58        2983.25           1667          41.00       151.70
 1186.61        2983.50           1670          44.00       164.78
 1186.64        2983.75           1673          47.00       177.86
 1186.67        2984.00           1677          44.00       164.78
HS scan finished at 19:46:53
end
