************************************************************
  HS Scan of (1) Internal mercury lamp
************************************************************
Integration time is 0.2294 seconds per sample
dh230318Manchester 53.47 2.23 2.804185pr1000
************************************************************
Dead Time -------------------------  3E-08 
Number of Cycles Used -------------  4 
Starting Wavelength (Angstroms) ---  2950 
Final Wavelength (Angstoms) -------  2984 
Wavelength Increment (Angstroms) --  .25 
Filter Wheel #1 Position ---------- (1) Ground quartz diffuser (ND=2.32)
Filter Wheel #2 Position ---------- (1) Neutral Density 0.494



************************************************************
HS scan start time = 02:50:31
Dark Count =  5.8 


Time (GMT)  Wavelength (Ang)  Step Number  Raw Counts  Counts/Second

  170.89        2950.00           1222          57.00       223.19
  170.95        2950.25           1226          59.00       231.91
  170.98        2950.50           1229          52.00       201.40
  171.02        2950.75           1232          55.00       214.47
  171.05        2951.00           1236          62.00       244.99
  171.08        2951.25           1239          57.00       223.19
  171.11        2951.50           1242          53.00       205.76
  171.14        2951.75           1246          61.00       240.63
  171.17        2952.00           1249          63.00       249.35
  171.20        2952.25           1252          58.00       227.55
  171.23        2952.50           1256          59.00       231.91
  171.26        2952.75           1259          52.00       201.40
  171.29        2953.00           1262          61.00       240.63
  171.32        2953.25           1266          68.00       271.14
  171.35        2953.50           1269          56.00       218.83
  171.38        2953.75           1272          57.00       223.19
  171.41        2954.00           1276          60.00       236.27
  171.44        2954.25           1279          61.00       240.63
  171.48        2954.50           1282          57.00       223.19
  171.51        2954.75           1286          63.00       249.35
  171.54        2955.00           1289          58.00       227.55
  171.57        2955.25           1292          58.00       227.55
  171.60        2955.50           1296          53.00       205.76
  171.63        2955.75           1299          59.00       231.91
  171.66        2956.00           1302          59.00       231.91
  171.69        2956.25           1306          60.00       236.27
  171.72        2956.50           1309          54.00       210.11
  171.75        2956.75           1312          61.00       240.63
  171.79        2957.00           1316          58.00       227.55
  171.82        2957.25           1319          58.00       227.55
  171.85        2957.50           1322          57.00       223.19
  171.88        2957.75           1326          71.00       284.22
  171.91        2958.00           1329          56.00       218.83
  171.94        2958.25           1332          58.00       227.55
  171.97        2958.50           1336          54.00       210.11
  172.00        2958.75           1339          59.00       231.91
  172.03        2959.00           1342          57.00       223.19
  172.06        2959.25           1346          74.00       297.30
  172.09        2959.50           1349          66.00       262.43
  172.13        2959.75           1352          77.00       310.38
  172.16        2960.00           1356         102.00       419.36
  172.19        2960.25           1359         147.00       615.53
  172.22        2960.50           1362         168.00       707.08
  172.25        2960.75           1366         215.00       911.97
  172.28        2961.00           1369         253.00      1077.63
  172.31        2961.25           1372         280.00      1195.34
  172.34        2961.50           1376         364.00      1561.54
  172.37        2961.75           1379         517.00      2228.57
  172.40        2962.00           1382        1079.00      4678.95
  172.43        2962.25           1386        2735.00     11901.37
  172.47        2962.50           1389        4152.00     18083.91
  172.50        2962.75           1392        5578.00     24308.05
  172.53        2963.00           1396        7444.00     32456.18
  172.56        2963.25           1399        8946.00     39017.75
  172.59        2963.50           1402       10447.00     45577.54
  172.62        2963.75           1406       12431.00     54252.14
  172.65        2964.00           1409       13993.00     61084.82
  172.68        2964.25           1412       15460.00     67504.49
  172.71        2964.50           1416       17462.00     76269.35
  172.74        2964.75           1419       18851.00     82353.16
  172.77        2965.00           1422       20523.00     89679.48
  172.81        2965.25           1426       22460.00     98171.01
  172.84        2965.50           1429       23666.00    103460.10
  172.87        2965.75           1432       25419.00    111151.20
  172.90        2966.00           1436       27501.00    120290.30
  172.93        2966.25           1439       28841.00    126175.00
  172.96        2966.50           1442       30204.00    132162.90
  172.99        2966.75           1446       31646.00    138500.20
  173.02        2967.00           1449       32046.00    140258.50
  173.05        2967.25           1452       32129.00    140623.40
  173.09        2967.50           1456       32033.00    140201.40
  173.12        2967.75           1459       32075.00    140386.00
  173.15        2968.00           1462       32037.00    140219.00
  173.18        2968.25           1466       31078.00    136003.70
  173.21        2968.50           1469       29900.00    130827.20
  173.24        2968.75           1472       28338.00    123965.80
  173.27        2969.00           1476       26523.00    115996.70
  173.30        2969.25           1479       25031.00    109448.60
  173.33        2969.50           1482       23484.00    102661.80
  173.37        2969.75           1486       21653.00     94632.71
  173.40        2970.00           1489       20165.00     88110.53
  173.43        2970.25           1492       18918.00     82646.69
  173.46        2970.50           1496       16869.00     73672.68
  173.49        2970.75           1499       15339.00     66974.90
  173.52        2971.00           1502       13841.00     60419.80
  173.55        2971.25           1506       11869.00     51794.46
  173.58        2971.50           1509       10331.00     45070.49
  173.61        2971.75           1513        8407.00     36662.80
  173.64        2972.00           1516        6824.00     29748.42
  173.67        2972.25           1519        5373.00     23413.13
  173.71        2972.50           1523        3501.00     15243.24
  173.74        2972.75           1526        2080.00      9044.30
  173.77        2973.00           1529         886.00      3837.41
  173.80        2973.25           1533         425.00      1827.48
  173.83        2973.50           1536         320.00      1369.72
  173.86        2973.75           1539         280.00      1195.34
  173.89        2974.00           1543         226.00       959.92
  173.92        2974.25           1546         181.00       763.75
  173.95        2974.50           1549         144.00       602.45
  173.98        2974.75           1553          92.00       375.77
  174.02        2975.00           1556          73.00       292.94
  174.05        2975.25           1559          69.00       275.50
  174.08        2975.50           1563          61.00       240.63
  174.11        2975.75           1566          57.00       223.19
  174.14        2976.00           1569          51.00       197.04
  174.17        2976.25           1573          51.00       197.04
  174.20        2976.50           1576          53.00       205.76
  174.23        2976.75           1579          53.00       205.76
  174.26        2977.00           1583          54.00       210.11
  174.29        2977.25           1586          52.00       201.40
  174.32        2977.50           1590          55.00       214.47
  174.35        2977.75           1593          58.00       227.55
  174.39        2978.00           1596          53.00       205.76
  174.42        2978.25           1600          49.00       188.32
  174.45        2978.50           1603          47.00       179.60
  174.48        2978.75           1606          54.00       210.11
  174.51        2979.00           1610          50.00       192.68
  174.54        2979.25           1613          49.00       188.32
  174.57        2979.50           1616          57.00       223.19
  174.60        2979.75           1620          56.00       218.83
  174.63        2980.00           1623          54.00       210.11
  174.66        2980.25           1626          55.00       214.47
  174.69        2980.50           1630          57.00       223.19
  174.72        2980.75           1633          57.00       223.19
  174.75        2981.00           1637          52.00       201.40
  174.78        2981.25           1640          59.00       231.91
  174.82        2981.50           1643          51.00       197.04
  174.85        2981.75           1647          42.00       157.80
  174.88        2982.00           1650          59.00       231.91
  174.91        2982.25           1653          58.00       227.55
  174.94        2982.50           1657          53.00       205.76
  174.97        2982.75           1660          49.00       188.32
  175.00        2983.00           1663          51.00       197.04
  175.03        2983.25           1667          47.00       179.60
  175.06        2983.50           1670          48.00       183.96
  175.09        2983.75           1673          51.00       197.04
  175.12        2984.00           1677          50.00       192.68
HS scan finished at 02:55:20
end
************************************************************
  HS Scan of (1) Internal mercury lamp
************************************************************
Integration time is 0.2294 seconds per sample
dh230318Manchester 53.47 2.23 2.804185pr1000
************************************************************
Dead Time -------------------------  3E-08 
Number of Cycles Used -------------  4 
Starting Wavelength (Angstroms) ---  2950 
Final Wavelength (Angstoms) -------  2984 
Wavelength Increment (Angstroms) --  .25 
Filter Wheel #1 Position ---------- (1) Ground quartz diffuser (ND=2.32)
Filter Wheel #2 Position ---------- (1) Neutral Density 0.494



************************************************************
HS scan start time = 19:42:05
Dark Count =  5.8 


Time (GMT)  Wavelength (Ang)  Step Number  Raw Counts  Counts/Second

 1182.45        2950.00           1222          58.00       227.55
 1182.52        2950.25           1226          65.00       258.07
 1182.55        2950.50           1229          59.00       231.91
 1182.58        2950.75           1232          61.00       240.63
 1182.61        2951.00           1236          54.00       210.11
 1182.64        2951.25           1239          63.00       249.35
 1182.67        2951.50           1242          59.00       231.91
 1182.70        2951.75           1246          55.00       214.47
 1182.73        2952.00           1249          58.00       227.55
 1182.76        2952.25           1252          60.00       236.27
 1182.80        2952.50           1256          61.00       240.63
 1182.83        2952.75           1259          55.00       214.47
 1182.86        2953.00           1262          64.00       253.71
 1182.89        2953.25           1266          64.00       253.71
 1182.92        2953.50           1269          54.00       210.11
 1182.95        2953.75           1272          57.00       223.19
 1182.98        2954.00           1276          56.00       218.83
 1183.01        2954.25           1279          63.00       249.35
 1183.04        2954.50           1282          56.00       218.83
 1183.07        2954.75           1286          67.00       266.79
 1183.10        2955.00           1289          59.00       231.91
 1183.13        2955.25           1292          59.00       231.91
 1183.17        2955.50           1296          55.00       214.47
 1183.20        2955.75           1299          48.00       183.96
 1183.23        2956.00           1302          59.00       231.91
 1183.26        2956.25           1306          59.00       231.91
 1183.29        2956.50           1309          60.00       236.27
 1183.32        2956.75           1312          67.00       266.79
 1183.35        2957.00           1316          55.00       214.47
 1183.38        2957.25           1319          58.00       227.55
 1183.41        2957.50           1322          55.00       214.47
 1183.44        2957.75           1326          62.00       244.99
 1183.48        2958.00           1329          64.00       253.71
 1183.51        2958.25           1332          59.00       231.91
 1183.54        2958.50           1336          63.00       249.35
 1183.57        2958.75           1339          58.00       227.55
 1183.60        2959.00           1342          64.00       253.71
 1183.63        2959.25           1346          66.00       262.43
 1183.66        2959.50           1349          71.00       284.22
 1183.69        2959.75           1352          87.00       353.97
 1183.72        2960.00           1356         106.00       436.80
 1183.76        2960.25           1359         148.00       619.89
 1183.79        2960.50           1362         171.00       720.16
 1183.82        2960.75           1366         247.00      1051.47
 1183.85        2961.00           1369         275.00      1173.54
 1183.88        2961.25           1372         317.00      1356.64
 1183.91        2961.50           1376         386.00      1657.45
 1183.94        2961.75           1379         600.00      2590.44
 1183.97        2962.00           1382        1250.00      5424.60
 1184.00        2962.25           1386        2806.00     12211.10
 1184.03        2962.50           1389        4235.00     18446.13
 1184.06        2962.75           1392        5644.00     24596.18
 1184.10        2963.00           1396        7529.00     32827.43
 1184.13        2963.25           1399        8907.00     38847.34
 1184.16        2963.50           1402       10377.00     45271.57
 1184.19        2963.75           1406       12364.00     53959.12
 1184.22        2964.00           1409       14108.00     61587.97
 1184.25        2964.25           1412       15794.00     68966.44
 1184.28        2964.50           1416       17823.00     77850.31
 1184.31        2964.75           1419       19216.00     83952.24
 1184.34        2965.00           1422       20830.00     91025.04
 1184.37        2965.25           1426       22745.00     99420.76
 1184.41        2965.50           1429       24218.00    105881.60
 1184.44        2965.75           1432       25993.00    113670.30
 1184.47        2966.00           1436       27739.00    121335.40
 1184.50        2966.25           1439       28980.00    126785.60
 1184.53        2966.50           1442       30311.00    132633.10
 1184.56        2966.75           1446       31819.00    139260.60
 1184.59        2967.00           1449       32102.00    140504.70
 1184.62        2967.25           1452       32180.00    140847.60
 1184.65        2967.50           1456       32062.00    140328.80
 1184.68        2967.75           1459       31937.00    139779.30
 1184.72        2968.00           1462       31810.00    139221.10
 1184.75        2968.25           1466       30932.00    135362.00
 1184.78        2968.50           1469       29628.00    129632.20
 1184.81        2968.75           1472       28197.00    123346.60
 1184.84        2969.00           1476       26489.00    115847.40
 1184.87        2969.25           1479       24988.00    109259.90
 1184.90        2969.50           1482       23384.00    102223.20
 1184.93        2969.75           1486       21427.00     93641.94
 1184.96        2970.00           1489       19934.00     87098.26
 1184.99        2970.25           1492       18571.00     81126.59
 1185.03        2970.50           1496       16695.00     72910.83
 1185.06        2970.75           1499       15167.00     66222.10
 1185.09        2971.00           1502       13557.00     59177.33
 1185.12        2971.25           1506       11668.00     50915.55
 1185.15        2971.50           1509       10141.00     44240.02
 1185.18        2971.75           1513        8167.00     35614.32
 1185.21        2972.00           1516        6745.00     29403.43
 1185.24        2972.25           1519        5311.00     23142.48
 1185.27        2972.50           1523        3455.00     15042.53
 1185.30        2972.75           1526        2033.00      8839.31
 1185.33        2973.00           1529         832.00      3601.96
 1185.36        2973.25           1533         385.00      1653.09
 1185.40        2973.50           1536         284.00      1212.77
 1185.43        2973.75           1539         259.00      1103.79
 1185.46        2974.00           1543         224.00       951.20
 1185.49        2974.25           1546         146.00       611.17
 1185.52        2974.50           1549         114.00       471.67
 1185.55        2974.75           1553          87.00       353.97
 1185.58        2975.00           1556          68.00       271.14
 1185.61        2975.25           1559          59.00       231.91
 1185.64        2975.50           1563          45.00       170.88
 1185.67        2975.75           1566          63.00       249.35
 1185.70        2976.00           1569          60.00       236.27
 1185.74        2976.25           1573          59.00       231.91
 1185.77        2976.50           1576          51.00       197.04
 1185.80        2976.75           1579          52.00       201.40
 1185.83        2977.00           1583          54.00       210.11
 1185.86        2977.25           1586          50.00       192.68
 1185.89        2977.50           1590          56.00       218.83
 1185.92        2977.75           1593          55.00       214.47
 1185.95        2978.00           1596          57.00       223.19
 1185.98        2978.25           1600          52.00       201.40
 1186.01        2978.50           1603          59.00       231.91
 1186.05        2978.75           1606          56.00       218.83
 1186.08        2979.00           1610          64.00       253.71
 1186.11        2979.25           1613          48.00       183.96
 1186.14        2979.50           1616          62.00       244.99
 1186.17        2979.75           1620          56.00       218.83
 1186.20        2980.00           1623          52.00       201.40
 1186.23        2980.25           1626          56.00       218.83
 1186.26        2980.50           1630          53.00       205.76
 1186.29        2980.75           1633          63.00       249.35
 1186.32        2981.00           1637          49.00       188.32
 1186.35        2981.25           1640          63.00       249.35
 1186.38        2981.50           1643          62.00       244.99
 1186.41        2981.75           1647          59.00       231.91
 1186.44        2982.00           1650          59.00       231.91
 1186.47        2982.25           1653          53.00       205.76
 1186.51        2982.50           1657          55.00       214.47
 1186.54        2982.75           1660          54.00       210.11
 1186.57        2983.00           1663          52.00       201.40
 1186.60        2983.25           1667          48.00       183.96
 1186.63        2983.50           1670          79.00       319.10
 1186.66        2983.75           1673          55.00       214.47
 1186.69        2984.00           1677          52.00       201.40
HS scan finished at 19:46:54
end
