************************************************************
  HS Scan of (1) Internal mercury lamp
************************************************************
Integration time is 0.2294 seconds per sample
dh300317Manchester 53.47 2.23 2.804185pr1000
************************************************************
Dead Time -------------------------  3E-08 
Number of Cycles Used -------------  4 
Starting Wavelength (Angstroms) ---  2950 
Final Wavelength (Angstoms) -------  2984 
Wavelength Increment (Angstroms) --  .25 
Filter Wheel #1 Position ---------- (1) Ground quartz diffuser (ND=2.32)
Filter Wheel #2 Position ---------- (1) Neutral Density 0.494



************************************************************
HS scan start time = 02:12:22
Dark Count =  6.5 


Time (GMT)  Wavelength (Ang)  Step Number  Raw Counts  Counts/Second

  132.73        2950.00           1222          48.00       180.91
  132.80        2950.25           1226          43.00       159.11
  132.83        2950.50           1229          46.00       172.19
  132.86        2950.75           1232          52.00       198.34
  132.89        2951.00           1236          52.00       198.34
  132.92        2951.25           1239          42.00       154.75
  132.95        2951.50           1242          52.00       198.34
  132.98        2951.75           1246          42.00       154.75
  133.01        2952.00           1249          48.00       180.91
  133.04        2952.25           1252          46.00       172.19
  133.07        2952.50           1256          48.00       180.91
  133.10        2952.75           1259          49.00       185.27
  133.13        2953.00           1262          45.00       167.83
  133.16        2953.25           1266          47.00       176.55
  133.20        2953.50           1269          46.00       172.19
  133.23        2953.75           1272          39.00       141.67
  133.26        2954.00           1276          47.00       176.55
  133.29        2954.25           1279          47.00       176.55
  133.32        2954.50           1282          47.00       176.55
  133.35        2954.75           1286          46.00       172.19
  133.38        2955.00           1289          51.00       193.99
  133.41        2955.25           1292          48.00       180.91
  133.44        2955.50           1296          44.00       163.47
  133.47        2955.75           1299          49.00       185.27
  133.50        2956.00           1302          43.00       159.11
  133.53        2956.25           1306          47.00       176.55
  133.57        2956.50           1309          50.00       189.63
  133.60        2956.75           1312          50.00       189.63
  133.63        2957.00           1316          42.00       154.75
  133.66        2957.25           1319          50.00       189.63
  133.69        2957.50           1322          50.00       189.63
  133.72        2957.75           1326          47.00       176.55
  133.75        2958.00           1329          54.00       207.06
  133.78        2958.25           1332          40.00       146.03
  133.81        2958.50           1336          49.00       185.27
  133.84        2958.75           1339          48.00       180.91
  133.87        2959.00           1342          49.00       185.27
  133.90        2959.25           1346          44.00       163.47
  133.93        2959.50           1349          50.00       189.63
  133.96        2959.75           1352          61.00       237.58
  133.99        2960.00           1356          99.00       403.23
  134.03        2960.25           1359         135.00       560.17
  134.06        2960.50           1362         152.00       634.28
  134.09        2960.75           1366         218.00       922.00
  134.12        2961.00           1369         267.00      1135.61
  134.15        2961.25           1372         319.00      1362.31
  134.18        2961.50           1376         395.00      1693.63
  134.21        2961.75           1379         487.00      2094.73
  134.24        2962.00           1382         782.00      3380.90
  134.27        2962.25           1386        2026.00      8805.73
  134.30        2962.50           1389        3508.00     15270.73
  134.33        2962.75           1392        5116.00     22288.22
  134.36        2963.00           1396        7265.00     31671.32
  134.39        2963.25           1399        8904.00     38831.18
  134.43        2963.50           1402       10423.00     45469.57
  134.46        2963.75           1406       12767.00     55718.61
  134.49        2964.00           1409       14642.00     63921.51
  134.52        2964.25           1412       16060.00     70127.77
  134.55        2964.50           1416       18498.00     80803.75
  134.58        2964.75           1419       20202.00     88269.62
  134.61        2965.00           1422       21779.00     95182.05
  134.64        2965.25           1426       23898.00    104474.70
  134.67        2965.50           1429       25540.00    111679.10
  134.71        2965.75           1432       27320.00    119492.50
  134.74        2966.00           1436       29681.00    129862.00
  134.77        2966.25           1439       31321.00    137068.60
  134.80        2966.50           1442       32602.00    142699.80
  134.83        2966.75           1446       34466.00    150897.40
  134.86        2967.00           1449       35383.00    154931.60
  134.89        2967.25           1452       35962.00    157479.40
  134.92        2967.50           1456       35891.00    157166.90
  134.95        2967.75           1459       35839.00    156938.10
  134.99        2968.00           1462       35831.00    156902.90
  135.02        2968.25           1466       35410.00    155050.40
  135.05        2968.50           1469       34340.00    150343.10
  135.08        2968.75           1472       32706.00    143157.10
  135.11        2969.00           1476       30774.00    134664.60
  135.14        2969.25           1479       29138.00    127476.60
  135.17        2969.50           1482       27562.00    120555.10
  135.20        2969.75           1486       25338.00    110792.70
  135.23        2970.00           1489       23800.00    104044.80
  135.27        2970.25           1492       22178.00     96931.42
  135.30        2970.50           1496       19789.00     86459.81
  135.33        2970.75           1499       18293.00     79905.80
  135.36        2971.00           1502       16750.00     73148.58
  135.39        2971.25           1506       14454.00     63098.84
  135.42        2971.50           1509       12632.00     55128.15
  135.45        2971.75           1513       10536.00     45963.51
  135.48        2972.00           1516        8885.00     38748.16
  135.51        2972.25           1519        7314.00     31885.33
  135.54        2972.50           1523        5180.00     22567.59
  135.57        2972.75           1526        3483.00     15161.65
  135.61        2973.00           1529        1972.00      8570.21
  135.64        2973.25           1533         684.00      2953.62
  135.67        2973.50           1536         382.00      1636.96
  135.70        2973.75           1539         284.00      1209.72
  135.73        2974.00           1543         229.00       969.95
  135.76        2974.25           1546         172.00       721.46
  135.79        2974.50           1549         131.00       542.73
  135.82        2974.75           1553          87.00       350.92
  135.85        2975.00           1556          72.00       285.53
  135.88        2975.25           1559          57.00       220.14
  135.92        2975.50           1563          49.00       185.27
  135.95        2975.75           1566          52.00       198.34
  135.98        2976.00           1569          48.00       180.91
  136.01        2976.25           1573          48.00       180.91
  136.04        2976.50           1576          54.00       207.06
  136.07        2976.75           1579          52.00       198.34
  136.10        2977.00           1583          49.00       185.27
  136.13        2977.25           1586          46.00       172.19
  136.16        2977.50           1590          43.00       159.11
  136.19        2977.75           1593          54.00       207.06
  136.22        2978.00           1596          46.00       172.19
  136.26        2978.25           1600          49.00       185.27
  136.29        2978.50           1603          46.00       172.19
  136.32        2978.75           1606          48.00       180.91
  136.35        2979.00           1610          48.00       180.91
  136.38        2979.25           1613          43.00       159.11
  136.41        2979.50           1616          46.00       172.19
  136.44        2979.75           1620          46.00       172.19
  136.47        2980.00           1623          48.00       180.91
  136.50        2980.25           1626          49.00       185.27
  136.53        2980.50           1630          43.00       159.11
  136.56        2980.75           1633          49.00       185.27
  136.59        2981.00           1637          50.00       189.63
  136.62        2981.25           1640          43.00       159.11
  136.65        2981.50           1643          48.00       180.91
  136.69        2981.75           1647          48.00       180.91
  136.72        2982.00           1650          44.00       163.47
  136.75        2982.25           1653          50.00       189.63
  136.78        2982.50           1657          47.00       176.55
  136.81        2982.75           1660          50.00       189.63
  136.84        2983.00           1663          46.00       172.19
  136.87        2983.25           1667          49.00       185.27
  136.90        2983.50           1670          43.00       159.11
  136.93        2983.75           1673          41.00       150.39
  136.96        2984.00           1677          45.00       167.83
HS scan finished at 02:17:11
end
************************************************************
  HS Scan of (1) Internal mercury lamp
************************************************************
Integration time is 0.2294 seconds per sample
dh300317Manchester 53.47 2.23 2.911481pr1000
************************************************************
Dead Time -------------------------  3E-08 
Number of Cycles Used -------------  4 
Starting Wavelength (Angstroms) ---  2950 
Final Wavelength (Angstoms) -------  2984 
Wavelength Increment (Angstroms) --  .25 
Filter Wheel #1 Position ---------- (1) Ground quartz diffuser (ND=2.32)
Filter Wheel #2 Position ---------- (1) Neutral Density 0.494



************************************************************
HS scan start time = 19:42:03
Dark Count =  7.5 


Time (GMT)  Wavelength (Ang)  Step Number  Raw Counts  Counts/Second

 1182.42        2950.00           1222          47.00       172.19
 1182.49        2950.25           1226          48.00       176.55
 1182.52        2950.50           1229          46.00       167.83
 1182.55        2950.75           1232          51.00       189.63
 1182.58        2951.00           1236          41.00       146.03
 1182.61        2951.25           1239          49.00       180.91
 1182.64        2951.50           1242          50.00       185.27
 1182.67        2951.75           1246          49.00       180.91
 1182.70        2952.00           1249          44.00       159.11
 1182.73        2952.25           1252          42.00       150.39
 1182.76        2952.50           1256          47.00       172.19
 1182.79        2952.75           1259          43.00       154.75
 1182.82        2953.00           1262          55.00       207.06
 1182.85        2953.25           1266          49.00       180.91
 1182.89        2953.50           1269          47.00       172.19
 1182.92        2953.75           1272          50.00       185.27
 1182.95        2954.00           1276          42.00       150.39
 1182.98        2954.25           1279          45.00       163.47
 1183.01        2954.50           1282          43.00       154.75
 1183.04        2954.75           1286          46.00       167.83
 1183.07        2955.00           1289          49.00       180.91
 1183.10        2955.25           1292          46.00       167.83
 1183.13        2955.50           1296          47.00       172.19
 1183.16        2955.75           1299          44.00       159.11
 1183.19        2956.00           1302          45.00       163.47
 1183.22        2956.25           1306          47.00       172.19
 1183.25        2956.50           1309          47.00       172.19
 1183.29        2956.75           1312          49.00       180.91
 1183.32        2957.00           1316          47.00       172.19
 1183.35        2957.25           1319          55.00       207.06
 1183.38        2957.50           1322          43.00       154.75
 1183.41        2957.75           1326          51.00       189.63
 1183.44        2958.00           1329          41.00       146.03
 1183.47        2958.25           1332          45.00       163.47
 1183.50        2958.50           1336          46.00       167.83
 1183.53        2958.75           1339          37.00       128.60
 1183.56        2959.00           1342          46.00       167.83
 1183.59        2959.25           1346          46.00       167.83
 1183.62        2959.50           1349          56.00       211.42
 1183.65        2959.75           1352          73.00       285.53
 1183.69        2960.00           1356         111.00       451.18
 1183.72        2960.25           1359         150.00       621.20
 1183.75        2960.50           1362         189.00       791.21
 1183.78        2960.75           1366         241.00      1017.90
 1183.81        2961.00           1369         284.00      1205.36
 1183.84        2961.25           1372         335.00      1427.70
 1183.87        2961.50           1376         444.00      1902.90
 1183.90        2961.75           1379         680.00      2931.82
 1183.93        2962.00           1382        1372.00      5949.19
 1183.96        2962.25           1386        3281.00     14275.95
 1183.99        2962.50           1389        4971.00     21650.94
 1184.03        2962.75           1392        6630.00     28893.83
 1184.06        2963.00           1396        8797.00     38359.29
 1184.09        2963.25           1399       10537.00     45963.51
 1184.12        2963.50           1402       12334.00     53820.49
 1184.15        2963.75           1406       14689.00     64122.81
 1184.18        2964.00           1409       16506.00     72075.91
 1184.21        2964.25           1412       18298.00     79923.31
 1184.24        2964.50           1416       20798.00     90877.33
 1184.27        2964.75           1419       22474.00     98224.94
 1184.31        2965.00           1422       24481.00    107027.90
 1184.34        2965.25           1426       26659.00    116586.20
 1184.37        2965.50           1429       28417.00    124305.30
 1184.40        2965.75           1432       29918.00    130898.80
 1184.43        2966.00           1436       32097.00    140475.20
 1184.46        2966.25           1439       33723.00    147624.90
 1184.49        2966.50           1442       35336.00    154720.40
 1184.52        2966.75           1446       37067.00    162338.40
 1184.55        2967.00           1449       37783.00    165490.50
 1184.58        2967.25           1452       37966.00    166296.20
 1184.61        2967.50           1456       37929.00    166133.30
 1184.64        2967.75           1459       37796.00    165547.70
 1184.68        2968.00           1462       37630.00    164816.90
 1184.71        2968.25           1466       36349.00    159178.10
 1184.74        2968.50           1469       34910.00    152846.20
 1184.77        2968.75           1472       33410.00    146248.40
 1184.80        2969.00           1476       31343.00    137160.90
 1184.83        2969.25           1479       29477.00    128961.40
 1184.86        2969.50           1482       27802.00    121604.60
 1184.89        2969.75           1486       25489.00    111450.90
 1184.92        2970.00           1489       23844.00    104233.50
 1184.95        2970.25           1492       22016.00     96216.74
 1184.99        2970.50           1496       19494.00     85162.81
 1185.02        2970.75           1499       17747.00     77510.02
 1185.05        2971.00           1502       16105.00     70320.38
 1185.08        2971.25           1506       13778.00     60136.74
 1185.11        2971.50           1509       12036.00     52517.29
 1185.14        2971.75           1513        9790.00     42698.52
 1185.17        2972.00           1516        8016.00     34947.26
 1185.20        2972.25           1519        6393.00     27858.93
 1185.23        2972.50           1523        4183.00     18211.78
 1185.27        2972.75           1526        2512.00     10921.19
 1185.30        2973.00           1529        1245.00      5395.38
 1185.33        2973.25           1533         488.00      2094.73
 1185.36        2973.50           1536         353.00      1506.17
 1185.39        2973.75           1539         273.00      1157.41
 1185.42        2974.00           1543         224.00       943.79
 1185.45        2974.25           1546         172.00       717.10
 1185.48        2974.50           1549         130.00       534.01
 1185.51        2974.75           1553          82.00       324.76
 1185.54        2975.00           1556          68.00       263.73
 1185.58        2975.25           1559          60.00       228.86
 1185.61        2975.50           1563          54.00       202.70
 1185.64        2975.75           1566          49.00       180.91
 1185.67        2976.00           1569          43.00       154.75
 1185.70        2976.25           1573          47.00       172.19
 1185.73        2976.50           1576          51.00       189.63
 1185.76        2976.75           1579          41.00       146.03
 1185.79        2977.00           1583          45.00       163.47
 1185.82        2977.25           1586          45.00       163.47
 1185.85        2977.50           1590          51.00       189.63
 1185.88        2977.75           1593          41.00       146.03
 1185.91        2978.00           1596          49.00       180.91
 1185.94        2978.25           1600          52.00       193.99
 1185.98        2978.50           1603          47.00       172.19
 1186.01        2978.75           1606          42.00       150.39
 1186.04        2979.00           1610          39.00       137.32
 1186.07        2979.25           1613          47.00       172.19
 1186.10        2979.50           1616          43.00       154.75
 1186.13        2979.75           1620          43.00       154.75
 1186.16        2980.00           1623          50.00       185.27
 1186.19        2980.25           1626          41.00       146.03
 1186.22        2980.50           1630          36.00       124.24
 1186.25        2980.75           1633          43.00       154.75
 1186.28        2981.00           1637          48.00       176.55
 1186.32        2981.25           1640          46.00       167.83
 1186.35        2981.50           1643          48.00       176.55
 1186.38        2981.75           1647          49.00       180.91
 1186.41        2982.00           1650          52.00       193.99
 1186.44        2982.25           1653          39.00       137.32
 1186.47        2982.50           1657          46.00       167.83
 1186.50        2982.75           1660          43.00       154.75
 1186.53        2983.00           1663          43.00       154.75
 1186.56        2983.25           1667          46.00       167.83
 1186.59        2983.50           1670          38.00       132.96
 1186.62        2983.75           1673          49.00       180.91
 1186.66        2984.00           1677          46.00       167.83
HS scan finished at 19:46:52
end
