************************************************************
  HS Scan of (1) Internal mercury lamp
************************************************************
Integration time is 0.2294 seconds per sample
dh040418Manchester 53.47 2.23 2.804185pr1000
************************************************************
Dead Time -------------------------  3E-08 
Number of Cycles Used -------------  4 
Starting Wavelength (Angstroms) ---  2950 
Final Wavelength (Angstoms) -------  2984 
Wavelength Increment (Angstroms) --  .25 
Filter Wheel #1 Position ---------- (1) Ground quartz diffuser (ND=2.32)
Filter Wheel #2 Position ---------- (1) Neutral Density 0.494



************************************************************
HS scan start time = 01:43:07
Dark Count =  5.3 


Time (GMT)  Wavelength (Ang)  Step Number  Raw Counts  Counts/Second

  103.49        2950.00           1222          60.00       238.45
  103.56        2950.25           1226          57.00       225.37
  103.59        2950.50           1229          60.00       238.45
  103.62        2950.75           1232          64.00       255.89
  103.65        2951.00           1236          58.00       229.73
  103.68        2951.25           1239          60.00       238.45
  103.71        2951.50           1242          58.00       229.73
  103.74        2951.75           1246          54.00       212.29
  103.77        2952.00           1249          56.00       221.01
  103.80        2952.25           1252          58.00       229.73
  103.83        2952.50           1256          64.00       255.89
  103.86        2952.75           1259          53.00       207.94
  103.89        2953.00           1262          53.00       207.94
  103.92        2953.25           1266          56.00       221.01
  103.96        2953.50           1269          57.00       225.37
  103.99        2953.75           1272          62.00       247.17
  104.02        2954.00           1276          56.00       221.01
  104.05        2954.25           1279          61.00       242.81
  104.08        2954.50           1282          61.00       242.81
  104.11        2954.75           1286          54.00       212.29
  104.14        2955.00           1289          58.00       229.73
  104.17        2955.25           1292          67.00       268.96
  104.20        2955.50           1296          57.00       225.37
  104.23        2955.75           1299          53.00       207.94
  104.26        2956.00           1302          56.00       221.01
  104.29        2956.25           1306          58.00       229.73
  104.32        2956.50           1309          58.00       229.73
  104.35        2956.75           1312          60.00       238.45
  104.39        2957.00           1316          60.00       238.45
  104.42        2957.25           1319          59.00       234.09
  104.45        2957.50           1322          61.00       242.81
  104.48        2957.75           1326          53.00       207.94
  104.51        2958.00           1329          60.00       238.45
  104.54        2958.25           1332          51.00       199.22
  104.57        2958.50           1336          55.00       216.65
  104.60        2958.75           1339          60.00       238.45
  104.63        2959.00           1342          60.00       238.45
  104.66        2959.25           1346          62.00       247.17
  104.69        2959.50           1349          64.00       255.89
  104.72        2959.75           1352          88.00       360.51
  104.75        2960.00           1356         124.00       517.44
  104.78        2960.25           1359         152.00       639.51
  104.81        2960.50           1362         193.00       818.24
  104.85        2960.75           1366         241.00      1027.49
  104.88        2961.00           1369         270.00      1153.92
  104.91        2961.25           1372         309.00      1323.94
  104.94        2961.50           1376         440.00      1895.05
  104.97        2961.75           1379         858.00      3717.50
  105.00        2962.00           1382        1830.00      7956.13
  105.03        2962.25           1386        3564.00     15520.30
  105.06        2962.50           1389        4930.00     21481.59
  105.09        2962.75           1392        6372.00     27776.85
  105.12        2963.00           1396        8501.00     37075.66
  105.15        2963.25           1399       10089.00     44014.93
  105.19        2963.50           1402       11584.00     50550.45
  105.22        2963.75           1406       13563.00     59205.77
  105.25        2964.00           1409       15211.00     66416.86
  105.28        2964.25           1412       16645.00     72694.10
  105.31        2964.50           1416       18615.00     81321.52
  105.34        2964.75           1419       19904.00     86968.98
  105.37        2965.00           1422       21484.00     93894.02
  105.40        2965.25           1426       23637.00    103335.10
  105.43        2965.50           1429       25343.00    110819.90
  105.46        2965.75           1432       26892.00    117618.70
  105.50        2966.00           1436       28804.00    126014.70
  105.53        2966.25           1439       30108.00    131743.30
  105.56        2966.50           1442       31326.00    137095.80
  105.59        2966.75           1446       32100.00    140498.10
  105.62        2967.00           1449       32270.00    141245.50
  105.65        2967.25           1452       32251.00    141161.90
  105.68        2967.50           1456       32241.00    141118.00
  105.71        2967.75           1459       32323.00    141478.50
  105.74        2968.00           1462       31979.00    139966.20
  105.78        2968.25           1466       30318.00    132666.00
  105.81        2968.50           1469       29171.00    127626.80
  105.84        2968.75           1472       27388.00    119796.40
  105.87        2969.00           1476       25559.00    111767.80
  105.90        2969.25           1479       24042.00    105111.70
  105.93        2969.50           1482       22523.00     98449.44
  105.96        2969.75           1486       20685.00     90391.69
  105.99        2970.00           1489       19120.00     83533.83
  106.02        2970.25           1492       17645.00     77072.94
  106.06        2970.50           1496       15851.00     69218.13
  106.09        2970.75           1499       14344.00     62622.77
  106.12        2971.00           1502       13078.00     57084.17
  106.15        2971.25           1506       11138.00     48600.46
  106.18        2971.50           1509        9559.00     41698.60
  106.21        2971.75           1513        7518.00     32781.57
  106.24        2972.00           1516        5935.00     25868.81
  106.27        2972.25           1519        4584.00     19971.42
  106.30        2972.50           1523        2754.00     11986.44
  106.33        2972.75           1526        1466.00      6368.70
  106.36        2973.00           1529         642.00      2775.73
  106.39        2973.25           1533         348.00      1493.96
  106.43        2973.50           1536         290.00      1241.11
  106.46        2973.75           1539         237.00      1010.06
  106.49        2974.00           1543         190.00       805.16
  106.52        2974.25           1546         139.00       582.83
  106.55        2974.50           1549         113.00       469.49
  106.58        2974.75           1553          74.00       299.48
  106.61        2975.00           1556          67.00       268.96
  106.64        2975.25           1559          62.00       247.17
  106.67        2975.50           1563          77.00       312.56
  106.70        2975.75           1566          56.00       221.01
  106.73        2976.00           1569          57.00       225.37
  106.76        2976.25           1573          61.00       242.81
  106.79        2976.50           1576          61.00       242.81
  106.83        2976.75           1579          49.00       190.50
  106.86        2977.00           1583          53.00       207.94
  106.89        2977.25           1586          54.00       212.29
  106.92        2977.50           1590          52.00       203.58
  106.95        2977.75           1593          55.00       216.65
  106.98        2978.00           1596          67.00       268.96
  107.01        2978.25           1600          57.00       225.37
  107.04        2978.50           1603          56.00       221.01
  107.07        2978.75           1606          57.00       225.37
  107.10        2979.00           1610          59.00       234.09
  107.13        2979.25           1613          55.00       216.65
  107.16        2979.50           1616          62.00       247.17
  107.19        2979.75           1620          51.00       199.22
  107.22        2980.00           1623          54.00       212.29
  107.25        2980.25           1626          58.00       229.73
  107.28        2980.50           1630          56.00       221.01
  107.32        2980.75           1633          52.00       203.58
  107.35        2981.00           1637          58.00       229.73
  107.38        2981.25           1640          53.00       207.94
  107.41        2981.50           1643          47.00       181.78
  107.44        2981.75           1647          51.00       199.22
  107.47        2982.00           1650          58.00       229.73
  107.50        2982.25           1653          54.00       212.29
  107.53        2982.50           1657          55.00       216.65
  107.56        2982.75           1660          47.00       181.78
  107.59        2983.00           1663          55.00       216.65
  107.62        2983.25           1667          52.00       203.58
  107.65        2983.50           1670          48.00       186.14
  107.68        2983.75           1673          51.00       199.22
  107.71        2984.00           1677          49.00       190.50
HS scan finished at 01:47:56
end
************************************************************
  HS Scan of (1) Internal mercury lamp
************************************************************
Integration time is 0.2294 seconds per sample
dh040418Manchester 53.47 2.23 2.804185pr1000
************************************************************
Dead Time -------------------------  3E-08 
Number of Cycles Used -------------  4 
Starting Wavelength (Angstroms) ---  2950 
Final Wavelength (Angstoms) -------  2984 
Wavelength Increment (Angstroms) --  .25 
Filter Wheel #1 Position ---------- (1) Ground quartz diffuser (ND=2.32)
Filter Wheel #2 Position ---------- (1) Neutral Density 0.494



************************************************************
HS scan start time = 19:41:59
Dark Count =  6 


Time (GMT)  Wavelength (Ang)  Step Number  Raw Counts  Counts/Second

 1182.35        2950.00           1222          62.00       244.12
 1182.42        2950.25           1226          62.00       244.12
 1182.45        2950.50           1229          53.00       204.88
 1182.48        2950.75           1232          61.00       239.76
 1182.51        2951.00           1236          55.00       213.60
 1182.54        2951.25           1239          63.00       248.48
 1182.57        2951.50           1242          63.00       248.48
 1182.61        2951.75           1246          54.00       209.24
 1182.64        2952.00           1249          62.00       244.12
 1182.67        2952.25           1252          62.00       244.12
 1182.70        2952.50           1256          59.00       231.04
 1182.73        2952.75           1259          59.00       231.04
 1182.76        2953.00           1262          59.00       231.04
 1182.79        2953.25           1266          59.00       231.04
 1182.82        2953.50           1269          53.00       204.88
 1182.85        2953.75           1272          51.00       196.17
 1182.88        2954.00           1276          61.00       239.76
 1182.91        2954.25           1279          60.00       235.40
 1182.94        2954.50           1282          54.00       209.24
 1182.97        2954.75           1286          57.00       222.32
 1183.01        2955.00           1289          59.00       231.04
 1183.04        2955.25           1292          64.00       252.84
 1183.07        2955.50           1296          64.00       252.84
 1183.10        2955.75           1299          58.00       226.68
 1183.13        2956.00           1302          56.00       217.96
 1183.16        2956.25           1306          69.00       274.63
 1183.19        2956.50           1309          55.00       213.60
 1183.22        2956.75           1312          58.00       226.68
 1183.25        2957.00           1316          57.00       222.32
 1183.28        2957.25           1319          63.00       248.48
 1183.31        2957.50           1322          58.00       226.68
 1183.34        2957.75           1326          59.00       231.04
 1183.37        2958.00           1329          64.00       252.84
 1183.41        2958.25           1332          58.00       226.68
 1183.44        2958.50           1336          55.00       213.60
 1183.47        2958.75           1339          66.00       261.55
 1183.50        2959.00           1342          61.00       239.76
 1183.53        2959.25           1346          56.00       217.96
 1183.56        2959.50           1349          71.00       283.35
 1183.59        2959.75           1352          75.00       300.79
 1183.62        2960.00           1356         106.00       435.93
 1183.65        2960.25           1359         147.00       614.66
 1183.68        2960.50           1362         169.00       710.56
 1183.71        2960.75           1366         213.00       902.38
 1183.75        2961.00           1369         246.00      1046.24
 1183.78        2961.25           1372         289.00      1233.70
 1183.81        2961.50           1376         349.00      1495.27
 1183.84        2961.75           1379         486.00      2092.55
 1183.87        2962.00           1382         955.00      4137.39
 1183.90        2962.25           1386        2405.00     10461.00
 1183.93        2962.50           1389        3827.00     16664.83
 1183.96        2962.75           1392        5154.00     22456.28
 1183.99        2963.00           1396        6918.00     30158.05
 1184.02        2963.25           1399        8430.00     36762.41
 1184.05        2963.50           1402       10050.00     43841.41
 1184.09        2963.75           1406       12033.00     52510.73
 1184.12        2964.00           1409       13538.00     59093.34
 1184.15        2964.25           1412       15147.00     66133.71
 1184.18        2964.50           1416       17315.00     75624.74
 1184.21        2964.75           1419       18842.00     82312.86
 1184.24        2965.00           1422       20138.00     87991.34
 1184.27        2965.25           1426       22248.00     97240.54
 1184.30        2965.50           1429       23867.00    104340.90
 1184.33        2965.75           1432       25320.00    110715.90
 1184.36        2966.00           1436       27110.00    118572.70
 1184.39        2966.25           1439       28624.00    125221.10
 1184.43        2966.50           1442       30011.00    131314.00
 1184.46        2966.75           1446       31570.00    138165.20
 1184.49        2967.00           1449       32073.00    140376.30
 1184.52        2967.25           1452       31992.00    140020.30
 1184.55        2967.50           1456       32093.00    140464.30
 1184.58        2967.75           1459       32084.00    140424.70
 1184.61        2968.00           1462       31831.00    139312.50
 1184.64        2968.25           1466       31234.00    136688.40
 1184.67        2968.50           1469       29939.00    130997.70
 1184.70        2968.75           1472       28625.00    125225.50
 1184.74        2969.00           1476       26729.00    116900.10
 1184.77        2969.25           1479       25288.00    110575.40
 1184.80        2969.50           1482       23915.00    104551.50
 1184.83        2969.75           1486       22180.00     96942.38
 1184.86        2970.00           1489       20515.00     89643.55
 1184.89        2970.25           1492       19275.00     84209.85
 1184.92        2970.50           1496       17060.00     74508.13
 1184.95        2970.75           1499       15591.00     68077.00
 1184.98        2971.00           1502       14181.00     61906.50
 1185.01        2971.25           1506       12100.00     52803.73
 1185.04        2971.50           1509       10629.00     46372.23
 1185.08        2971.75           1513        8753.00     38173.60
 1185.11        2972.00           1516        7279.00     31734.65
 1185.14        2972.25           1519        5808.00     25311.28
 1185.17        2972.50           1523        3972.00     17297.55
 1185.20        2972.75           1526        2653.00     11542.79
 1185.23        2973.00           1529        1323.00      5742.05
 1185.26        2973.25           1533         488.00      2101.27
 1185.29        2973.50           1536         345.00      1477.83
 1185.32        2973.75           1539         276.00      1177.03
 1185.35        2974.00           1543         233.00       989.57
 1185.38        2974.25           1546         176.00       741.08
 1185.41        2974.50           1549         143.00       597.22
 1185.44        2974.75           1553         104.00       427.21
 1185.47        2975.00           1556          83.00       335.66
 1185.51        2975.25           1559          62.00       244.12
 1185.54        2975.50           1563          59.00       231.04
 1185.57        2975.75           1566          53.00       204.88
 1185.60        2976.00           1569          52.00       200.52
 1185.63        2976.25           1573          60.00       235.40
 1185.66        2976.50           1576          64.00       252.84
 1185.69        2976.75           1579          54.00       209.24
 1185.72        2977.00           1583          60.00       235.40
 1185.75        2977.25           1586          59.00       231.04
 1185.78        2977.50           1590          59.00       231.04
 1185.81        2977.75           1593          65.00       257.19
 1185.84        2978.00           1596          60.00       235.40
 1185.87        2978.25           1600          56.00       217.96
 1185.91        2978.50           1603          61.00       239.76
 1185.94        2978.75           1606          53.00       204.88
 1185.97        2979.00           1610          50.00       191.81
 1186.00        2979.25           1613          47.00       178.73
 1186.03        2979.50           1616          52.00       200.52
 1186.06        2979.75           1620          54.00       209.24
 1186.09        2980.00           1623          48.00       183.09
 1186.12        2980.25           1626          52.00       200.52
 1186.16        2980.50           1630          49.00       187.45
 1186.19        2980.75           1633          58.00       226.68
 1186.22        2981.00           1637          53.00       204.88
 1186.25        2981.25           1640          51.00       196.17
 1186.28        2981.50           1643          53.00       204.88
 1186.31        2981.75           1647          48.00       183.09
 1186.34        2982.00           1650          53.00       204.88
 1186.37        2982.25           1653          50.00       191.81
 1186.40        2982.50           1657          54.00       209.24
 1186.43        2982.75           1660          57.00       222.32
 1186.46        2983.00           1663          50.00       191.81
 1186.49        2983.25           1667          49.00       187.45
 1186.52        2983.50           1670          52.00       200.52
 1186.56        2983.75           1673          48.00       183.09
 1186.59        2984.00           1677          58.00       226.68
HS scan finished at 19:46:48
end
