************************************************************
  HS Scan of (1) Internal mercury lamp
************************************************************
Integration time is 0.2294 seconds per sample
dh050419Manchester 53.47 2.23 2.804185pr1000
************************************************************
Dead Time -------------------------  3E-08 
Number of Cycles Used -------------  4 
Starting Wavelength (Angstroms) ---  2950 
Final Wavelength (Angstoms) -------  2984 
Wavelength Increment (Angstroms) --  .25 
Filter Wheel #1 Position ---------- (1) Ground quartz diffuser (ND=2.32)
Filter Wheel #2 Position ---------- (1) Neutral Density 0.494



************************************************************
HS scan start time = 02:16:32
Dark Count =  7.7 


Time (GMT)  Wavelength (Ang)  Step Number  Raw Counts  Counts/Second

  136.90        2950.00           1222          57.00       214.91
  136.97        2950.25           1226          56.00       210.55
  137.00        2950.50           1229          54.00       201.83
  137.03        2950.75           1232          57.00       214.91
  137.06        2951.00           1236          50.00       184.40
  137.09        2951.25           1239          61.00       232.35
  137.12        2951.50           1242          57.00       214.91
  137.16        2951.75           1246          53.00       197.47
  137.19        2952.00           1249          53.00       197.47
  137.22        2952.25           1252          53.00       197.47
  137.25        2952.50           1256          55.00       206.19
  137.28        2952.75           1259          51.00       188.75
  137.31        2953.00           1262          60.00       227.99
  137.34        2953.25           1266          57.00       214.91
  137.37        2953.50           1269          55.00       206.19
  137.40        2953.75           1272          63.00       241.07
  137.43        2954.00           1276          60.00       227.99
  137.47        2954.25           1279          61.00       232.35
  137.50        2954.50           1282          59.00       223.63
  137.53        2954.75           1286          62.00       236.71
  137.56        2955.00           1289          48.00       175.68
  137.59        2955.25           1292          56.00       210.55
  137.62        2955.50           1296          52.00       193.11
  137.65        2955.75           1299          65.00       249.78
  137.68        2956.00           1302          59.00       223.63
  137.72        2956.25           1306          49.00       180.04
  137.75        2956.50           1309          54.00       201.83
  137.78        2956.75           1312          62.00       236.71
  137.81        2957.00           1316          54.00       201.83
  137.84        2957.25           1319          60.00       227.99
  137.87        2957.50           1322          60.00       227.99
  137.90        2957.75           1326          51.00       188.75
  137.93        2958.00           1329          61.00       232.35
  137.96        2958.25           1332          50.00       184.40
  138.00        2958.50           1336          52.00       193.11
  138.03        2958.75           1339          54.00       201.83
  138.06        2959.00           1342          54.00       201.83
  138.09        2959.25           1346          54.00       201.83
  138.12        2959.50           1349          64.00       245.42
  138.15        2959.75           1352          77.00       302.10
  138.18        2960.00           1356         106.00       428.51
  138.21        2960.25           1359         142.00       585.45
  138.24        2960.50           1362         160.00       663.92
  138.27        2960.75           1366         194.00       812.14
  138.31        2961.00           1369         236.00       995.23
  138.34        2961.25           1372         270.00      1143.46
  138.37        2961.50           1376         323.00      1374.51
  138.40        2961.75           1379         499.00      2141.81
  138.43        2962.00           1382        1090.00      4718.63
  138.46        2962.25           1386        2576.00     11199.49
  138.49        2962.50           1389        3842.00     16722.86
  138.52        2962.75           1392        5116.00     22282.98
  138.55        2963.00           1396        6674.00     29085.09
  138.58        2963.25           1399        7878.00     34343.56
  138.61        2963.50           1402        9147.00     39887.72
  138.64        2963.75           1406       10910.00     47593.19
  138.67        2964.00           1409       12034.00     52507.67
  138.71        2964.25           1412       13410.00     58525.94
  138.74        2964.50           1416       15041.00     65662.35
  138.77        2964.75           1419       16371.00     71484.00
  138.80        2965.00           1422       17507.00     76458.09
  138.83        2965.25           1426       19121.00     83527.71
  138.86        2965.50           1429       20467.00     89425.72
  138.89        2965.75           1432       21729.00     94957.58
  138.92        2966.00           1436       23355.00    102087.70
  138.95        2966.25           1439       24610.00    107593.00
  138.98        2966.50           1442       25451.00    111283.30
  139.02        2966.75           1446       26608.00    116361.50
  139.05        2967.00           1449       26754.00    117002.40
  139.08        2967.25           1452       27038.00    118249.20
  139.11        2967.50           1456       26827.00    117322.90
  139.14        2967.75           1459       26849.00    117419.50
  139.17        2968.00           1462       26847.00    117410.70
  139.20        2968.25           1466       25659.00    112196.10
  139.23        2968.50           1469       24537.00    107272.80
  139.26        2968.75           1472       23578.00    103065.80
  139.30        2969.00           1476       21875.00     95597.66
  139.33        2969.25           1479       20630.00     90140.12
  139.36        2969.50           1482       19541.00     85367.88
  139.39        2969.75           1486       17845.00     77938.35
  139.42        2970.00           1489       16614.00     72547.88
  139.45        2970.25           1492       15485.00     67605.60
  139.48        2970.50           1496       13866.00     60520.86
  139.51        2970.75           1499       12565.00     54829.88
  139.55        2971.00           1502       11296.00     49280.74
  139.58        2971.25           1506        9559.00     41688.11
  139.61        2971.50           1509        8321.00     36278.79
  139.64        2971.75           1513        6782.00     29556.71
  139.67        2972.00           1516        5476.00     23854.47
  139.70        2972.25           1519        4337.00     18882.97
  139.73        2972.50           1523        2809.00     12215.90
  139.76        2972.75           1526        1641.00      7121.40
  139.79        2973.00           1529         767.00      3310.27
  139.83        2973.25           1533         350.00      1492.22
  139.86        2973.50           1536         252.00      1064.99
  139.89        2973.75           1539         236.00       995.23
  139.92        2974.00           1543         200.00       838.29
  139.95        2974.25           1546         142.00       585.45
  139.98        2974.50           1549         105.00       424.16
  140.01        2974.75           1553          86.00       341.33
  140.04        2975.00           1556          79.00       310.81
  140.07        2975.25           1559          52.00       193.11
  140.10        2975.50           1563          60.00       227.99
  140.13        2975.75           1566          50.00       184.40
  140.17        2976.00           1569          52.00       193.11
  140.20        2976.25           1573          58.00       219.27
  140.23        2976.50           1576          45.00       162.60
  140.26        2976.75           1579          54.00       201.83
  140.29        2977.00           1583          58.00       219.27
  140.32        2977.25           1586          53.00       197.47
  140.35        2977.50           1590          50.00       184.40
  140.38        2977.75           1593          59.00       223.63
  140.41        2978.00           1596          44.00       158.24
  140.44        2978.25           1600          53.00       197.47
  140.48        2978.50           1603          55.00       206.19
  140.51        2978.75           1606          51.00       188.75
  140.54        2979.00           1610          58.00       219.27
  140.57        2979.25           1613          49.00       180.04
  140.60        2979.50           1616          51.00       188.75
  140.63        2979.75           1620          53.00       197.47
  140.66        2980.00           1623          48.00       175.68
  140.69        2980.25           1626          57.00       214.91
  140.72        2980.50           1630          50.00       184.40
  140.75        2980.75           1633          55.00       206.19
  140.78        2981.00           1637          45.00       162.60
  140.82        2981.25           1640          60.00       227.99
  140.85        2981.50           1643          52.00       193.11
  140.88        2981.75           1647          52.00       193.11
  140.91        2982.00           1650          55.00       206.19
  140.94        2982.25           1653          53.00       197.47
  140.97        2982.50           1657          46.00       166.96
  141.00        2982.75           1660          49.00       180.04
  141.03        2983.00           1663          51.00       188.75
  141.06        2983.25           1667          42.00       149.52
  141.09        2983.50           1670          47.00       171.32
  141.12        2983.75           1673          49.00       180.04
  141.16        2984.00           1677          45.00       162.60
HS scan finished at 02:21:22
end
************************************************************
  HS Scan of (1) Internal mercury lamp
************************************************************
Integration time is 0.2294 seconds per sample
dh050419Manchester 53.47 2.23 2.804185pr1000
************************************************************
Dead Time -------------------------  3E-08 
Number of Cycles Used -------------  4 
Starting Wavelength (Angstroms) ---  2950 
Final Wavelength (Angstoms) -------  2984 
Wavelength Increment (Angstroms) --  .25 
Filter Wheel #1 Position ---------- (1) Ground quartz diffuser (ND=2.32)
Filter Wheel #2 Position ---------- (1) Neutral Density 0.494



************************************************************
HS scan start time = 19:42:13
Dark Count =  5.5 


Time (GMT)  Wavelength (Ang)  Step Number  Raw Counts  Counts/Second

 1182.58        2950.00           1222          56.00       220.14
 1182.65        2950.25           1226          53.00       207.06
 1182.68        2950.50           1229          59.00       233.22
 1182.71        2950.75           1232          49.00       189.63
 1182.74        2951.00           1236          53.00       207.06
 1182.77        2951.25           1239          51.00       198.34
 1182.80        2951.50           1242          52.00       202.70
 1182.83        2951.75           1246          63.00       250.66
 1182.86        2952.00           1249          57.00       224.50
 1182.90        2952.25           1252          50.00       193.99
 1182.93        2952.50           1256          60.00       237.58
 1182.96        2952.75           1259          56.00       220.14
 1182.99        2953.00           1262          66.00       263.73
 1183.02        2953.25           1266          58.00       228.86
 1183.05        2953.50           1269          56.00       220.14
 1183.08        2953.75           1272          61.00       241.94
 1183.11        2954.00           1276          59.00       233.22
 1183.14        2954.25           1279          53.00       207.06
 1183.17        2954.50           1282          53.00       207.06
 1183.20        2954.75           1286          60.00       237.58
 1183.23        2955.00           1289          53.00       207.06
 1183.26        2955.25           1292          56.00       220.14
 1183.30        2955.50           1296          55.00       215.78
 1183.33        2955.75           1299          56.00       220.14
 1183.36        2956.00           1302          60.00       237.58
 1183.39        2956.25           1306          51.00       198.34
 1183.42        2956.50           1309          57.00       224.50
 1183.45        2956.75           1312          59.00       233.22
 1183.48        2957.00           1316          55.00       215.78
 1183.51        2957.25           1319          59.00       233.22
 1183.55        2957.50           1322          54.00       211.42
 1183.58        2957.75           1326          54.00       211.42
 1183.61        2958.00           1329          53.00       207.06
 1183.64        2958.25           1332          62.00       246.30
 1183.67        2958.50           1336          55.00       215.78
 1183.70        2958.75           1339          49.00       189.63
 1183.73        2959.00           1342          53.00       207.06
 1183.76        2959.25           1346          65.00       259.37
 1183.79        2959.50           1349          58.00       228.86
 1183.83        2959.75           1352          63.00       250.66
 1183.86        2960.00           1356          96.00       394.51
 1183.89        2960.25           1359         130.00       542.73
 1183.92        2960.50           1362         155.00       651.71
 1183.95        2960.75           1366         184.00       778.14
 1183.98        2961.00           1369         224.00       952.51
 1184.01        2961.25           1372         256.00      1092.01
 1184.04        2961.50           1376         302.00      1292.55
 1184.07        2961.75           1379         418.00      1798.27
 1184.10        2962.00           1382         833.00      3607.63
 1184.14        2962.25           1386        2214.00      9630.07
 1184.17        2962.50           1389        3379.00     14712.25
 1184.20        2962.75           1392        4589.00     19992.37
 1184.23        2963.00           1396        6190.00     26981.29
 1184.26        2963.25           1399        7391.00     32226.00
 1184.29        2963.50           1402        8635.00     37660.22
 1184.32        2963.75           1406       10311.00     44984.38
 1184.35        2964.00           1409       11567.00     50475.24
 1184.38        2964.25           1412       12856.00     56112.26
 1184.42        2964.50           1416       14354.00     62665.65
 1184.45        2964.75           1419       15828.00     69116.58
 1184.48        2965.00           1422       17063.00     74523.45
 1184.51        2965.25           1426       18710.00     81736.80
 1184.54        2965.50           1429       20018.00     87467.68
 1184.57        2965.75           1432       21249.00     92862.97
 1184.60        2966.00           1436       22752.00     99452.78
 1184.63        2966.25           1439       23792.00    104014.10
 1184.66        2966.50           1442       25049.00    109528.90
 1184.70        2966.75           1446       26242.00    114764.60
 1184.73        2967.00           1449       26654.00    116573.10
 1184.76        2967.25           1452       26739.00    116946.20
 1184.79        2967.50           1456       26868.00    117512.50
 1184.82        2967.75           1459       26619.00    116419.40
 1184.85        2968.00           1462       26523.00    115998.00
 1184.88        2968.25           1466       25810.00    112868.50
 1184.91        2968.50           1469       24709.00    108037.10
 1184.94        2968.75           1472       23484.00    102663.10
 1184.98        2969.00           1476       22033.00     96300.05
 1185.01        2969.25           1479       20813.00     90951.84
 1185.04        2969.50           1482       19622.00     85732.43
 1185.07        2969.75           1486       18032.00     78767.00
 1185.10        2970.00           1489       16814.00     73433.18
 1185.13        2970.25           1492       15656.00     68363.69
 1185.16        2970.50           1496       13943.00     60867.37
 1185.19        2970.75           1499       12705.00     55451.81
 1185.22        2971.00           1502       11491.00     50142.94
 1185.26        2971.25           1506        9696.00     42296.45
 1185.29        2971.50           1509        8454.00     36869.44
 1185.32        2971.75           1513        6921.00     30173.34
 1185.35        2972.00           1516        5642.00     24588.75
 1185.38        2972.25           1519        4471.00     19477.38
 1185.41        2972.50           1523        2871.00     12495.97
 1185.44        2972.75           1526        1784.00      7754.64
 1185.47        2973.00           1529         782.00      3385.26
 1185.50        2973.25           1533         360.00      1545.41
 1185.53        2973.50           1536         275.00      1174.85
 1185.57        2973.75           1539         221.00       939.43
 1185.60        2974.00           1543         192.00       813.01
 1185.63        2974.25           1546         134.00       560.17
 1185.66        2974.50           1549         120.00       499.14
 1185.69        2974.75           1553          84.00       342.20
 1185.72        2975.00           1556          65.00       259.37
 1185.75        2975.25           1559          53.00       207.06
 1185.78        2975.50           1563          54.00       211.42
 1185.82        2975.75           1566          48.00       185.27
 1185.85        2976.00           1569          48.00       185.27
 1185.88        2976.25           1573          64.00       255.02
 1185.91        2976.50           1576          47.00       180.91
 1185.94        2976.75           1579          54.00       211.42
 1185.97        2977.00           1583          54.00       211.42
 1186.00        2977.25           1586          51.00       198.34
 1186.03        2977.50           1590          49.00       189.63
 1186.06        2977.75           1593          54.00       211.42
 1186.10        2978.00           1596          48.00       185.27
 1186.13        2978.25           1600          59.00       233.22
 1186.16        2978.50           1603          51.00       198.34
 1186.19        2978.75           1606          53.00       207.06
 1186.22        2979.00           1610          66.00       263.73
 1186.25        2979.25           1613          55.00       215.78
 1186.28        2979.50           1616          46.00       176.55
 1186.31        2979.75           1620          46.00       176.55
 1186.34        2980.00           1623          58.00       228.86
 1186.37        2980.25           1626          53.00       207.06
 1186.40        2980.50           1630          46.00       176.55
 1186.44        2980.75           1633          55.00       215.78
 1186.47        2981.00           1637          55.00       215.78
 1186.50        2981.25           1640          47.00       180.91
 1186.53        2981.50           1643          49.00       189.63
 1186.56        2981.75           1647          50.00       193.99
 1186.61        2982.00           1650          54.00       211.42
 1186.65        2982.25           1653          59.00       233.22
 1186.69        2982.50           1657          51.00       198.34
 1186.72        2982.75           1660          44.00       167.83
 1186.75        2983.00           1663          52.00       202.70
 1186.78        2983.25           1667          51.00       198.34
 1186.81        2983.50           1670          47.00       180.91
 1186.84        2983.75           1673          41.00       154.75
 1186.87        2984.00           1677          52.00       202.70
HS scan finished at 19:47:05
end
