************************************************************
  HS Scan of (1) Internal mercury lamp
************************************************************
Integration time is 0.2294 seconds per sample
dh020417Manchester 53.47 2.23 2.804185pr1000
************************************************************
Dead Time -------------------------  3E-08 
Number of Cycles Used -------------  4 
Starting Wavelength (Angstroms) ---  2950 
Final Wavelength (Angstoms) -------  2984 
Wavelength Increment (Angstroms) --  .25 
Filter Wheel #1 Position ---------- (1) Ground quartz diffuser (ND=2.32)
Filter Wheel #2 Position ---------- (1) Neutral Density 0.494



************************************************************
HS scan start time = 01:51:05
Dark Count =  8.399999 


Time (GMT)  Wavelength (Ang)  Step Number  Raw Counts  Counts/Second

  111.46        2950.00           1222          39.00       133.39
  111.52        2950.25           1226          44.00       155.19
  111.56        2950.50           1229          40.00       137.75
  111.59        2950.75           1232          65.00       246.73
  111.62        2951.00           1236          43.00       150.83
  111.65        2951.25           1239          45.00       159.55
  111.68        2951.50           1242          37.00       124.67
  111.71        2951.75           1246          49.00       176.98
  111.74        2952.00           1249          49.00       176.98
  111.77        2952.25           1252          47.00       168.27
  111.80        2952.50           1256          46.00       163.91
  111.83        2952.75           1259          56.00       207.50
  111.86        2953.00           1262          45.00       159.55
  111.90        2953.25           1266          47.00       168.27
  111.93        2953.50           1269          48.00       172.63
  111.96        2953.75           1272          48.00       172.63
  111.99        2954.00           1276          49.00       176.98
  112.02        2954.25           1279          40.00       137.75
  112.05        2954.50           1282          43.00       150.83
  112.08        2954.75           1286          44.00       155.19
  112.11        2955.00           1289          52.00       190.06
  112.14        2955.25           1292          46.00       163.91
  112.17        2955.50           1296          47.00       168.27
  112.20        2955.75           1299          46.00       163.91
  112.23        2956.00           1302          46.00       163.91
  112.27        2956.25           1306          44.00       155.19
  112.30        2956.50           1309          52.00       190.06
  112.33        2956.75           1312          44.00       155.19
  112.36        2957.00           1316          48.00       172.63
  112.39        2957.25           1319          50.00       181.34
  112.42        2957.50           1322          49.00       176.98
  112.45        2957.75           1326          41.00       142.11
  112.48        2958.00           1329          49.00       176.98
  112.51        2958.25           1332          47.00       168.27
  112.54        2958.50           1336          49.00       176.98
  112.57        2958.75           1339          48.00       172.63
  112.60        2959.00           1342          43.00       150.83
  112.64        2959.25           1346          44.00       155.19
  112.67        2959.50           1349          46.00       163.91
  112.70        2959.75           1352          60.00       224.94
  112.73        2960.00           1356          93.00       368.79
  112.76        2960.25           1359         111.00       447.26
  112.79        2960.50           1362         133.00       543.16
  112.82        2960.75           1366         222.00       931.15
  112.85        2961.00           1369         245.00      1031.42
  112.88        2961.25           1372         287.00      1214.52
  112.91        2961.50           1376         410.00      1750.75
  112.94        2961.75           1379         708.00      3049.97
  112.97        2962.00           1382        1433.00      6211.27
  113.01        2962.25           1386        3386.00     14730.14
  113.04        2962.50           1389        5073.00     22092.23
  113.07        2962.75           1392        6711.00     29243.61
  113.10        2963.00           1396        8667.00     37787.36
  113.13        2963.25           1399       10493.00     45767.24
  113.16        2963.50           1402       12067.00     52648.92
  113.19        2963.75           1406       14262.00     62250.40
  113.22        2964.00           1409       16021.00     69948.73
  113.25        2964.25           1412       17729.00     77427.25
  113.29        2964.50           1416       19948.00     87148.21
  113.32        2964.75           1419       21706.00     94853.68
  113.35        2965.00           1422       23267.00    101698.60
  113.38        2965.25           1426       25484.00    111425.00
  113.41        2965.50           1429       27256.00    119203.20
  113.44        2965.75           1432       28778.00    125886.90
  113.47        2966.00           1436       30780.00    134682.60
  113.50        2966.25           1439       32410.00    141847.30
  113.53        2966.50           1442       33624.00    147185.50
  113.57        2966.75           1446       35268.00    154417.30
  113.60        2967.00           1449       35876.00    157092.60
  113.63        2967.25           1452       36017.00    157713.10
  113.66        2967.50           1456       35896.00    157180.60
  113.69        2967.75           1459       35862.00    157031.00
  113.72        2968.00           1462       35660.00    156142.10
  113.75        2968.25           1466       34415.00    150664.70
  113.78        2968.50           1469       32795.00    143540.10
  113.81        2968.75           1472       31532.00    137987.70
  113.85        2969.00           1476       29345.00    128377.50
  113.88        2969.25           1479       27795.00    121569.90
  113.91        2969.50           1482       26329.00    115133.70
  113.94        2969.75           1486       24141.00    105532.40
  113.97        2970.00           1489       22275.00     97348.40
  114.00        2970.25           1492       20585.00     89939.82
  114.03        2970.50           1496       18393.00     80335.49
  114.06        2970.75           1499       16726.00     73035.18
  114.09        2971.00           1502       15190.00     66311.38
  114.13        2971.25           1506       12938.00     56458.23
  114.16        2971.50           1509       11139.00     48591.27
  114.19        2971.75           1513        8926.00     38919.00
  114.22        2972.00           1516        7393.00     32222.07
  114.25        2972.25           1519        5781.00     25182.93
  114.28        2972.50           1523        3685.00     16034.74
  114.31        2972.75           1526        2259.00      9813.70
  114.34        2973.00           1529        1032.00      4462.67
  114.37        2973.25           1533         468.00      2003.61
  114.40        2973.50           1536         333.00      1415.06
  114.43        2973.75           1539         277.00      1170.92
  114.46        2974.00           1543         247.00      1040.14
  114.50        2974.25           1546         184.00       765.49
  114.53        2974.50           1549         134.00       547.52
  114.56        2974.75           1553          95.00       377.51
  114.59        2975.00           1556          67.00       255.45
  114.62        2975.25           1559          55.00       203.14
  114.65        2975.50           1563          51.00       185.70
  114.68        2975.75           1566          51.00       185.70
  114.71        2976.00           1569          43.00       150.83
  114.74        2976.25           1573          44.00       155.19
  114.77        2976.50           1576          63.00       238.01
  114.80        2976.75           1579          43.00       150.83
  114.83        2977.00           1583          53.00       194.42
  114.86        2977.25           1586          47.00       168.27
  114.89        2977.50           1590          51.00       185.70
  114.93        2977.75           1593          46.00       163.91
  114.96        2978.00           1596          43.00       150.83
  114.99        2978.25           1600          48.00       172.63
  115.02        2978.50           1603          52.00       190.06
  115.05        2978.75           1606          68.00       259.81
  115.08        2979.00           1610          44.00       155.19
  115.11        2979.25           1613          51.00       185.70
  115.14        2979.50           1616          44.00       155.19
  115.17        2979.75           1620          48.00       172.63
  115.20        2980.00           1623          51.00       185.70
  115.23        2980.25           1626          48.00       172.63
  115.26        2980.50           1630          49.00       176.98
  115.29        2980.75           1633          44.00       155.19
  115.32        2981.00           1637          42.00       146.47
  115.36        2981.25           1640          62.00       233.65
  115.39        2981.50           1643          46.00       163.91
  115.42        2981.75           1647          43.00       150.83
  115.45        2982.00           1650          42.00       146.47
  115.48        2982.25           1653          51.00       185.70
  115.51        2982.50           1657          45.00       159.55
  115.54        2982.75           1660          43.00       150.83
  115.57        2983.00           1663          46.00       163.91
  115.60        2983.25           1667          49.00       176.98
  115.63        2983.50           1670          47.00       168.27
  115.66        2983.75           1673          45.00       159.55
  115.70        2984.00           1677          50.00       181.34
HS scan finished at 01:55:55
end
************************************************************
  HS Scan of (1) Internal mercury lamp
************************************************************
Integration time is 0.2294 seconds per sample
dh020417Manchester 53.47 2.23 2.804185pr1000
************************************************************
Dead Time -------------------------  3E-08 
Number of Cycles Used -------------  4 
Starting Wavelength (Angstroms) ---  2950 
Final Wavelength (Angstoms) -------  2984 
Wavelength Increment (Angstroms) --  .25 
Filter Wheel #1 Position ---------- (1) Ground quartz diffuser (ND=2.32)
Filter Wheel #2 Position ---------- (1) Neutral Density 0.494



************************************************************
HS scan start time = 19:42:04
Dark Count =  7.8 


Time (GMT)  Wavelength (Ang)  Step Number  Raw Counts  Counts/Second

 1182.43        2950.00           1222          50.00       183.96
 1182.50        2950.25           1226          44.00       157.80
 1182.53        2950.50           1229          42.00       149.09
 1182.56        2950.75           1232          46.00       166.52
 1182.59        2951.00           1236          48.00       175.24
 1182.62        2951.25           1239          47.00       170.88
 1182.65        2951.50           1242          39.00       136.01
 1182.68        2951.75           1246          53.00       197.04
 1182.71        2952.00           1249          44.00       157.80
 1182.74        2952.25           1252          40.00       140.37
 1182.77        2952.50           1256          45.00       162.16
 1182.80        2952.75           1259          42.00       149.09
 1182.84        2953.00           1262          51.00       188.32
 1182.87        2953.25           1266          45.00       162.16
 1182.90        2953.50           1269          45.00       162.16
 1182.93        2953.75           1272          48.00       175.24
 1182.96        2954.00           1276          38.00       131.65
 1182.99        2954.25           1279          48.00       175.24
 1183.02        2954.50           1282          45.00       162.16
 1183.05        2954.75           1286          48.00       175.24
 1183.08        2955.00           1289          45.00       162.16
 1183.11        2955.25           1292          44.00       157.80
 1183.14        2955.50           1296          46.00       166.52
 1183.17        2955.75           1299          44.00       157.80
 1183.21        2956.00           1302          46.00       166.52
 1183.24        2956.25           1306          49.00       179.60
 1183.27        2956.50           1309          45.00       162.16
 1183.30        2956.75           1312          50.00       183.96
 1183.33        2957.00           1316          48.00       175.24
 1183.36        2957.25           1319          44.00       157.80
 1183.39        2957.50           1322          48.00       175.24
 1183.42        2957.75           1326          50.00       183.96
 1183.45        2958.00           1329          46.00       166.52
 1183.48        2958.25           1332          44.00       157.80
 1183.51        2958.50           1336          48.00       175.24
 1183.55        2958.75           1339          46.00       166.52
 1183.58        2959.00           1342          44.00       157.80
 1183.61        2959.25           1346          47.00       170.88
 1183.64        2959.50           1349          54.00       201.40
 1183.67        2959.75           1352          63.00       240.63
 1183.70        2960.00           1356          90.00       358.33
 1183.73        2960.25           1359         126.00       515.27
 1183.76        2960.50           1362         168.00       698.36
 1183.79        2960.75           1366         227.00       955.56
 1183.82        2961.00           1369         271.00      1147.38
 1183.85        2961.25           1372         308.00      1308.68
 1183.88        2961.50           1376         401.00      1714.12
 1183.92        2961.75           1379         542.00      2328.85
 1183.95        2962.00           1382        1023.00      4426.05
 1183.98        2962.25           1386        2672.00     11617.82
 1184.01        2962.50           1389        4234.00     18433.03
 1184.04        2962.75           1392        5786.00     25207.37
 1184.07        2963.00           1396        7940.00     34613.95
 1184.10        2963.25           1399        9548.00     41639.60
 1184.13        2963.50           1402       11259.00     49118.54
 1184.16        2963.75           1406       13472.00     58796.74
 1184.19        2964.00           1409       15283.00     66721.05
 1184.22        2964.25           1412       16759.00     73182.29
 1184.25        2964.50           1416       19049.00     83211.83
 1184.28        2964.75           1419       20573.00     89889.85
 1184.32        2965.00           1422       22423.00     97999.99
 1184.35        2965.25           1426       24568.00    107408.30
 1184.38        2965.50           1429       26137.00    114293.60
 1184.41        2965.75           1432       27664.00    120997.30
 1184.44        2966.00           1436       30174.00    132022.30
 1184.47        2966.25           1439       31652.00    138517.80
 1184.50        2966.50           1442       33311.00    145811.70
 1184.53        2966.75           1446       34933.00    152946.00
 1184.56        2967.00           1449       35556.00    155687.10
 1184.60        2967.25           1452       35718.00    156399.90
 1184.63        2967.50           1456       35673.00    156201.90
 1184.66        2967.75           1459       35664.00    156162.30
 1184.69        2968.00           1462       35432.00    155141.50
 1184.72        2968.25           1466       34796.00    152343.30
 1184.75        2968.50           1469       33465.00    146488.90
 1184.78        2968.75           1472       32013.00    140104.70
 1184.81        2969.00           1476       29953.00    131051.30
 1184.84        2969.25           1479       28290.00    123746.30
 1184.87        2969.50           1482       26550.00    116106.40
 1184.91        2969.75           1486       24247.00    106000.00
 1184.94        2970.00           1489       22557.00     98587.58
 1184.97        2970.25           1492       20951.00     91546.63
 1185.00        2970.50           1496       18937.00     82721.15
 1185.03        2970.75           1499       17475.00     76317.51
 1185.06        2971.00           1502       15753.00     68778.21
 1185.09        2971.25           1506       13488.00     58866.73
 1185.12        2971.50           1509       11915.00     51986.86
 1185.15        2971.75           1513        9615.00     41932.40
 1185.19        2972.00           1516        8006.00     34902.27
 1185.22        2972.25           1519        6334.00     27600.01
 1185.25        2972.50           1523        4114.00     17909.36
 1185.28        2972.75           1526        2570.00     11172.88
 1185.31        2973.00           1529        1253.00      5428.96
 1185.34        2973.25           1533         516.00      2215.49
 1185.37        2973.50           1536         347.00      1478.71
 1185.40        2973.75           1539         302.00      1282.53
 1185.43        2974.00           1543         247.00      1042.75
 1185.46        2974.25           1546         187.00       781.19
 1185.49        2974.50           1549         140.00       576.30
 1185.53        2974.75           1553          88.00       349.61
 1185.56        2975.00           1556          70.00       271.14
 1185.59        2975.25           1559          54.00       201.40
 1185.62        2975.50           1563          46.00       166.52
 1185.65        2975.75           1566          47.00       170.88
 1185.68        2976.00           1569          52.00       192.68
 1185.71        2976.25           1573          47.00       170.88
 1185.74        2976.50           1576          38.00       131.65
 1185.77        2976.75           1579          45.00       162.16
 1185.80        2977.00           1583          44.00       157.80
 1185.83        2977.25           1586          50.00       183.96
 1185.87        2977.50           1590          52.00       192.68
 1185.90        2977.75           1593          41.00       144.73
 1185.93        2978.00           1596          47.00       170.88
 1185.96        2978.25           1600          47.00       170.88
 1185.99        2978.50           1603          43.00       153.44
 1186.02        2978.75           1606          42.00       149.09
 1186.05        2979.00           1610          46.00       166.52
 1186.08        2979.25           1613          41.00       144.73
 1186.11        2979.50           1616          38.00       131.65
 1186.14        2979.75           1620          51.00       188.32
 1186.17        2980.00           1623          42.00       149.09
 1186.21        2980.25           1626          41.00       144.73
 1186.24        2980.50           1630          53.00       197.04
 1186.27        2980.75           1633          44.00       157.80
 1186.30        2981.00           1637          37.00       127.29
 1186.33        2981.25           1640          44.00       157.80
 1186.36        2981.50           1643          48.00       175.24
 1186.39        2981.75           1647          43.00       153.44
 1186.42        2982.00           1650          50.00       183.96
 1186.45        2982.25           1653          46.00       166.52
 1186.48        2982.50           1657          49.00       179.60
 1186.51        2982.75           1660          43.00       153.44
 1186.55        2983.00           1663          42.00       149.09
 1186.58        2983.25           1667          44.00       157.80
 1186.61        2983.50           1670          43.00       153.44
 1186.64        2983.75           1673          40.00       140.37
 1186.67        2984.00           1677          45.00       162.16
HS scan finished at 19:46:53
end
