************************************************************
  HS Scan of (1) Internal mercury lamp
************************************************************
Integration time is 0.2294 seconds per sample
dh080417Manchester 53.47 2.23 2.804185pr1000
************************************************************
Dead Time -------------------------  3E-08 
Number of Cycles Used -------------  4 
Starting Wavelength (Angstroms) ---  2950 
Final Wavelength (Angstoms) -------  2984 
Wavelength Increment (Angstroms) --  .25 
Filter Wheel #1 Position ---------- (1) Ground quartz diffuser (ND=2.32)
Filter Wheel #2 Position ---------- (1) Neutral Density 0.494



************************************************************
HS scan start time = 01:26:57
Dark Count =  6.7 


Time (GMT)  Wavelength (Ang)  Step Number  Raw Counts  Counts/Second

   87.31        2950.00           1222          45.00       166.96
   87.38        2950.25           1226          46.00       171.32
   87.41        2950.50           1229          47.00       175.68
   87.44        2950.75           1232          43.00       158.24
   87.47        2951.00           1236          52.00       197.47
   87.50        2951.25           1239          40.00       145.16
   87.53        2951.50           1242          42.00       153.88
   87.56        2951.75           1246          46.00       171.32
   87.60        2952.00           1249          47.00       175.68
   87.63        2952.25           1252          47.00       175.68
   87.66        2952.50           1256          44.00       162.60
   87.69        2952.75           1259          50.00       188.75
   87.72        2953.00           1262          44.00       162.60
   87.75        2953.25           1266          47.00       175.68
   87.78        2953.50           1269          52.00       197.47
   87.81        2953.75           1272          54.00       206.19
   87.84        2954.00           1276          42.00       153.88
   87.87        2954.25           1279          47.00       175.68
   87.90        2954.50           1282          43.00       158.24
   87.93        2954.75           1286          46.00       171.32
   87.96        2955.00           1289          49.00       184.40
   87.99        2955.25           1292          46.00       171.32
   88.02        2955.50           1296          41.00       149.52
   88.06        2955.75           1299          47.00       175.68
   88.09        2956.00           1302          47.00       175.68
   88.12        2956.25           1306          47.00       175.68
   88.15        2956.50           1309          44.00       162.60
   88.18        2956.75           1312          44.00       162.60
   88.21        2957.00           1316          51.00       193.11
   88.24        2957.25           1319          48.00       180.04
   88.27        2957.50           1322          45.00       166.96
   88.30        2957.75           1326          47.00       175.68
   88.33        2958.00           1329          48.00       180.04
   88.36        2958.25           1332          46.00       171.32
   88.40        2958.50           1336          58.00       223.63
   88.43        2958.75           1339          48.00       180.04
   88.46        2959.00           1342          41.00       149.52
   88.49        2959.25           1346          60.00       232.35
   88.52        2959.50           1349          50.00       188.75
   88.55        2959.75           1352          63.00       245.42
   88.58        2960.00           1356          88.00       354.41
   88.61        2960.25           1359         117.00       480.83
   88.64        2960.50           1362         145.00       602.89
   88.67        2960.75           1366         231.00       977.80
   88.70        2961.00           1369         259.00      1099.86
   88.74        2961.25           1372         314.00      1339.64
   88.77        2961.50           1376         402.00      1723.28
   88.80        2961.75           1379         584.00      2516.76
   88.83        2962.00           1382        1150.00      4984.62
   88.86        2962.25           1386        2771.00     12054.49
   88.89        2962.50           1389        4319.00     18808.78
   88.92        2962.75           1392        5989.00     26098.45
   88.95        2963.00           1396        8212.00     35806.97
   88.98        2963.25           1399        9772.00     42623.34
   89.01        2963.50           1402       11364.00     49582.42
   89.05        2963.75           1406       13549.00     59138.40
   89.08        2964.00           1409       15376.00     67132.90
   89.11        2964.25           1412       17306.00     75582.26
   89.14        2964.50           1416       19679.00     85976.93
   89.17        2964.75           1419       21541.00     94137.77
   89.20        2965.00           1422       22946.00    100298.30
   89.23        2965.25           1426       25209.00    110225.70
   89.26        2965.50           1429       26981.00    118003.30
   89.29        2965.75           1432       28688.00    125499.10
   89.33        2966.00           1436       30890.00    135173.50
   89.36        2966.25           1439       32489.00    142202.10
   89.39        2966.50           1442       34011.00    148895.10
   89.42        2966.75           1446       35565.00    155731.60
   89.45        2967.00           1449       36226.00    158640.30
   89.48        2967.25           1452       36212.00    158578.70
   89.51        2967.50           1456       36263.00    158803.10
   89.54        2967.75           1459       36168.00    158385.10
   89.57        2968.00           1462       35997.00    157632.50
   89.60        2968.25           1466       35174.00    154011.20
   89.64        2968.50           1469       34006.00    148873.10
   89.67        2968.75           1472       32654.00    142927.60
   89.70        2969.00           1476       30494.00    133433.30
   89.73        2969.25           1479       28721.00    125644.00
   89.76        2969.50           1482       27127.00    118644.30
   89.79        2969.75           1486       24836.00    108589.00
   89.82        2970.00           1489       23112.00    101026.30
   89.85        2970.25           1492       21688.00     94782.22
   89.88        2970.50           1496       19424.00     84859.62
   89.92        2970.75           1499       17517.00     76506.27
   89.95        2971.00           1502       15925.00     69535.93
   89.98        2971.25           1506       13692.00     59763.99
   90.01        2971.50           1509       11887.00     51869.23
   90.04        2971.75           1513        9843.00     42933.65
   90.07        2972.00           1516        8193.00     35723.97
   90.10        2972.25           1519        6694.00     29176.79
   90.13        2972.50           1523        4567.00     19891.12
   90.16        2972.75           1526        3077.00     13389.42
   90.19        2973.00           1529        1686.00      7322.01
   90.23        2973.25           1533         557.00      2399.04
   90.26        2973.50           1536         365.00      1561.97
   90.29        2973.75           1539         307.00      1309.12
   90.32        2974.00           1543         255.00      1082.42
   90.35        2974.25           1546         193.00       812.14
   90.38        2974.50           1549         138.00       572.37
   90.41        2974.75           1553          99.00       402.36
   90.44        2975.00           1556          62.00       241.07
   90.47        2975.25           1559          51.00       193.11
   90.50        2975.50           1563          45.00       166.96
   90.53        2975.75           1566          48.00       180.04
   90.57        2976.00           1569          57.00       219.27
   90.60        2976.25           1573          49.00       184.40
   90.63        2976.50           1576          53.00       201.83
   90.66        2976.75           1579          53.00       201.83
   90.69        2977.00           1583          47.00       175.68
   90.72        2977.25           1586          45.00       166.96
   90.75        2977.50           1590          47.00       175.68
   90.78        2977.75           1593          44.00       162.60
   90.81        2978.00           1596          44.00       162.60
   90.84        2978.25           1600          58.00       223.63
   90.87        2978.50           1603          44.00       162.60
   90.91        2978.75           1606          47.00       175.68
   90.94        2979.00           1610          46.00       171.32
   90.97        2979.25           1613          41.00       149.52
   91.00        2979.50           1616          43.00       158.24
   91.03        2979.75           1620          46.00       171.32
   91.06        2980.00           1623          46.00       171.32
   91.09        2980.25           1626          46.00       171.32
   91.12        2980.50           1630          47.00       175.68
   91.15        2980.75           1633          45.00       166.96
   91.18        2981.00           1637          45.00       166.96
   91.21        2981.25           1640          54.00       206.19
   91.24        2981.50           1643          48.00       180.04
   91.28        2981.75           1647          47.00       175.68
   91.31        2982.00           1650          50.00       188.75
   91.34        2982.25           1653          54.00       206.19
   91.37        2982.50           1657          44.00       162.60
   91.40        2982.75           1660          47.00       175.68
   91.43        2983.00           1663          43.00       158.24
   91.46        2983.25           1667          41.00       149.52
   91.49        2983.50           1670          47.00       175.68
   91.52        2983.75           1673          45.00       166.96
   91.55        2984.00           1677          42.00       153.88
HS scan finished at 01:31:46
end
************************************************************
  HS Scan of (1) Internal mercury lamp
************************************************************
Integration time is 0.2294 seconds per sample
dh080417Manchester 53.47 2.23 2.911481pr1000
************************************************************
Dead Time -------------------------  3E-08 
Number of Cycles Used -------------  4 
Starting Wavelength (Angstroms) ---  2950 
Final Wavelength (Angstoms) -------  2984 
Wavelength Increment (Angstroms) --  .25 
Filter Wheel #1 Position ---------- (1) Ground quartz diffuser (ND=2.32)
Filter Wheel #2 Position ---------- (1) Neutral Density 0.494



************************************************************
HS scan start time = 20:12:03
Dark Count =  6.4 


Time (GMT)  Wavelength (Ang)  Step Number  Raw Counts  Counts/Second

 1212.42        2950.00           1222          46.00       172.63
 1212.49        2950.25           1226          45.00       168.27
 1212.52        2950.50           1229          45.00       168.27
 1212.55        2950.75           1232          40.00       146.47
 1212.58        2951.00           1236          43.00       159.55
 1212.61        2951.25           1239          44.00       163.91
 1212.64        2951.50           1242          44.00       163.91
 1212.67        2951.75           1246          40.00       146.47
 1212.70        2952.00           1249          51.00       194.42
 1212.73        2952.25           1252          48.00       181.34
 1212.76        2952.50           1256          49.00       185.70
 1212.79        2952.75           1259          53.00       203.14
 1212.82        2953.00           1262          44.00       163.91
 1212.86        2953.25           1266          45.00       168.27
 1212.89        2953.50           1269          40.00       146.47
 1212.92        2953.75           1272          47.00       176.98
 1212.95        2954.00           1276          49.00       185.70
 1212.98        2954.25           1279          42.00       155.19
 1213.01        2954.50           1282          52.00       198.78
 1213.04        2954.75           1286          54.00       207.50
 1213.07        2955.00           1289          47.00       176.98
 1213.10        2955.25           1292          48.00       181.34
 1213.14        2955.50           1296          49.00       185.70
 1213.17        2955.75           1299          47.00       176.98
 1213.20        2956.00           1302          47.00       176.98
 1213.23        2956.25           1306          46.00       172.63
 1213.26        2956.50           1309          45.00       168.27
 1213.29        2956.75           1312          43.00       159.55
 1213.32        2957.00           1316          49.00       185.70
 1213.35        2957.25           1319          44.00       163.91
 1213.38        2957.50           1322          53.00       203.14
 1213.41        2957.75           1326          43.00       159.55
 1213.44        2958.00           1329          46.00       172.63
 1213.47        2958.25           1332          51.00       194.42
 1213.51        2958.50           1336          49.00       185.70
 1213.54        2958.75           1339          48.00       181.34
 1213.57        2959.00           1342          45.00       168.27
 1213.60        2959.25           1346          50.00       190.06
 1213.63        2959.50           1349          54.00       207.50
 1213.66        2959.75           1352          64.00       251.09
 1213.69        2960.00           1356          92.00       373.15
 1213.72        2960.25           1359         132.00       547.52
 1213.75        2960.50           1362         157.00       656.51
 1213.78        2960.75           1366         228.00       966.03
 1213.81        2961.00           1369         273.00      1162.20
 1213.84        2961.25           1372         321.00      1371.46
 1213.88        2961.50           1376         403.00      1728.95
 1213.91        2961.75           1379         529.00      2278.27
 1213.94        2962.00           1382        1013.00      4388.55
 1213.97        2962.25           1386        2592.00     11274.96
 1214.00        2962.50           1389        4114.00     17915.47
 1214.03        2962.75           1392        5798.00     25265.88
 1214.06        2963.00           1396        7945.00     34641.91
 1214.09        2963.25           1399        9600.00     41872.97
 1214.12        2963.50           1402       11393.00     49710.52
 1214.16        2963.75           1406       13909.00     60714.67
 1214.19        2964.00           1409       15856.00     69235.21
 1214.22        2964.25           1412       17591.00     76831.65
 1214.25        2964.50           1416       19924.00     87051.81
 1214.28        2964.75           1419       21767.00     95129.87
 1214.31        2965.00           1422       23519.00    102812.70
 1214.34        2965.25           1426       25905.00    113281.50
 1214.37        2965.50           1429       27554.00    120520.40
 1214.40        2965.75           1432       29294.00    128162.30
 1214.43        2966.00           1436       31475.00    137745.90
 1214.46        2966.25           1439       33483.00    146574.30
 1214.50        2966.50           1442       34862.00    152639.80
 1214.53        2966.75           1446       36635.00    160441.70
 1214.56        2967.00           1449       37444.00    164002.90
 1214.59        2967.25           1452       37549.00    164465.10
 1214.62        2967.50           1456       37653.00    164923.00
 1214.65        2967.75           1459       37426.00    163923.60
 1214.68        2968.00           1462       37357.00    163619.90
 1214.71        2968.25           1466       36699.00    160723.40
 1214.74        2968.50           1469       35498.00    155438.10
 1214.78        2968.75           1472       33894.00    148381.80
 1214.81        2969.00           1476       31540.00    138031.60
 1214.84        2969.25           1479       29961.00    131092.60
 1214.87        2969.50           1482       28026.00    122593.00
 1214.90        2969.75           1486       25950.00    113479.00
 1214.93        2970.00           1489       24214.00    105861.40
 1214.96        2970.25           1492       22368.00     97764.96
 1214.99        2970.50           1496       20009.00     87424.28
 1215.02        2970.75           1499       18515.00     80878.65
 1215.06        2971.00           1502       16649.00     72706.81
 1215.09        2971.25           1506       14271.00     62298.55
 1215.12        2971.50           1509       12833.00     56007.72
 1215.15        2971.75           1513       10507.00     45837.18
 1215.18        2972.00           1516        8827.00     38495.17
 1215.21        2972.25           1519        7054.00     30750.24
 1215.24        2972.50           1523        4793.00     20878.81
 1215.27        2972.75           1526        3159.00     13748.48
 1215.30        2973.00           1529        1651.00      7170.68
 1215.34        2973.25           1533         579.00      2496.26
 1215.37        2973.50           1536         382.00      1637.40
 1215.40        2973.75           1539         322.00      1375.82
 1215.43        2974.00           1543         267.00      1136.05
 1215.46        2974.25           1546         214.00       904.99
 1215.49        2974.50           1549         156.00       652.15
 1215.52        2974.75           1553         103.00       421.10
 1215.55        2975.00           1556          74.00       294.68
 1215.58        2975.25           1559          61.00       238.01
 1215.62        2975.50           1563          51.00       194.42
 1215.65        2975.75           1566          51.00       194.42
 1215.68        2976.00           1569          58.00       224.94
 1215.71        2976.25           1573          48.00       181.34
 1215.74        2976.50           1576          48.00       181.34
 1215.77        2976.75           1579          41.00       150.83
 1215.80        2977.00           1583          46.00       172.63
 1215.83        2977.25           1586          48.00       181.34
 1215.86        2977.50           1590          50.00       190.06
 1215.89        2977.75           1593          52.00       198.78
 1215.92        2978.00           1596          44.00       163.91
 1215.95        2978.25           1600          46.00       172.63
 1215.99        2978.50           1603          45.00       168.27
 1216.02        2978.75           1606          49.00       185.70
 1216.05        2979.00           1610          44.00       163.91
 1216.08        2979.25           1613          38.00       137.75
 1216.11        2979.50           1616          44.00       163.91
 1216.14        2979.75           1620          45.00       168.27
 1216.17        2980.00           1623          40.00       146.47
 1216.20        2980.25           1626          39.00       142.11
 1216.23        2980.50           1630          39.00       142.11
 1216.26        2980.75           1633          42.00       155.19
 1216.29        2981.00           1637          42.00       155.19
 1216.32        2981.25           1640          46.00       172.63
 1216.35        2981.50           1643          50.00       190.06
 1216.38        2981.75           1647          46.00       172.63
 1216.41        2982.00           1650          47.00       176.98
 1216.45        2982.25           1653          46.00       172.63
 1216.48        2982.50           1657          42.00       155.19
 1216.51        2982.75           1660          41.00       150.83
 1216.54        2983.00           1663          44.00       163.91
 1216.57        2983.25           1667          45.00       168.27
 1216.60        2983.50           1670          46.00       172.63
 1216.63        2983.75           1673          40.00       146.47
 1216.66        2984.00           1677          43.00       159.55
HS scan finished at 20:16:53
end
