************************************************************
  HS Scan of (1) Internal mercury lamp
************************************************************
Integration time is 0.2294 seconds per sample
dh010419Manchester 53.47 2.23 2.804185pr1000
************************************************************
Dead Time -------------------------  3E-08 
Number of Cycles Used -------------  4 
Starting Wavelength (Angstroms) ---  2950 
Final Wavelength (Angstoms) -------  2984 
Wavelength Increment (Angstroms) --  .25 
Filter Wheel #1 Position ---------- (1) Ground quartz diffuser (ND=2.32)
Filter Wheel #2 Position ---------- (1) Neutral Density 0.494



************************************************************
HS scan start time = 02:02:20
Dark Count =  3.2 


Time (GMT)  Wavelength (Ang)  Step Number  Raw Counts  Counts/Second

  122.71        2950.00           1222          53.00       217.09
  122.78        2950.25           1226          59.00       243.25
  122.81        2950.50           1229          60.00       247.60
  122.84        2950.75           1232          57.00       234.53
  122.87        2951.00           1236          53.00       217.09
  122.90        2951.25           1239          51.00       208.37
  122.93        2951.50           1242          55.00       225.81
  122.96        2951.75           1246          56.00       230.17
  122.99        2952.00           1249          74.00       308.63
  123.02        2952.25           1252          56.00       230.17
  123.05        2952.50           1256          59.00       243.25
  123.08        2952.75           1259          54.00       221.45
  123.12        2953.00           1262          58.00       238.89
  123.15        2953.25           1266          50.00       204.01
  123.18        2953.50           1269          55.00       225.81
  123.21        2953.75           1272          53.00       217.09
  123.24        2954.00           1276          52.00       212.73
  123.27        2954.25           1279          53.00       217.09
  123.30        2954.50           1282          66.00       273.76
  123.33        2954.75           1286          60.00       247.60
  123.36        2955.00           1289          54.00       221.45
  123.39        2955.25           1292          60.00       247.60
  123.43        2955.50           1296          61.00       251.96
  123.46        2955.75           1299          57.00       234.53
  123.49        2956.00           1302          50.00       204.01
  123.52        2956.25           1306          53.00       217.09
  123.55        2956.50           1309          57.00       234.53
  123.58        2956.75           1312          54.00       221.45
  123.61        2957.00           1316          48.00       195.29
  123.64        2957.25           1319          52.00       212.73
  123.67        2957.50           1322          53.00       217.09
  123.70        2957.75           1326          47.00       190.93
  123.73        2958.00           1329          48.00       195.29
  123.77        2958.25           1332          60.00       247.60
  123.80        2958.50           1336          53.00       217.09
  123.83        2958.75           1339          60.00       247.60
  123.86        2959.00           1342          58.00       238.89
  123.89        2959.25           1346          59.00       243.25
  123.92        2959.50           1349          72.00       299.92
  123.95        2959.75           1352          75.00       312.99
  123.98        2960.00           1356         105.00       443.77
  124.01        2960.25           1359         122.00       517.88
  124.05        2960.50           1362         137.00       583.27
  124.08        2960.75           1366         190.00       814.32
  124.11        2961.00           1369         227.00       975.62
  124.14        2961.25           1372         246.00      1058.45
  124.17        2961.50           1376         314.00      1354.89
  124.20        2961.75           1379         423.00      1830.09
  124.23        2962.00           1382         857.00      3722.30
  124.26        2962.25           1386        2182.00      9500.53
  124.29        2962.50           1389        3440.00     14988.43
  124.33        2962.75           1392        4730.00     20617.81
  124.36        2963.00           1396        6197.00     27021.90
  124.39        2963.25           1399        7507.00     32742.70
  124.42        2963.50           1402        8704.00     37971.74
  124.45        2963.75           1406       10360.00     45208.62
  124.48        2964.00           1409       11526.00     50306.03
  124.51        2964.25           1412       12934.00     56463.49
  124.54        2964.50           1416       14369.00     62741.35
  124.57        2964.75           1419       15544.00     67883.53
  124.61        2965.00           1422       16875.00     73710.34
  124.64        2965.25           1426       18724.00     81808.21
  124.67        2965.50           1429       20130.00     87968.56
  124.70        2965.75           1432       21151.00     92443.47
  124.73        2966.00           1436       22765.00     99519.88
  124.76        2966.25           1439       23924.00    104603.30
  124.79        2966.50           1442       24932.00    109025.60
  124.82        2966.75           1446       26282.00    114950.20
  124.85        2967.00           1449       26588.00    116293.40
  124.89        2967.25           1452       26583.00    116271.50
  124.92        2967.50           1456       26469.00    115771.10
  124.95        2967.75           1459       26500.00    115907.10
  124.98        2968.00           1462       26464.00    115749.10
  125.01        2968.25           1466       25626.00    112071.00
  125.04        2968.50           1469       24445.00    106888.90
  125.07        2968.75           1472       23225.00    101537.30
  125.10        2969.00           1476       21809.00     95328.03
  125.13        2969.25           1479       20395.00     89129.90
  125.16        2969.50           1482       19162.00     83727.05
  125.20        2969.75           1486       17753.00     77555.13
  125.23        2970.00           1489       16410.00     71674.45
  125.26        2970.25           1492       15220.00     66465.45
  125.29        2970.50           1496       13843.00     60439.92
  125.32        2970.75           1499       12651.00     55225.69
  125.35        2971.00           1502       11270.00     49186.74
  125.38        2971.25           1506        9551.00     41672.82
  125.41        2971.50           1509        8310.00     36250.39
  125.44        2971.75           1513        6634.00     28930.07
  125.48        2972.00           1516        5491.00     23939.60
  125.51        2972.25           1519        4278.00     18645.13
  125.54        2972.50           1523        2762.00     12030.50
  125.57        2972.75           1526        1686.00      7337.27
  125.60        2973.00           1529         766.00      3325.53
  125.63        2973.25           1533         328.00      1415.93
  125.66        2973.50           1536         255.00      1097.68
  125.69        2973.75           1539         209.00       897.15
  125.72        2974.00           1543         187.00       801.24
  125.76        2974.25           1546         131.00       557.11
  125.79        2974.50           1549         100.00       421.98
  125.82        2974.75           1553          78.00       326.07
  125.85        2975.00           1556          66.00       273.76
  125.88        2975.25           1559          58.00       238.89
  125.91        2975.50           1563          58.00       238.89
  125.94        2975.75           1566          56.00       230.17
  125.97        2976.00           1569          49.00       199.65
  126.00        2976.25           1573          52.00       212.73
  126.03        2976.50           1576          51.00       208.37
  126.07        2976.75           1579          44.00       177.86
  126.10        2977.00           1583          51.00       208.37
  126.13        2977.25           1586          49.00       199.65
  126.16        2977.50           1590          51.00       208.37
  126.19        2977.75           1593          55.00       225.81
  126.22        2978.00           1596          54.00       221.45
  126.25        2978.25           1600          53.00       217.09
  126.28        2978.50           1603          49.00       199.65
  126.31        2978.75           1606          58.00       238.89
  126.34        2979.00           1610          47.00       190.93
  126.38        2979.25           1613          55.00       225.81
  126.41        2979.50           1616          54.00       221.45
  126.44        2979.75           1620          56.00       230.17
  126.47        2980.00           1623          49.00       199.65
  126.50        2980.25           1626          45.00       182.22
  126.53        2980.50           1630          53.00       217.09
  126.56        2980.75           1633          44.00       177.86
  126.59        2981.00           1637          45.00       182.22
  126.62        2981.25           1640          53.00       217.09
  126.65        2981.50           1643          56.00       230.17
  126.69        2981.75           1647          51.00       208.37
  126.72        2982.00           1650          46.00       186.57
  126.75        2982.25           1653          57.00       234.53
  126.78        2982.50           1657          45.00       182.22
  126.81        2982.75           1660          40.00       160.42
  126.84        2983.00           1663          50.00       204.01
  126.87        2983.25           1667          52.00       212.73
  126.90        2983.50           1670          48.00       195.29
  126.93        2983.75           1673          41.00       164.78
  126.96        2984.00           1677          50.00       204.01
HS scan finished at 02:07:11
end
************************************************************
  HS Scan of (1) Internal mercury lamp
************************************************************
Integration time is 0.2294 seconds per sample
dh010419Manchester 53.47 2.23 2.804185pr1000
************************************************************
Dead Time -------------------------  3E-08 
Number of Cycles Used -------------  4 
Starting Wavelength (Angstroms) ---  2950 
Final Wavelength (Angstoms) -------  2984 
Wavelength Increment (Angstroms) --  .25 
Filter Wheel #1 Position ---------- (1) Ground quartz diffuser (ND=2.32)
Filter Wheel #2 Position ---------- (1) Neutral Density 0.494



************************************************************
HS scan start time = 19:42:13
Dark Count =  7.1 


Time (GMT)  Wavelength (Ang)  Step Number  Raw Counts  Counts/Second

 1182.59        2950.00           1222          57.00       217.53
 1182.65        2950.25           1226          61.00       234.96
 1182.68        2950.50           1229          54.00       204.45
 1182.71        2950.75           1232          52.00       195.73
 1182.74        2951.00           1236          66.00       256.76
 1182.78        2951.25           1239          62.00       239.32
 1182.81        2951.50           1242          57.00       217.53
 1182.84        2951.75           1246          54.00       204.45
 1182.87        2952.00           1249          51.00       191.37
 1182.90        2952.25           1252          56.00       213.17
 1182.93        2952.50           1256          53.00       200.09
 1182.96        2952.75           1259          59.00       226.24
 1182.99        2953.00           1262          54.00       204.45
 1183.02        2953.25           1266          55.00       208.81
 1183.05        2953.50           1269          59.00       226.24
 1183.08        2953.75           1272          55.00       208.81
 1183.11        2954.00           1276          53.00       200.09
 1183.15        2954.25           1279          56.00       213.17
 1183.18        2954.50           1282          54.00       204.45
 1183.21        2954.75           1286          46.00       169.57
 1183.24        2955.00           1289          58.00       221.88
 1183.27        2955.25           1292          56.00       213.17
 1183.30        2955.50           1296          70.00       274.20
 1183.33        2955.75           1299          58.00       221.88
 1183.36        2956.00           1302          50.00       187.01
 1183.39        2956.25           1306          50.00       187.01
 1183.42        2956.50           1309          54.00       204.45
 1183.45        2956.75           1312          61.00       234.96
 1183.48        2957.00           1316          53.00       200.09
 1183.51        2957.25           1319          61.00       234.96
 1183.55        2957.50           1322          52.00       195.73
 1183.58        2957.75           1326          57.00       217.53
 1183.61        2958.00           1329          54.00       204.45
 1183.64        2958.25           1332          49.00       182.65
 1183.67        2958.50           1336          52.00       195.73
 1183.70        2958.75           1339          51.00       191.37
 1183.73        2959.00           1342          54.00       204.45
 1183.76        2959.25           1346          51.00       191.37
 1183.79        2959.50           1349          64.00       248.04
 1183.82        2959.75           1352          68.00       265.48
 1183.85        2960.00           1356          95.00       383.18
 1183.89        2960.25           1359         115.00       470.36
 1183.92        2960.50           1362         135.00       557.55
 1183.95        2960.75           1366         179.00       749.36
 1183.98        2961.00           1369         227.00       958.62
 1184.01        2961.25           1372         245.00      1037.09
 1184.04        2961.50           1376         320.00      1364.05
 1184.07        2961.75           1379         449.00      1926.44
 1184.10        2962.00           1382         979.00      4237.24
 1184.13        2962.25           1386        2289.00      9950.22
 1184.16        2962.50           1389        3503.00     15246.29
 1184.19        2962.75           1392        4579.00     19941.74
 1184.22        2963.00           1396        6084.00     26511.49
 1184.26        2963.25           1399        7404.00     32275.79
 1184.29        2963.50           1402        8801.00     38378.52
 1184.32        2963.75           1406       10447.00     45571.85
 1184.35        2964.00           1409       11699.00     51045.42
 1184.38        2964.25           1412       13151.00     57395.61
 1184.41        2964.50           1416       14857.00     64859.74
 1184.44        2964.75           1419       16049.00     70076.99
 1184.47        2965.00           1422       17275.00     75444.76
 1184.50        2965.25           1426       18766.00     81975.11
 1184.53        2965.50           1429       19985.00     87316.06
 1184.56        2965.75           1432       21064.00     92045.02
 1184.60        2966.00           1436       22901.00    100099.20
 1184.63        2966.25           1439       24098.00    105349.40
 1184.66        2966.50           1442       25182.00    110105.50
 1184.69        2966.75           1446       26453.00    115683.70
 1184.72        2967.00           1449       26691.00    116728.50
 1184.75        2967.25           1452       26491.00    115850.50
 1184.78        2967.50           1456       26513.00    115947.10
 1184.81        2967.75           1459       26567.00    116184.10
 1184.84        2968.00           1462       26300.00    115012.10
 1184.88        2968.25           1466       25735.00    112532.30
 1184.91        2968.50           1469       24427.00    106792.80
 1184.94        2968.75           1472       23525.00    102836.00
 1184.97        2969.00           1476       21803.00     95284.62
 1185.00        2969.25           1479       20646.00     90212.88
 1185.03        2969.50           1482       19486.00     85129.52
 1185.06        2969.75           1486       17827.00     77862.15
 1185.09        2970.00           1489       16499.00     72047.02
 1185.13        2970.25           1492       15352.00     67026.10
 1185.16        2970.50           1496       13705.00     59819.11
 1185.19        2970.75           1499       12455.00     54351.42
 1185.22        2971.00           1502       11330.00     49432.02
 1185.25        2971.25           1506        9585.00     41804.36
 1185.28        2971.50           1509        8330.00     36320.72
 1185.31        2971.75           1513        6854.00     29873.75
 1185.34        2972.00           1516        5726.00     24948.48
 1185.37        2972.25           1519        4345.00     18920.50
 1185.41        2972.50           1523        2783.00     12105.09
 1185.44        2972.75           1526        1619.00      7028.07
 1185.47        2973.00           1529         721.00      3112.32
 1185.50        2973.25           1533         351.00      1499.20
 1185.53        2973.50           1536         257.00      1089.40
 1185.56        2973.75           1539         247.00      1045.80
 1185.59        2974.00           1543         191.00       801.68
 1185.62        2974.25           1546         145.00       601.14
 1185.65        2974.50           1549         109.00       444.21
 1185.68        2974.75           1553          87.00       348.30
 1185.71        2975.00           1556          61.00       234.96
 1185.75        2975.25           1559          53.00       200.09
 1185.78        2975.50           1563          59.00       226.24
 1185.81        2975.75           1566          48.00       178.29
 1185.84        2976.00           1569          58.00       221.88
 1185.87        2976.25           1573          57.00       217.53
 1185.90        2976.50           1576          54.00       204.45
 1185.93        2976.75           1579          52.00       195.73
 1185.96        2977.00           1583          48.00       178.29
 1185.99        2977.25           1586          56.00       213.17
 1186.02        2977.50           1590          53.00       200.09
 1186.05        2977.75           1593          48.00       178.29
 1186.08        2978.00           1596          51.00       191.37
 1186.12        2978.25           1600          50.00       187.01
 1186.15        2978.50           1603          52.00       195.73
 1186.18        2978.75           1606          48.00       178.29
 1186.21        2979.00           1610          48.00       178.29
 1186.24        2979.25           1613          55.00       208.81
 1186.27        2979.50           1616          58.00       221.88
 1186.30        2979.75           1620          52.00       195.73
 1186.33        2980.00           1623          44.00       160.86
 1186.36        2980.25           1626          51.00       191.37
 1186.39        2980.50           1630          53.00       200.09
 1186.43        2980.75           1633          56.00       213.17
 1186.46        2981.00           1637          57.00       217.53
 1186.49        2981.25           1640          40.00       143.42
 1186.52        2981.50           1643          50.00       187.01
 1186.55        2981.75           1647          53.00       200.09
 1186.58        2982.00           1650          58.00       221.88
 1186.61        2982.25           1653          51.00       191.37
 1186.64        2982.50           1657          48.00       178.29
 1186.67        2982.75           1660          47.00       173.93
 1186.70        2983.00           1663          49.00       182.65
 1186.74        2983.25           1667          46.00       169.57
 1186.77        2983.50           1670          51.00       191.37
 1186.80        2983.75           1673          47.00       173.93
 1186.83        2984.00           1677          49.00       182.65
HS scan finished at 19:47:03
end
