************************************************************
  HS Scan of (1) Internal mercury lamp
************************************************************
Integration time is 0.2294 seconds per sample
dh080419Manchester 53.47 2.23 2.804185pr1000
************************************************************
Dead Time -------------------------  3E-08 
Number of Cycles Used -------------  4 
Starting Wavelength (Angstroms) ---  2950 
Final Wavelength (Angstoms) -------  2984 
Wavelength Increment (Angstroms) --  .25 
Filter Wheel #1 Position ---------- (1) Ground quartz diffuser (ND=2.32)
Filter Wheel #2 Position ---------- (1) Neutral Density 0.494



************************************************************
HS scan start time = 01:27:28
Dark Count =  7.6 


Time (GMT)  Wavelength (Ang)  Step Number  Raw Counts  Counts/Second

   87.84        2950.00           1222          55.00       206.63
   87.91        2950.25           1226          76.00       298.17
   87.94        2950.50           1229          58.00       219.71
   87.97        2950.75           1232          57.00       215.35
   88.00        2951.00           1236          52.00       193.55
   88.03        2951.25           1239          49.00       180.47
   88.06        2951.50           1242          58.00       219.71
   88.09        2951.75           1246          48.00       176.11
   88.12        2952.00           1249          52.00       193.55
   88.16        2952.25           1252          53.00       197.91
   88.19        2952.50           1256          53.00       197.91
   88.22        2952.75           1259          56.00       210.99
   88.25        2953.00           1262          51.00       189.19
   88.28        2953.25           1266          54.00       202.27
   88.31        2953.50           1269          56.00       210.99
   88.34        2953.75           1272          53.00       197.91
   88.37        2954.00           1276          57.00       215.35
   88.40        2954.25           1279          52.00       193.55
   88.43        2954.50           1282          56.00       210.99
   88.46        2954.75           1286          72.00       280.73
   88.49        2955.00           1289          54.00       202.27
   88.52        2955.25           1292          54.00       202.27
   88.56        2955.50           1296          58.00       219.71
   88.59        2955.75           1299          60.00       228.42
   88.62        2956.00           1302          56.00       210.99
   88.65        2956.25           1306          52.00       193.55
   88.68        2956.50           1309          55.00       206.63
   88.71        2956.75           1312          53.00       197.91
   88.74        2957.00           1316          52.00       193.55
   88.77        2957.25           1319          45.00       163.03
   88.80        2957.50           1322          57.00       215.35
   88.83        2957.75           1326          58.00       219.71
   88.86        2958.00           1329          54.00       202.27
   88.90        2958.25           1332          58.00       219.71
   88.93        2958.50           1336          52.00       193.55
   88.96        2958.75           1339          52.00       193.55
   88.99        2959.00           1342          61.00       232.78
   89.02        2959.25           1346          52.00       193.55
   89.05        2959.50           1349          66.00       254.58
   89.08        2959.75           1352          75.00       293.81
   89.11        2960.00           1356         103.00       415.87
   89.14        2960.25           1359         115.00       468.18
   89.17        2960.50           1362         140.00       577.17
   89.20        2960.75           1366         184.00       768.98
   89.24        2961.00           1369         223.00       939.00
   89.27        2961.25           1372         249.00      1052.34
   89.30        2961.50           1376         314.00      1335.71
   89.33        2961.75           1379         433.00      1854.51
   89.36        2962.00           1382         957.00      4139.14
   89.39        2962.25           1386        2387.00     10375.50
   89.42        2962.50           1389        3603.00     15680.44
   89.45        2962.75           1392        4868.00     21200.93
   89.49        2963.00           1396        6480.00     28238.38
   89.52        2963.25           1399        7687.00     33509.69
   89.55        2963.50           1402        8907.00     38839.48
   89.58        2963.75           1406       10514.00     45862.54
   89.61        2964.00           1409       11744.00     51240.00
   89.64        2964.25           1412       12973.00     56614.83
   89.67        2964.50           1416       14536.00     63452.85
   89.70        2964.75           1419       15816.00     69054.85
   89.73        2965.00           1422       17235.00     75267.41
   89.77        2965.25           1426       18860.00     82384.71
   89.80        2965.50           1429       20130.00     87949.28
   89.83        2965.75           1432       21350.00     93296.52
   89.86        2966.00           1436       23044.00    100724.10
   89.89        2966.25           1439       24225.00    105904.40
   89.92        2966.50           1442       25306.00    110647.40
   89.95        2966.75           1446       26682.00    116686.80
   89.98        2967.00           1449       26852.00    117433.00
   90.02        2967.25           1452       26943.00    117832.50
   90.05        2967.50           1456       26895.00    117621.80
   90.08        2967.75           1459       26735.00    116919.40
   90.11        2968.00           1462       26575.00    116217.10
   90.14        2968.25           1466       25976.00    113587.80
   90.17        2968.50           1469       24844.00    108620.20
   90.20        2968.75           1472       23598.00    103154.00
   90.23        2969.00           1476       22041.00     96325.91
   90.26        2969.25           1479       20872.00     91201.24
   90.30        2969.50           1482       19733.00     86209.60
   90.33        2969.75           1486       18123.00     79156.37
   90.36        2970.00           1489       16779.00     73270.73
   90.39        2970.25           1492       15706.00     68573.36
   90.42        2970.50           1496       14059.00     61365.71
   90.45        2970.75           1499       12716.00     55490.73
   90.48        2971.00           1502       11568.00     50470.44
   90.51        2971.25           1506        9770.00     42610.67
   90.55        2971.50           1509        8470.00     36930.17
   90.58        2971.75           1513        6921.00     30164.16
   90.61        2972.00           1516        5674.00     24719.28
   90.64        2972.25           1519        4502.00     19603.50
   90.67        2972.50           1523        2893.00     12582.78
   90.70        2972.75           1526        1707.00      7409.67
   90.73        2973.00           1529         794.00      3428.43
   90.76        2973.25           1533         350.00      1492.66
   90.80        2973.50           1536         267.00      1130.81
   90.83        2973.75           1539         222.00       934.64
   90.86        2974.00           1543         185.00       773.34
   90.89        2974.25           1546         139.00       572.81
   90.92        2974.50           1549         112.00       455.11
   90.95        2974.75           1553          85.00       337.41
   90.98        2975.00           1556          60.00       228.42
   91.01        2975.25           1559          55.00       206.63
   91.04        2975.50           1563          50.00       184.83
   91.07        2975.75           1566          50.00       184.83
   91.11        2976.00           1569          52.00       193.55
   91.14        2976.25           1573          55.00       206.63
   91.17        2976.50           1576          59.00       224.06
   91.20        2976.75           1579          49.00       180.47
   91.23        2977.00           1583          54.00       202.27
   91.26        2977.25           1586          45.00       163.03
   91.29        2977.50           1590          52.00       193.55
   91.32        2977.75           1593          47.00       171.75
   91.35        2978.00           1596          54.00       202.27
   91.39        2978.25           1600          58.00       219.71
   91.42        2978.50           1603          59.00       224.06
   91.45        2978.75           1606          58.00       219.71
   91.48        2979.00           1610          49.00       180.47
   91.51        2979.25           1613          51.00       189.19
   91.54        2979.50           1616          49.00       180.47
   91.57        2979.75           1620          51.00       189.19
   91.60        2980.00           1623          48.00       176.11
   91.63        2980.25           1626          52.00       193.55
   91.66        2980.50           1630          50.00       184.83
   91.70        2980.75           1633          47.00       171.75
   91.73        2981.00           1637          57.00       215.35
   91.76        2981.25           1640          50.00       184.83
   91.79        2981.50           1643          54.00       202.27
   91.82        2981.75           1647          49.00       180.47
   91.85        2982.00           1650          50.00       184.83
   91.88        2982.25           1653          51.00       189.19
   91.91        2982.50           1657          49.00       180.47
   91.94        2982.75           1660          42.00       149.96
   91.97        2983.00           1663          48.00       176.11
   92.01        2983.25           1667          49.00       180.47
   92.04        2983.50           1670          49.00       180.47
   92.07        2983.75           1673          51.00       189.19
   92.10        2984.00           1677          46.00       167.39
HS scan finished at 01:32:19
end
************************************************************
  HS Scan of (1) Internal mercury lamp
************************************************************
Integration time is 0.2294 seconds per sample
dh080419Manchester 53.47 2.23 2.804185pr1000
************************************************************
Dead Time -------------------------  3E-08 
Number of Cycles Used -------------  4 
Starting Wavelength (Angstroms) ---  2950 
Final Wavelength (Angstoms) -------  2984 
Wavelength Increment (Angstroms) --  .25 
Filter Wheel #1 Position ---------- (1) Ground quartz diffuser (ND=2.32)
Filter Wheel #2 Position ---------- (1) Neutral Density 0.494



************************************************************
HS scan start time = 19:42:16
Dark Count =  7 


Time (GMT)  Wavelength (Ang)  Step Number  Raw Counts  Counts/Second

 1182.63        2950.00           1222          59.00       226.68
 1182.70        2950.25           1226          59.00       226.68
 1182.73        2950.50           1229          53.00       200.52
 1182.76        2950.75           1232          56.00       213.60
 1182.79        2951.00           1236          59.00       226.68
 1182.82        2951.25           1239          58.00       222.32
 1182.85        2951.50           1242          59.00       226.68
 1182.88        2951.75           1246          50.00       187.45
 1182.92        2952.00           1249          58.00       222.32
 1182.95        2952.25           1252          55.00       209.24
 1182.98        2952.50           1256          60.00       231.04
 1183.01        2952.75           1259          57.00       217.96
 1183.04        2953.00           1262          63.00       244.12
 1183.07        2953.25           1266          60.00       231.04
 1183.10        2953.50           1269          64.00       248.48
 1183.13        2953.75           1272          54.00       204.88
 1183.16        2954.00           1276          63.00       244.12
 1183.19        2954.25           1279          50.00       187.45
 1183.22        2954.50           1282          53.00       200.52
 1183.25        2954.75           1286          57.00       217.96
 1183.28        2955.00           1289          49.00       183.09
 1183.31        2955.25           1292          60.00       231.04
 1183.34        2955.50           1296          64.00       248.48
 1183.37        2955.75           1299          58.00       222.32
 1183.41        2956.00           1302          53.00       200.52
 1183.44        2956.25           1306          53.00       200.52
 1183.47        2956.50           1309          56.00       213.60
 1183.50        2956.75           1312          54.00       204.88
 1183.53        2957.00           1316          47.00       174.37
 1183.56        2957.25           1319          51.00       191.81
 1183.59        2957.50           1322          50.00       187.45
 1183.62        2957.75           1326          61.00       235.40
 1183.65        2958.00           1329          56.00       213.60
 1183.68        2958.25           1332          62.00       239.76
 1183.71        2958.50           1336          59.00       226.68
 1183.74        2958.75           1339          57.00       217.96
 1183.77        2959.00           1342          56.00       213.60
 1183.80        2959.25           1346          56.00       213.60
 1183.84        2959.50           1349          56.00       213.60
 1183.87        2959.75           1352          72.00       283.35
 1183.90        2960.00           1356          86.00       344.38
 1183.93        2960.25           1359          98.00       396.69
 1183.96        2960.50           1362         141.00       584.14
 1183.99        2960.75           1366         176.00       736.72
 1184.02        2961.00           1369         205.00       863.14
 1184.05        2961.25           1372         251.00      1063.68
 1184.08        2961.50           1376         327.00      1395.00
 1184.11        2961.75           1379         632.00      2724.72
 1184.14        2962.00           1382        1357.00      5885.96
 1184.17        2962.25           1386        2831.00     12314.92
 1184.21        2962.50           1389        3924.00     17083.73
 1184.24        2962.75           1392        5215.00     22718.18
 1184.27        2963.00           1396        6721.00     29293.39
 1184.30        2963.25           1399        7910.00     34486.40
 1184.33        2963.50           1402        9273.00     40441.37
 1184.36        2963.75           1406       10936.00     47709.92
 1184.39        2964.00           1409       12155.00     53039.87
 1184.42        2964.25           1412       13395.00     58463.39
 1184.45        2964.50           1416       15071.00     65796.71
 1184.48        2964.75           1419       16447.00     71819.80
 1184.52        2965.00           1422       17811.00     77792.50
 1184.55        2965.25           1426       19311.00     84363.21
 1184.58        2965.50           1429       20551.00     89796.96
 1184.61        2965.75           1432       21890.00     95666.50
 1184.64        2966.00           1436       23451.00    102511.80
 1184.67        2966.25           1439       24828.00    108552.60
 1184.70        2966.50           1442       25556.00    111747.10
 1184.73        2966.75           1446       26725.00    116878.20
 1184.76        2967.00           1449       26820.00    117295.20
 1184.79        2967.25           1452       26687.00    116711.40
 1184.83        2967.50           1456       26805.00    117229.40
 1184.86        2967.75           1459       26898.00    117637.60
 1184.89        2968.00           1462       26437.00    115613.90
 1184.92        2968.25           1466       25257.00    110435.00
 1184.95        2968.50           1469       24246.00    105999.10
 1184.98        2968.75           1472       23152.00    101200.40
 1185.01        2969.00           1476       21687.00     94776.51
 1185.04        2969.25           1479       20440.00     89310.46
 1185.07        2969.50           1482       19236.00     84034.61
 1185.11        2969.75           1486       17665.00     77153.10
 1185.14        2970.00           1489       16367.00     71469.55
 1185.17        2970.25           1492       15156.00     66168.71
 1185.20        2970.50           1496       13532.00     59062.71
 1185.23        2970.75           1499       12181.00     53153.57
 1185.26        2971.00           1502       11137.00     48588.65
 1185.29        2971.25           1506        9253.00     40353.97
 1185.32        2971.50           1509        8102.00     35325.13
 1185.35        2971.75           1513        6519.00     28411.30
 1185.39        2972.00           1516        5188.00     22600.32
 1185.42        2972.25           1519        4048.00     17624.84
 1185.45        2972.50           1523        2484.00     10801.23
 1185.48        2972.75           1526        1363.00      5912.12
 1185.51        2973.00           1529         686.00      2960.16
 1185.54        2973.25           1533         339.00      1447.32
 1185.57        2973.50           1536         254.00      1076.76
 1185.60        2973.75           1539         234.00       989.57
 1185.63        2974.00           1543         195.00       819.55
 1185.67        2974.25           1546         143.00       592.86
 1185.70        2974.50           1549         107.00       435.93
 1185.73        2974.75           1553          79.00       313.87
 1185.76        2975.00           1556          73.00       287.71
 1185.79        2975.25           1559          59.00       226.68
 1185.82        2975.50           1563          50.00       187.45
 1185.85        2975.75           1566          57.00       217.96
 1185.88        2976.00           1569          53.00       200.52
 1185.91        2976.25           1573          57.00       217.96
 1185.95        2976.50           1576          50.00       187.45
 1185.98        2976.75           1579          57.00       217.96
 1186.01        2977.00           1583          58.00       222.32
 1186.04        2977.25           1586          50.00       187.45
 1186.07        2977.50           1590          52.00       196.17
 1186.10        2977.75           1593          54.00       204.88
 1186.13        2978.00           1596          50.00       187.45
 1186.16        2978.25           1600          54.00       204.88
 1186.19        2978.50           1603          56.00       213.60
 1186.22        2978.75           1606          53.00       200.52
 1186.25        2979.00           1610          51.00       191.81
 1186.29        2979.25           1613          46.00       170.01
 1186.32        2979.50           1616          48.00       178.73
 1186.35        2979.75           1620          47.00       174.37
 1186.38        2980.00           1623          57.00       217.96
 1186.41        2980.25           1626          60.00       231.04
 1186.44        2980.50           1630          48.00       178.73
 1186.47        2980.75           1633          48.00       178.73
 1186.50        2981.00           1637          49.00       183.09
 1186.53        2981.25           1640          49.00       183.09
 1186.56        2981.50           1643          49.00       183.09
 1186.59        2981.75           1647          42.00       152.57
 1186.62        2982.00           1650          57.00       217.96
 1186.66        2982.25           1653          43.00       156.93
 1186.69        2982.50           1657          48.00       178.73
 1186.72        2982.75           1660          53.00       200.52
 1186.75        2983.00           1663          51.00       191.81
 1186.78        2983.25           1667          52.00       196.17
 1186.81        2983.50           1670          49.00       183.09
 1186.84        2983.75           1673          47.00       174.37
 1186.87        2984.00           1677          59.00       226.68
HS scan finished at 19:47:06
end
