************************************************************
  HS Scan of (1) Internal mercury lamp
************************************************************
Integration time is 0.2294 seconds per sample
dh310318Manchester 53.47 2.23 2.750537pr1000
************************************************************
Dead Time -------------------------  3E-08 
Number of Cycles Used -------------  4 
Starting Wavelength (Angstroms) ---  2950 
Final Wavelength (Angstoms) -------  2984 
Wavelength Increment (Angstroms) --  .25 
Filter Wheel #1 Position ---------- (1) Ground quartz diffuser (ND=2.32)
Filter Wheel #2 Position ---------- (1) Neutral Density 0.494



************************************************************
HS scan start time = 02:07:26
Dark Count =  6.1 


Time (GMT)  Wavelength (Ang)  Step Number  Raw Counts  Counts/Second

  127.80        2950.00           1222          61.00       239.32
  127.86        2950.25           1226          61.00       239.32
  127.89        2950.50           1229          52.00       200.09
  127.93        2950.75           1232          54.00       208.81
  127.96        2951.00           1236          57.00       221.88
  127.99        2951.25           1239          56.00       217.53
  128.02        2951.50           1242          58.00       226.24
  128.05        2951.75           1246          71.00       282.91
  128.08        2952.00           1249          58.00       226.24
  128.11        2952.25           1252          56.00       217.53
  128.14        2952.50           1256          54.00       208.81
  128.17        2952.75           1259          63.00       248.04
  128.20        2953.00           1262          59.00       230.60
  128.23        2953.25           1266          54.00       208.81
  128.26        2953.50           1269          56.00       217.53
  128.30        2953.75           1272          59.00       230.60
  128.33        2954.00           1276          59.00       230.60
  128.36        2954.25           1279          59.00       230.60
  128.39        2954.50           1282          66.00       261.12
  128.42        2954.75           1286          60.00       234.96
  128.45        2955.00           1289          61.00       239.32
  128.48        2955.25           1292          56.00       217.53
  128.51        2955.50           1296          58.00       226.24
  128.54        2955.75           1299          60.00       234.96
  128.57        2956.00           1302          62.00       243.68
  128.60        2956.25           1306          58.00       226.24
  128.63        2956.50           1309          58.00       226.24
  128.66        2956.75           1312          66.00       261.12
  128.69        2957.00           1316          60.00       234.96
  128.73        2957.25           1319          56.00       217.53
  128.76        2957.50           1322          56.00       217.53
  128.79        2957.75           1326          58.00       226.24
  128.82        2958.00           1329          58.00       226.24
  128.85        2958.25           1332          58.00       226.24
  128.88        2958.50           1336          60.00       234.96
  128.91        2958.75           1339          57.00       221.88
  128.94        2959.00           1342          63.00       248.04
  128.97        2959.25           1346          61.00       239.32
  129.00        2959.50           1349          74.00       295.99
  129.03        2959.75           1352          88.00       357.02
  129.06        2960.00           1356         112.00       461.65
  129.09        2960.25           1359         147.00       614.22
  129.12        2960.50           1362         173.00       727.57
  129.15        2960.75           1366         246.00      1045.80
  129.19        2961.00           1369         264.00      1124.28
  129.22        2961.25           1372         314.00      1342.25
  129.25        2961.50           1376         396.00      1699.74
  129.28        2961.75           1379         559.00      2410.38
  129.31        2962.00           1382        1154.00      5004.68
  129.34        2962.25           1386        2788.00     12131.27
  129.37        2962.50           1389        4208.00     18326.99
  129.40        2962.75           1392        5622.00     24498.82
  129.43        2963.00           1396        7676.00     33468.20
  129.46        2963.25           1399        9161.00     39955.89
  129.50        2963.50           1402       10742.00     46865.76
  129.53        2963.75           1406       12634.00     55138.66
  129.56        2964.00           1409       14248.00     62199.23
  129.59        2964.25           1412       15835.00     69144.60
  129.62        2964.50           1416       17727.00     77428.56
  129.65        2964.75           1419       19199.00     83876.46
  129.68        2965.00           1422       20724.00     90559.12
  129.71        2965.25           1426       22799.00     99656.27
  129.74        2965.50           1429       24404.00    106696.30
  129.77        2965.75           1432       25894.00    113234.50
  129.80        2966.00           1436       27774.00    121487.70
  129.84        2966.25           1439       29525.00    129178.40
  129.87        2966.50           1442       30594.00    133875.30
  129.90        2966.75           1446       31989.00    140006.60
  129.93        2967.00           1449       32022.00    140151.70
  129.96        2967.25           1452       32109.00    140534.20
  129.99        2967.50           1456       32280.00    141285.90
  130.02        2967.75           1459       32152.00    140723.20
  130.05        2968.00           1462       32058.00    140310.00
  130.08        2968.25           1466       31121.00    136191.30
  130.11        2968.50           1469       29829.00    130514.00
  130.14        2968.75           1472       28344.00    123990.90
  130.18        2969.00           1476       26274.00    114902.40
  130.21        2969.25           1479       24591.00    107516.70
  130.24        2969.50           1482       23179.00    101322.80
  130.27        2969.75           1486       21578.00     94302.60
  130.30        2970.00           1489       19834.00     86658.74
  130.33        2970.25           1492       18404.00     80393.75
  130.36        2970.50           1496       16441.00     71797.47
  130.39        2970.75           1499       15165.00     66212.03
  130.42        2971.00           1502       13619.00     59447.26
  130.46        2971.25           1506       11559.00     50437.64
  130.49        2971.50           1509       10011.00     43670.52
  130.52        2971.75           1513        8068.00     35180.53
  130.55        2972.00           1516        6482.00     28253.67
  130.58        2972.25           1519        5005.00     21805.45
  130.61        2972.50           1523        3170.00     13797.78
  130.64        2972.75           1526        1860.00      8083.48
  130.67        2973.00           1529         804.00      3478.57
  130.70        2973.25           1533         406.00      1743.33
  130.73        2973.50           1536         299.00      1276.86
  130.77        2973.75           1539         267.00      1137.35
  130.80        2974.00           1543         201.00       849.63
  130.83        2974.25           1546         141.00       588.07
  130.86        2974.50           1549         121.00       500.88
  130.89        2974.75           1553          87.00       352.66
  130.92        2975.00           1556          72.00       287.27
  130.95        2975.25           1559          55.00       213.17
  130.98        2975.50           1563          66.00       261.12
  131.01        2975.75           1566          48.00       182.65
  131.04        2976.00           1569          63.00       248.04
  131.07        2976.25           1573          53.00       204.45
  131.10        2976.50           1576          54.00       208.81
  131.13        2976.75           1579          59.00       230.60
  131.17        2977.00           1583          52.00       200.09
  131.20        2977.25           1586          55.00       213.17
  131.23        2977.50           1590          52.00       200.09
  131.26        2977.75           1593          63.00       248.04
  131.29        2978.00           1596          60.00       234.96
  131.32        2978.25           1600          60.00       234.96
  131.35        2978.50           1603          53.00       204.45
  131.38        2978.75           1606          54.00       208.81
  131.41        2979.00           1610          55.00       213.17
  131.44        2979.25           1613          56.00       217.53
  131.47        2979.50           1616          56.00       217.53
  131.50        2979.75           1620          53.00       204.45
  131.53        2980.00           1623          51.00       195.73
  131.57        2980.25           1626          54.00       208.81
  131.60        2980.50           1630          53.00       204.45
  131.63        2980.75           1633          57.00       221.88
  131.66        2981.00           1637          49.00       187.01
  131.69        2981.25           1640          56.00       217.53
  131.72        2981.50           1643          60.00       234.96
  131.75        2981.75           1647          50.00       191.37
  131.78        2982.00           1650          58.00       226.24
  131.81        2982.25           1653          55.00       213.17
  131.84        2982.50           1657          58.00       226.24
  131.87        2982.75           1660          53.00       204.45
  131.90        2983.00           1663          48.00       182.65
  131.94        2983.25           1667          49.00       187.01
  131.97        2983.50           1670          52.00       200.09
  132.00        2983.75           1673          54.00       208.81
  132.03        2984.00           1677          56.00       217.53
HS scan finished at 02:12:15
end
************************************************************
  HS Scan of (1) Internal mercury lamp
************************************************************
Integration time is 0.2294 seconds per sample
dh310318Manchester 53.47 2.23 2.804185pr1000
************************************************************
Dead Time -------------------------  3E-08 
Number of Cycles Used -------------  4 
Starting Wavelength (Angstroms) ---  2950 
Final Wavelength (Angstoms) -------  2984 
Wavelength Increment (Angstroms) --  .25 
Filter Wheel #1 Position ---------- (1) Ground quartz diffuser (ND=2.32)
Filter Wheel #2 Position ---------- (1) Neutral Density 0.494



************************************************************
HS scan start time = 19:42:04
Dark Count =  7.6 


Time (GMT)  Wavelength (Ang)  Step Number  Raw Counts  Counts/Second

 1182.43        2950.00           1222          58.00       219.71
 1182.50        2950.25           1226          60.00       228.42
 1182.53        2950.50           1229          56.00       210.99
 1182.56        2950.75           1232          56.00       210.99
 1182.59        2951.00           1236          77.00       302.53
 1182.62        2951.25           1239          58.00       219.71
 1182.66        2951.50           1242          58.00       219.71
 1182.69        2951.75           1246          52.00       193.55
 1182.72        2952.00           1249          60.00       228.42
 1182.75        2952.25           1252          63.00       241.50
 1182.78        2952.50           1256          66.00       254.58
 1182.81        2952.75           1259          59.00       224.06
 1182.84        2953.00           1262          70.00       272.02
 1182.87        2953.25           1266          52.00       193.55
 1182.90        2953.50           1269          67.00       258.94
 1182.93        2953.75           1272          68.00       263.30
 1182.96        2954.00           1276          62.00       237.14
 1182.99        2954.25           1279          65.00       250.22
 1183.02        2954.50           1282          65.00       250.22
 1183.05        2954.75           1286          59.00       224.06
 1183.08        2955.00           1289          56.00       210.99
 1183.12        2955.25           1292          60.00       228.42
 1183.15        2955.50           1296          58.00       219.71
 1183.18        2955.75           1299          51.00       189.19
 1183.21        2956.00           1302          62.00       237.14
 1183.24        2956.25           1306          63.00       241.50
 1183.27        2956.50           1309          55.00       206.63
 1183.30        2956.75           1312          53.00       197.91
 1183.33        2957.00           1316          59.00       224.06
 1183.36        2957.25           1319          59.00       224.06
 1183.39        2957.50           1322          59.00       224.06
 1183.42        2957.75           1326          60.00       228.42
 1183.45        2958.00           1329          68.00       263.30
 1183.48        2958.25           1332          67.00       258.94
 1183.51        2958.50           1336          65.00       250.22
 1183.55        2958.75           1339          56.00       210.99
 1183.58        2959.00           1342          65.00       250.22
 1183.61        2959.25           1346          60.00       228.42
 1183.64        2959.50           1349          67.00       258.94
 1183.67        2959.75           1352          81.00       319.97
 1183.70        2960.00           1356         112.00       455.11
 1183.73        2960.25           1359         136.00       559.73
 1183.76        2960.50           1362         167.00       694.87
 1183.79        2960.75           1366         227.00       956.44
 1183.82        2961.00           1369         254.00      1074.14
 1183.85        2961.25           1372         301.00      1279.04
 1183.89        2961.50           1376         379.00      1619.08
 1183.92        2961.75           1379         584.00      2512.83
 1183.95        2962.00           1382        1213.00      5255.41
 1183.98        2962.25           1386        2908.00     12648.22
 1184.01        2962.50           1389        4403.00     19171.44
 1184.04        2962.75           1392        5735.00     24985.59
 1184.07        2963.00           1396        7697.00     33553.38
 1184.10        2963.25           1399        9104.00     39700.27
 1184.13        2963.50           1402       10628.00     46360.87
 1184.16        2963.75           1406       12681.00     55337.66
 1184.20        2964.00           1409       14125.00     61654.48
 1184.23        2964.25           1412       15643.00     68297.60
 1184.26        2964.50           1416       17784.00     77671.63
 1184.29        2964.75           1419       19308.00     84347.44
 1184.32        2965.00           1422       20653.00     90241.37
 1184.35        2965.25           1426       22874.00     99978.59
 1184.38        2965.50           1429       24284.00    106163.20
 1184.41        2965.75           1432       25774.00    112701.20
 1184.44        2966.00           1436       27483.00    120203.40
 1184.48        2966.25           1439       28956.00    126672.30
 1184.51        2966.50           1442       30240.00    132313.20
 1184.54        2966.75           1446       31618.00    138369.20
 1184.57        2967.00           1449       32182.00    140848.50
 1184.60        2967.25           1452       32105.00    140510.00
 1184.63        2967.50           1456       32160.00    140751.80
 1184.66        2967.75           1459       31938.00    139775.80
 1184.69        2968.00           1462       31832.00    139309.90
 1184.72        2968.25           1466       30802.00    134782.80
 1184.75        2968.50           1469       29421.00    128714.90
 1184.78        2968.75           1472       28121.00    123005.00
 1184.81        2969.00           1476       26090.00    114088.20
 1184.85        2969.25           1479       24664.00    107830.40
 1184.88        2969.50           1482       23455.00    102526.70
 1184.91        2969.75           1486       21230.00     92770.49
 1184.94        2970.00           1489       19928.00     87064.08
 1184.97        2970.25           1492       18478.00     80711.32
 1185.00        2970.50           1496       16362.00     71445.04
 1185.03        2970.75           1499       14779.00     64516.21
 1185.06        2971.00           1502       13221.00     57699.62
 1185.09        2971.25           1506       11298.00     49289.92
 1185.13        2971.50           1509        9897.00     43165.72
 1185.16        2971.75           1513        7977.00     34776.45
 1185.19        2972.00           1516        6532.00     28465.45
 1185.22        2972.25           1519        5200.00     22650.09
 1185.25        2972.50           1523        3199.00     13917.75
 1185.28        2972.75           1526        1811.00      7863.23
 1185.31        2973.00           1529         763.00      3293.26
 1185.34        2973.25           1533         395.00      1688.84
 1185.37        2973.50           1536         306.00      1300.84
 1185.41        2973.75           1539         261.00      1104.66
 1185.44        2974.00           1543         215.00       904.12
 1185.47        2974.25           1546         154.00       638.20
 1185.50        2974.50           1549         121.00       494.34
 1185.53        2974.75           1553          89.00       354.84
 1185.56        2975.00           1556          70.00       272.02
 1185.59        2975.25           1559          61.00       232.78
 1185.62        2975.50           1563          70.00       272.02
 1185.65        2975.75           1566          61.00       232.78
 1185.68        2976.00           1569          60.00       228.42
 1185.71        2976.25           1573          53.00       197.91
 1185.74        2976.50           1576          53.00       197.91
 1185.78        2976.75           1579          62.00       237.14
 1185.81        2977.00           1583          56.00       210.99
 1185.84        2977.25           1586          55.00       206.63
 1185.87        2977.50           1590          55.00       206.63
 1185.90        2977.75           1593          52.00       193.55
 1185.93        2978.00           1596          55.00       206.63
 1185.96        2978.25           1600          53.00       197.91
 1185.99        2978.50           1603          56.00       210.99
 1186.02        2978.75           1606          60.00       228.42
 1186.05        2979.00           1610          49.00       180.47
 1186.08        2979.25           1613          50.00       184.83
 1186.11        2979.50           1616          54.00       202.27
 1186.14        2979.75           1620          53.00       197.91
 1186.18        2980.00           1623          59.00       224.06
 1186.21        2980.25           1626          52.00       193.55
 1186.24        2980.50           1630          57.00       215.35
 1186.27        2980.75           1633          62.00       237.14
 1186.30        2981.00           1637          57.00       215.35
 1186.33        2981.25           1640          56.00       210.99
 1186.36        2981.50           1643          58.00       219.71
 1186.39        2981.75           1647          59.00       224.06
 1186.42        2982.00           1650          49.00       180.47
 1186.45        2982.25           1653          54.00       202.27
 1186.48        2982.50           1657          50.00       184.83
 1186.51        2982.75           1660          55.00       206.63
 1186.55        2983.00           1663          58.00       219.71
 1186.58        2983.25           1667          52.00       193.55
 1186.61        2983.50           1670          57.00       215.35
 1186.64        2983.75           1673          53.00       197.91
 1186.67        2984.00           1677          64.00       245.86
HS scan finished at 19:46:53
end
