************************************************************
  HS Scan of (1) Internal mercury lamp
************************************************************
Integration time is 0.2294 seconds per sample
dh070419Manchester 53.47 2.23 2.804185pr1000
************************************************************
Dead Time -------------------------  3E-08 
Number of Cycles Used -------------  4 
Starting Wavelength (Angstroms) ---  2950 
Final Wavelength (Angstoms) -------  2984 
Wavelength Increment (Angstroms) --  .25 
Filter Wheel #1 Position ---------- (1) Ground quartz diffuser (ND=2.32)
Filter Wheel #2 Position ---------- (1) Neutral Density 0.494



************************************************************
HS scan start time = 01:25:36
Dark Count =  4.5 


Time (GMT)  Wavelength (Ang)  Step Number  Raw Counts  Counts/Second

   85.97        2950.00           1222          64.00       259.37
   86.04        2950.25           1226          64.00       259.37
   86.07        2950.50           1229          56.00       224.50
   86.10        2950.75           1232          57.00       228.86
   86.13        2951.00           1236          54.00       215.78
   86.16        2951.25           1239          53.00       211.42
   86.19        2951.50           1242          62.00       250.66
   86.23        2951.75           1246          47.00       185.27
   86.26        2952.00           1249          55.00       220.14
   86.29        2952.25           1252          61.00       246.30
   86.32        2952.50           1256          55.00       220.14
   86.35        2952.75           1259          55.00       220.14
   86.38        2953.00           1262          58.00       233.22
   86.41        2953.25           1266          56.00       224.50
   86.44        2953.50           1269          56.00       224.50
   86.47        2953.75           1272          59.00       237.58
   86.50        2954.00           1276          56.00       224.50
   86.53        2954.25           1279          55.00       220.14
   86.56        2954.50           1282          53.00       211.42
   86.59        2954.75           1286          51.00       202.70
   86.63        2955.00           1289          49.00       193.99
   86.66        2955.25           1292          61.00       246.30
   86.69        2955.50           1296          54.00       215.78
   86.72        2955.75           1299          51.00       202.70
   86.75        2956.00           1302          58.00       233.22
   86.78        2956.25           1306          52.00       207.06
   86.81        2956.50           1309          59.00       237.58
   86.84        2956.75           1312          62.00       250.66
   86.87        2957.00           1316          59.00       237.58
   86.90        2957.25           1319          58.00       233.22
   86.93        2957.50           1322          57.00       228.86
   86.97        2957.75           1326          55.00       220.14
   87.00        2958.00           1329          46.00       180.91
   87.03        2958.25           1332          54.00       215.78
   87.06        2958.50           1336          58.00       233.22
   87.09        2958.75           1339          53.00       211.42
   87.12        2959.00           1342          47.00       185.27
   87.15        2959.25           1346          61.00       246.30
   87.18        2959.50           1349          71.00       289.89
   87.21        2959.75           1352          80.00       329.12
   87.24        2960.00           1356          99.00       411.95
   87.27        2960.25           1359         128.00       538.37
   87.30        2960.50           1362         148.00       625.56
   87.33        2960.75           1366         201.00       856.60
   87.37        2961.00           1369         228.00       974.31
   87.40        2961.25           1372         273.00      1170.49
   87.43        2961.50           1376         311.00      1336.15
   87.46        2961.75           1379         388.00      1671.84
   87.49        2962.00           1382         717.00      3106.22
   87.52        2962.25           1386        1863.00      8103.54
   87.55        2962.50           1389        3003.00     13076.18
   87.58        2962.75           1392        4239.00     18469.25
   87.61        2963.00           1396        5896.00     25702.03
   87.64        2963.25           1399        7018.00     30601.32
   87.67        2963.50           1402        8276.00     36096.17
   87.70        2963.75           1406        9905.00     43214.23
   87.73        2964.00           1409       11089.00     48389.73
   87.76        2964.25           1412       12434.00     54270.94
   87.80        2964.50           1416       14095.00     61536.78
   87.83        2964.75           1419       15311.00     66858.03
   87.86        2965.00           1422       16650.00     72719.50
   87.89        2965.25           1426       18339.00     80116.05
   87.92        2965.50           1429       19498.00     85193.49
   87.95        2965.75           1432       20692.00     90425.88
   87.98        2966.00           1436       22485.00     98286.33
   88.01        2966.25           1439       23583.00    103101.80
   88.04        2966.50           1442       24792.00    108405.60
   88.08        2966.75           1446       25961.00    113535.60
   88.11        2967.00           1449       26833.00    117363.20
   88.14        2967.25           1452       26839.00    117389.60
   88.17        2967.50           1456       26839.00    117389.60
   88.20        2967.75           1459       26908.00    117692.50
   88.23        2968.00           1462       26741.00    116959.40
   88.26        2968.25           1466       26323.00    115124.50
   88.29        2968.50           1469       25395.00    111051.60
   88.32        2968.75           1472       24330.00    106378.60
   88.36        2969.00           1476       22566.00     98641.52
   88.39        2969.25           1479       21532.00     94107.94
   88.42        2969.50           1482       20167.00     88125.00
   88.45        2969.75           1486       18598.00     81250.56
   88.48        2970.00           1489       17505.00     76463.35
   88.51        2970.25           1492       16277.00     71086.49
   88.54        2970.50           1496       14497.00     63295.75
   88.57        2970.75           1499       13231.00     57756.93
   88.60        2971.00           1502       11960.00     52198.07
   88.64        2971.25           1506       10252.00     44730.87
   88.67        2971.50           1509        8970.00     39128.30
   88.70        2971.75           1513        7404.00     32287.15
   88.73        2972.00           1516        6281.00     27382.99
   88.76        2972.25           1519        5088.00     22174.73
   88.79        2972.50           1523        3544.00     15436.53
   88.82        2972.75           1526        2302.00     10018.27
   88.85        2973.00           1529        1155.00      5016.01
   88.88        2973.25           1533         417.00      1798.27
   88.92        2973.50           1536         271.00      1161.77
   88.95        2973.75           1539         224.00       956.87
   88.98        2974.00           1543         192.00       817.37
   89.01        2974.25           1546         142.00       599.40
   89.04        2974.50           1549         112.00       468.62
   89.07        2974.75           1553          83.00       342.20
   89.10        2975.00           1556          68.00       276.81
   89.13        2975.25           1559          56.00       224.50
   89.16        2975.50           1563          50.00       198.34
   89.19        2975.75           1566          56.00       224.50
   89.23        2976.00           1569          54.00       215.78
   89.26        2976.25           1573          52.00       207.06
   89.29        2976.50           1576          57.00       228.86
   89.32        2976.75           1579          54.00       215.78
   89.35        2977.00           1583          49.00       193.99
   89.38        2977.25           1586          56.00       224.50
   89.41        2977.50           1590          51.00       202.70
   89.44        2977.75           1593          50.00       198.34
   89.47        2978.00           1596          63.00       255.02
   89.50        2978.25           1600          46.00       180.91
   89.53        2978.50           1603          52.00       207.06
   89.57        2978.75           1606          57.00       228.86
   89.60        2979.00           1610          56.00       224.50
   89.63        2979.25           1613          46.00       180.91
   89.66        2979.50           1616          52.00       207.06
   89.69        2979.75           1620          62.00       250.66
   89.72        2980.00           1623          53.00       211.42
   89.75        2980.25           1626          55.00       220.14
   89.78        2980.50           1630          56.00       224.50
   89.81        2980.75           1633          48.00       189.63
   89.84        2981.00           1637          47.00       185.27
   89.88        2981.25           1640          48.00       189.63
   89.91        2981.50           1643          53.00       211.42
   89.94        2981.75           1647          49.00       193.99
   89.97        2982.00           1650          56.00       224.50
   90.00        2982.25           1653          44.00       172.19
   90.03        2982.50           1657          45.00       176.55
   90.06        2982.75           1660          57.00       228.86
   90.09        2983.00           1663          49.00       193.99
   90.12        2983.25           1667          43.00       167.83
   90.15        2983.50           1670          44.00       172.19
   90.18        2983.75           1673          49.00       193.99
   90.22        2984.00           1677          51.00       202.70
HS scan finished at 01:30:26
end
************************************************************
  HS Scan of (1) Internal mercury lamp
************************************************************
Integration time is 0.2294 seconds per sample
dh070419Manchester 53.47 2.23 2.804185pr1000
************************************************************
Dead Time -------------------------  3E-08 
Number of Cycles Used -------------  4 
Starting Wavelength (Angstroms) ---  2950 
Final Wavelength (Angstoms) -------  2984 
Wavelength Increment (Angstroms) --  .25 
Filter Wheel #1 Position ---------- (1) Ground quartz diffuser (ND=2.32)
Filter Wheel #2 Position ---------- (1) Neutral Density 0.494



************************************************************
HS scan start time = 19:43:24
Dark Count =  5.3 


Time (GMT)  Wavelength (Ang)  Step Number  Raw Counts  Counts/Second

 1183.77        2950.00           1222          55.00       216.65
 1183.84        2950.25           1226          56.00       221.01
 1183.87        2950.50           1229          61.00       242.81
 1183.90        2950.75           1232          57.00       225.37
 1183.93        2951.00           1236          60.00       238.45
 1183.96        2951.25           1239          51.00       199.22
 1183.99        2951.50           1242          54.00       212.29
 1184.02        2951.75           1246          56.00       221.01
 1184.05        2952.00           1249          55.00       216.65
 1184.08        2952.25           1252          58.00       229.73
 1184.11        2952.50           1256          48.00       186.14
 1184.15        2952.75           1259          61.00       242.81
 1184.18        2953.00           1262          66.00       264.61
 1184.21        2953.25           1266          59.00       234.09
 1184.24        2953.50           1269          54.00       212.29
 1184.27        2953.75           1272          59.00       234.09
 1184.30        2954.00           1276          67.00       268.96
 1184.33        2954.25           1279          60.00       238.45
 1184.36        2954.50           1282          60.00       238.45
 1184.39        2954.75           1286          53.00       207.94
 1184.42        2955.00           1289          55.00       216.65
 1184.45        2955.25           1292          58.00       229.73
 1184.48        2955.50           1296          51.00       199.22
 1184.52        2955.75           1299          51.00       199.22
 1184.55        2956.00           1302          51.00       199.22
 1184.58        2956.25           1306          49.00       190.50
 1184.61        2956.50           1309          64.00       255.89
 1184.64        2956.75           1312          55.00       216.65
 1184.67        2957.00           1316          50.00       194.86
 1184.70        2957.25           1319          53.00       207.94
 1184.73        2957.50           1322          55.00       216.65
 1184.76        2957.75           1326          53.00       207.94
 1184.79        2958.00           1329          53.00       207.94
 1184.82        2958.25           1332          54.00       212.29
 1184.86        2958.50           1336          58.00       229.73
 1184.89        2958.75           1339          55.00       216.65
 1184.92        2959.00           1342          49.00       190.50
 1184.95        2959.25           1346          51.00       199.22
 1184.98        2959.50           1349          72.00       290.76
 1185.01        2959.75           1352          74.00       299.48
 1185.04        2960.00           1356          79.00       321.28
 1185.07        2960.25           1359         104.00       430.26
 1185.10        2960.50           1362         144.00       604.63
 1185.13        2960.75           1366         183.00       774.65
 1185.16        2961.00           1369         213.00       905.43
 1185.20        2961.25           1372         245.00      1044.93
 1185.23        2961.50           1376         291.00      1245.47
 1185.26        2961.75           1379         358.00      1537.56
 1185.29        2962.00           1382         544.00      2348.47
 1185.32        2962.25           1386        1429.00      6207.35
 1185.35        2962.50           1389        2653.00     11545.85
 1185.38        2962.75           1392        3849.00     16763.88
 1185.41        2963.00           1396        5507.00     24000.27
 1185.44        2963.25           1399        6644.00     28964.57
 1185.47        2963.50           1402        7777.00     33912.86
 1185.50        2963.75           1406        9561.00     41707.35
 1185.54        2964.00           1409       10862.00     47393.85
 1185.57        2964.25           1412       11952.00     52159.59
 1185.60        2964.50           1416       13682.00     59726.37
 1185.63        2964.75           1419       15027.00     65611.59
 1185.66        2965.00           1422       16268.00     71043.59
 1185.69        2965.25           1426       17981.00     78544.50
 1185.72        2965.50           1429       19242.00     84068.34
 1185.75        2965.75           1432       20286.00     88642.99
 1185.78        2966.00           1436       22253.00     97265.52
 1185.81        2966.25           1439       23327.00    101975.40
 1185.84        2966.50           1442       24592.00    107524.60
 1185.88        2966.75           1446       25877.00    113163.40
 1185.91        2967.00           1449       26448.00    115669.70
 1185.94        2967.25           1452       26645.00    116534.40
 1185.97        2967.50           1456       26838.00    117381.70
 1186.00        2967.75           1459       26619.00    116420.30
 1186.03        2968.00           1462       26615.00    116402.70
 1186.06        2968.25           1466       26255.00    114822.50
 1186.09        2968.50           1469       25236.00    110350.30
 1186.12        2968.75           1472       24089.00    105317.90
 1186.15        2969.00           1476       22605.00     98809.02
 1186.19        2969.25           1479       21413.00     93582.77
 1186.22        2969.50           1482       20179.00     88174.08
 1186.25        2969.75           1486       18573.00     81137.54
 1186.28        2970.00           1489       17417.00     76074.47
 1186.31        2970.25           1492       16157.00     70557.66
 1186.34        2970.50           1496       14568.00     63602.94
 1186.37        2970.75           1499       13441.00     58672.06
 1186.40        2971.00           1502       12230.00     53375.29
 1186.43        2971.25           1506       10680.00     46598.23
 1186.47        2971.50           1509        9250.00     40348.29
 1186.50        2971.75           1513        7747.00     33781.83
 1186.53        2972.00           1516        6538.00     28501.70
 1186.56        2972.25           1519        5226.00     22773.62
 1186.59        2972.50           1523        3731.00     16248.98
 1186.62        2972.75           1526        2519.00     10961.32
 1186.65        2973.00           1529        1370.00      5950.06
 1186.68        2973.25           1533         480.00      2069.44
 1186.71        2973.50           1536         291.00      1245.47
 1186.75        2973.75           1539         242.00      1031.85
 1186.78        2974.00           1543         190.00       805.16
 1186.81        2974.25           1546         157.00       661.30
 1186.84        2974.50           1549         112.00       465.13
 1186.87        2974.75           1553          74.00       299.48
 1186.90        2975.00           1556          55.00       216.65
 1186.93        2975.25           1559          60.00       238.45
 1186.96        2975.50           1563          56.00       221.01
 1186.99        2975.75           1566          54.00       212.29
 1187.02        2976.00           1569          58.00       229.73
 1187.06        2976.25           1573          53.00       207.94
 1187.09        2976.50           1576          54.00       212.29
 1187.12        2976.75           1579          63.00       251.53
 1187.15        2977.00           1583          50.00       194.86
 1187.18        2977.25           1586          51.00       199.22
 1187.21        2977.50           1590          53.00       207.94
 1187.24        2977.75           1593          47.00       181.78
 1187.27        2978.00           1596          51.00       199.22
 1187.30        2978.25           1600          49.00       190.50
 1187.33        2978.50           1603          54.00       212.29
 1187.37        2978.75           1606          49.00       190.50
 1187.40        2979.00           1610          49.00       190.50
 1187.43        2979.25           1613          43.00       164.34
 1187.46        2979.50           1616          54.00       212.29
 1187.49        2979.75           1620          52.00       203.58
 1187.52        2980.00           1623          53.00       207.94
 1187.55        2980.25           1626          51.00       199.22
 1187.58        2980.50           1630          62.00       247.17
 1187.61        2980.75           1633          49.00       190.50
 1187.64        2981.00           1637          54.00       212.29
 1187.67        2981.25           1640          42.00       159.98
 1187.70        2981.50           1643          58.00       229.73
 1187.73        2981.75           1647          52.00       203.58
 1187.77        2982.00           1650          49.00       190.50
 1187.80        2982.25           1653          55.00       216.65
 1187.83        2982.50           1657          51.00       199.22
 1187.86        2982.75           1660          57.00       225.37
 1187.89        2983.00           1663          53.00       207.94
 1187.92        2983.25           1667          48.00       186.14
 1187.95        2983.50           1670          55.00       216.65
 1187.98        2983.75           1673          48.00       186.14
 1188.01        2984.00           1677          45.00       173.06
HS scan finished at 19:48:14
end
