************************************************************
  HS Scan of (1) Internal mercury lamp
************************************************************
Integration time is 0.2294 seconds per sample
dh090419Manchester 53.47 2.23 2.804185pr1000
************************************************************
Dead Time -------------------------  3E-08 
Number of Cycles Used -------------  4 
Starting Wavelength (Angstroms) ---  2950 
Final Wavelength (Angstoms) -------  2984 
Wavelength Increment (Angstroms) --  .25 
Filter Wheel #1 Position ---------- (1) Ground quartz diffuser (ND=2.32)
Filter Wheel #2 Position ---------- (1) Neutral Density 0.494



************************************************************
HS scan start time = 01:37:31
Dark Count =  6.2 


Time (GMT)  Wavelength (Ang)  Step Number  Raw Counts  Counts/Second

   97.88        2950.00           1222          53.00       204.01
   97.95        2950.25           1226          64.00       251.96
   97.98        2950.50           1229          58.00       225.81
   98.01        2950.75           1232          59.00       230.17
   98.04        2951.00           1236          59.00       230.17
   98.08        2951.25           1239          58.00       225.81
   98.11        2951.50           1242          68.00       269.40
   98.14        2951.75           1246          60.00       234.53
   98.17        2952.00           1249          57.00       221.45
   98.20        2952.25           1252          56.00       217.09
   98.23        2952.50           1256          57.00       221.45
   98.26        2952.75           1259          64.00       251.96
   98.29        2953.00           1262          51.00       195.29
   98.32        2953.25           1266          49.00       186.57
   98.35        2953.50           1269          55.00       212.73
   98.38        2953.75           1272          51.00       195.29
   98.42        2954.00           1276          58.00       225.81
   98.45        2954.25           1279          58.00       225.81
   98.48        2954.50           1282          57.00       221.45
   98.51        2954.75           1286          54.00       208.37
   98.54        2955.00           1289          66.00       260.68
   98.57        2955.25           1292          51.00       195.29
   98.60        2955.50           1296          57.00       221.45
   98.63        2955.75           1299          56.00       217.09
   98.66        2956.00           1302          57.00       221.45
   98.69        2956.25           1306          54.00       208.37
   98.72        2956.50           1309          62.00       243.25
   98.75        2956.75           1312          55.00       212.73
   98.78        2957.00           1316          52.00       199.65
   98.81        2957.25           1319          59.00       230.17
   98.84        2957.50           1322          60.00       234.53
   98.88        2957.75           1326          52.00       199.65
   98.91        2958.00           1329          56.00       217.09
   98.94        2958.25           1332          54.00       208.37
   98.97        2958.50           1336          58.00       225.81
   99.00        2958.75           1339          57.00       221.45
   99.03        2959.00           1342          57.00       221.45
   99.06        2959.25           1346          57.00       221.45
   99.09        2959.50           1349          58.00       225.81
   99.12        2959.75           1352          74.00       295.56
   99.15        2960.00           1356          99.00       404.54
   99.18        2960.25           1359         120.00       496.08
   99.21        2960.50           1362         158.00       661.74
   99.24        2960.75           1366         195.00       823.04
   99.28        2961.00           1369         234.00       993.05
   99.31        2961.25           1372         287.00      1224.11
   99.34        2961.50           1376         396.00      1699.30
   99.37        2961.75           1379         779.00      3369.13
   99.40        2962.00           1382        1705.00      7407.05
   99.43        2962.25           1386        3229.00     14054.75
   99.46        2962.50           1389        4363.00     19002.99
   99.49        2962.75           1392        5603.00     24415.44
   99.52        2963.00           1396        7280.00     31738.14
   99.55        2963.25           1399        8566.00     37355.70
   99.58        2963.50           1402        9843.00     42935.83
   99.62        2963.75           1406       11395.00     49720.15
   99.65        2964.00           1409       12806.00     55890.50
   99.68        2964.25           1412       13947.00     60881.80
   99.71        2964.50           1416       15740.00     68728.31
   99.74        2964.75           1419       16894.00     73780.40
   99.77        2965.00           1422       18135.00     79215.06
   99.80        2965.25           1426       19712.00     86123.72
   99.83        2965.50           1429       21160.00     92469.78
   99.86        2965.75           1432       22339.00     97638.69
   99.89        2966.00           1436       24023.00    105024.40
   99.92        2966.25           1439       25165.00    110034.80
   99.96        2966.50           1442       26078.00    114041.60
   99.99        2966.75           1446       26630.00    116464.60
  100.02        2967.00           1449       26636.00    116491.00
  100.05        2967.25           1452       26531.00    116030.10
  100.08        2967.50           1456       26639.00    116504.20
  100.11        2967.75           1459       26366.00    115305.80
  100.14        2968.00           1462       26059.00    113958.30
  100.17        2968.25           1466       24563.00    107393.40
  100.20        2968.50           1469       23431.00    102427.60
  100.24        2968.75           1472       22152.00     96818.74
  100.27        2969.00           1476       20653.00     90247.50
  100.30        2969.25           1479       19506.00     85221.09
  100.33        2969.50           1482       18009.00     78663.20
  100.36        2969.75           1486       16437.00     71779.52
  100.39        2970.00           1489       15254.00     66601.12
  100.42        2970.25           1492       14041.00     61293.08
  100.45        2970.50           1496       12497.00     54539.03
  100.48        2970.75           1499       11355.00     49545.26
  100.52        2971.00           1502       10178.00     44399.99
  100.55        2971.25           1506        8405.00     36652.31
  100.58        2971.50           1509        7155.00     31192.21
  100.61        2971.75           1513        5497.00     23952.69
  100.64        2972.00           1516        4175.00     18182.54
  100.67        2972.25           1519        3048.00     13265.09
  100.70        2972.50           1523        1528.00      6635.15
  100.73        2972.75           1526         757.00      3273.21
  100.77        2973.00           1529         417.00      1790.85
  100.80        2973.25           1533         303.00      1293.86
  100.83        2973.50           1536         247.00      1049.73
  100.86        2973.75           1539         212.00       897.15
  100.89        2974.00           1543         186.00       783.80
  100.92        2974.25           1546         132.00       548.40
  100.95        2974.50           1549         105.00       430.69
  100.98        2974.75           1553          79.00       317.35
  101.01        2975.00           1556          62.00       243.25
  101.04        2975.25           1559          58.00       225.81
  101.07        2975.50           1563          54.00       208.37
  101.11        2975.75           1566          48.00       182.22
  101.14        2976.00           1569          53.00       204.01
  101.17        2976.25           1573          48.00       182.22
  101.20        2976.50           1576          50.00       190.93
  101.23        2976.75           1579          58.00       225.81
  101.26        2977.00           1583          58.00       225.81
  101.29        2977.25           1586          50.00       190.93
  101.32        2977.50           1590          44.00       164.78
  101.35        2977.75           1593          56.00       217.09
  101.38        2978.00           1596          54.00       208.37
  101.41        2978.25           1600          54.00       208.37
  101.44        2978.50           1603          53.00       204.01
  101.48        2978.75           1606          46.00       173.50
  101.51        2979.00           1610          48.00       182.22
  101.54        2979.25           1613          52.00       199.65
  101.57        2979.50           1616          54.00       208.37
  101.60        2979.75           1620          46.00       173.50
  101.63        2980.00           1623          46.00       173.50
  101.66        2980.25           1626          47.00       177.86
  101.69        2980.50           1630          51.00       195.29
  101.72        2980.75           1633          48.00       182.22
  101.75        2981.00           1637          54.00       208.37
  101.78        2981.25           1640          56.00       217.09
  101.81        2981.50           1643          58.00       225.81
  101.85        2981.75           1647          52.00       199.65
  101.88        2982.00           1650          51.00       195.29
  101.91        2982.25           1653          55.00       212.73
  101.94        2982.50           1657          55.00       212.73
  101.97        2982.75           1660          51.00       195.29
  102.00        2983.00           1663          47.00       177.86
  102.03        2983.25           1667          50.00       190.93
  102.06        2983.50           1670          53.00       204.01
  102.09        2983.75           1673          57.00       221.45
  102.12        2984.00           1677          54.00       208.37
HS scan finished at 01:42:20
end
************************************************************
  HS Scan of (1) Internal mercury lamp
************************************************************
Integration time is 0.2294 seconds per sample
dh090419Manchester 53.47 2.23 2.804185pr1000
************************************************************
Dead Time -------------------------  3E-08 
Number of Cycles Used -------------  4 
Starting Wavelength (Angstroms) ---  2950 
Final Wavelength (Angstoms) -------  2984 
Wavelength Increment (Angstroms) --  .25 
Filter Wheel #1 Position ---------- (1) Ground quartz diffuser (ND=2.32)
Filter Wheel #2 Position ---------- (1) Neutral Density 0.494



************************************************************
HS scan start time = 20:12:15
Dark Count =  6.2 


Time (GMT)  Wavelength (Ang)  Step Number  Raw Counts  Counts/Second

 1212.62        2950.00           1222          52.00       199.65
 1212.69        2950.25           1226          47.00       177.86
 1212.72        2950.50           1229          59.00       230.17
 1212.75        2950.75           1232          59.00       230.17
 1212.78        2951.00           1236          56.00       217.09
 1212.81        2951.25           1239          61.00       238.89
 1212.84        2951.50           1242          50.00       190.93
 1212.87        2951.75           1246          56.00       217.09
 1212.90        2952.00           1249          53.00       204.01
 1212.93        2952.25           1252          54.00       208.37
 1212.96        2952.50           1256          54.00       208.37
 1212.99        2952.75           1259          50.00       190.93
 1213.02        2953.00           1262          55.00       212.73
 1213.06        2953.25           1266          50.00       190.93
 1213.09        2953.50           1269          53.00       204.01
 1213.12        2953.75           1272          50.00       190.93
 1213.15        2954.00           1276          55.00       212.73
 1213.18        2954.25           1279          59.00       230.17
 1213.21        2954.50           1282          51.00       195.29
 1213.24        2954.75           1286          49.00       186.57
 1213.27        2955.00           1289          58.00       225.81
 1213.30        2955.25           1292          50.00       190.93
 1213.33        2955.50           1296          56.00       217.09
 1213.36        2955.75           1299          55.00       212.73
 1213.39        2956.00           1302          56.00       217.09
 1213.43        2956.25           1306          48.00       182.22
 1213.46        2956.50           1309          52.00       199.65
 1213.49        2956.75           1312          50.00       190.93
 1213.52        2957.00           1316          61.00       238.89
 1213.55        2957.25           1319          51.00       195.29
 1213.58        2957.50           1322          57.00       221.45
 1213.61        2957.75           1326          52.00       199.65
 1213.64        2958.00           1329          54.00       208.37
 1213.67        2958.25           1332          56.00       217.09
 1213.70        2958.50           1336          53.00       204.01
 1213.73        2958.75           1339          54.00       208.37
 1213.77        2959.00           1342          60.00       234.53
 1213.80        2959.25           1346          62.00       243.25
 1213.83        2959.50           1349          59.00       230.17
 1213.86        2959.75           1352          87.00       352.23
 1213.89        2960.00           1356         110.00       452.49
 1213.92        2960.25           1359         151.00       631.22
 1213.95        2960.50           1362         164.00       687.90
 1213.98        2960.75           1366         213.00       901.51
 1214.01        2961.00           1369         258.00      1097.68
 1214.04        2961.25           1372         291.00      1241.55
 1214.07        2961.50           1376         358.00      1533.64
 1214.10        2961.75           1379         466.00      2004.48
 1214.13        2962.00           1382        1003.00      4345.82
 1214.17        2962.25           1386        2357.00     10250.75
 1214.20        2962.50           1389        3591.00     15634.18
 1214.23        2962.75           1392        4675.00     20364.66
 1214.26        2963.00           1396        6253.00     27253.31
 1214.29        2963.25           1399        7460.00     32524.31
 1214.32        2963.50           1402        8725.00     38050.39
 1214.35        2963.75           1406       10388.00     45317.89
 1214.38        2964.00           1409       11772.00     51368.55
 1214.41        2964.25           1412       12999.00     56734.67
 1214.45        2964.50           1416       14611.00     63787.17
 1214.48        2964.75           1419       15892.00     69393.66
 1214.51        2965.00           1422       17080.00     74594.82
 1214.54        2965.25           1426       18706.00     81716.22
 1214.57        2965.50           1429       19971.00     87258.65
 1214.60        2965.75           1432       21023.00     91869.25
 1214.63        2966.00           1436       22754.00     99458.49
 1214.66        2966.25           1439       23822.00    104142.70
 1214.69        2966.50           1442       25068.00    109609.20
 1214.73        2966.75           1446       26318.00    115095.10
 1214.76        2967.00           1449       26547.00    116100.30
 1214.79        2967.25           1452       26606.00    116359.30
 1214.82        2967.50           1456       26618.00    116412.00
 1214.85        2967.75           1459       26456.00    115700.80
 1214.88        2968.00           1462       26455.00    115696.50
 1214.91        2968.25           1466       25754.00    112619.60
 1214.94        2968.50           1469       24610.00    107599.60
 1214.97        2968.75           1472       23681.00    103524.20
 1215.00        2969.00           1476       21994.00     96125.99
 1215.04        2969.25           1479       20838.00     91058.36
 1215.07        2969.50           1482       19352.00     84546.35
 1215.10        2969.75           1486       17869.00     78050.03
 1215.13        2970.00           1489       16574.00     72379.32
 1215.16        2970.25           1492       15373.00     67121.95
 1215.19        2970.50           1496       13871.00     60549.30
 1215.22        2970.75           1499       12548.00     54762.08
 1215.25        2971.00           1502       11340.00     49479.67
 1215.28        2971.25           1506        9717.00     42385.16
 1215.32        2971.50           1509        8515.00     37132.89
 1215.35        2971.75           1513        6863.00     29916.99
 1215.38        2972.00           1516        5588.00     24349.95
 1215.41        2972.25           1519        4331.00     18863.33
 1215.44        2972.50           1523        2759.00     12004.32
 1215.47        2972.75           1526        1598.00      6940.42
 1215.50        2973.00           1529         676.00      2920.05
 1215.53        2973.25           1533         311.00      1328.74
 1215.56        2973.50           1536         261.00      1110.76
 1215.59        2973.75           1539         219.00       927.66
 1215.62        2974.00           1543         168.00       705.33
 1215.66        2974.25           1546         117.00       483.01
 1215.69        2974.50           1549          95.00       387.10
 1215.72        2974.75           1553          69.00       273.76
 1215.75        2975.00           1556          55.00       212.73
 1215.78        2975.25           1559          60.00       234.53
 1215.81        2975.50           1563          56.00       217.09
 1215.84        2975.75           1566          50.00       190.93
 1215.87        2976.00           1569          60.00       234.53
 1215.90        2976.25           1573          56.00       217.09
 1215.93        2976.50           1576          57.00       221.45
 1215.97        2976.75           1579          53.00       204.01
 1216.00        2977.00           1583          61.00       238.89
 1216.03        2977.25           1586          46.00       173.50
 1216.06        2977.50           1590          50.00       190.93
 1216.09        2977.75           1593          57.00       221.45
 1216.12        2978.00           1596          53.00       204.01
 1216.15        2978.25           1600          43.00       160.42
 1216.18        2978.50           1603          44.00       164.78
 1216.21        2978.75           1606          54.00       208.37
 1216.24        2979.00           1610          47.00       177.86
 1216.28        2979.25           1613          49.00       186.57
 1216.31        2979.50           1616          51.00       195.29
 1216.34        2979.75           1620          52.00       199.65
 1216.37        2980.00           1623          52.00       199.65
 1216.40        2980.25           1626          50.00       190.93
 1216.43        2980.50           1630          47.00       177.86
 1216.46        2980.75           1633          48.00       182.22
 1216.49        2981.00           1637          49.00       186.57
 1216.52        2981.25           1640          53.00       204.01
 1216.55        2981.50           1643          56.00       217.09
 1216.58        2981.75           1647          52.00       199.65
 1216.61        2982.00           1650          55.00       212.73
 1216.64        2982.25           1653          52.00       199.65
 1216.68        2982.50           1657          54.00       208.37
 1216.71        2982.75           1660          48.00       182.22
 1216.74        2983.00           1663          52.00       199.65
 1216.77        2983.25           1667          52.00       199.65
 1216.80        2983.50           1670          66.00       260.68
 1216.83        2983.75           1673          43.00       160.42
 1216.86        2984.00           1677          51.00       195.29
HS scan finished at 20:17:05
end
