************************************************************
  HS Scan of (1) Internal mercury lamp
************************************************************
Integration time is 0.2294 seconds per sample
dh050418Manchester 53.47 2.23 2.750537pr1000
************************************************************
Dead Time -------------------------  3E-08 
Number of Cycles Used -------------  4 
Starting Wavelength (Angstroms) ---  2950 
Final Wavelength (Angstoms) -------  2984 
Wavelength Increment (Angstroms) --  .25 
Filter Wheel #1 Position ---------- (1) Ground quartz diffuser (ND=2.32)
Filter Wheel #2 Position ---------- (1) Neutral Density 0.494



************************************************************
HS scan start time = 02:16:08
Dark Count =  7.9 


Time (GMT)  Wavelength (Ang)  Step Number  Raw Counts  Counts/Second

  136.51        2950.00           1222          53.00       196.60
  136.57        2950.25           1226          61.00       231.48
  136.60        2950.50           1229          59.00       222.76
  136.63        2950.75           1232          54.00       200.96
  136.67        2951.00           1236          61.00       231.48
  136.70        2951.25           1239          50.00       183.52
  136.73        2951.50           1242          52.00       192.24
  136.76        2951.75           1246          65.00       248.91
  136.79        2952.00           1249          54.00       200.96
  136.82        2952.25           1252          56.00       209.68
  136.85        2952.50           1256          49.00       179.16
  136.88        2952.75           1259          58.00       218.40
  136.91        2953.00           1262          64.00       244.55
  136.94        2953.25           1266          60.00       227.12
  136.97        2953.50           1269          57.00       214.04
  137.01        2953.75           1272          58.00       218.40
  137.04        2954.00           1276          65.00       248.91
  137.07        2954.25           1279          64.00       244.55
  137.10        2954.50           1282          52.00       192.24
  137.13        2954.75           1286          65.00       248.91
  137.16        2955.00           1289          62.00       235.83
  137.19        2955.25           1292          67.00       257.63
  137.22        2955.50           1296          57.00       214.04
  137.25        2955.75           1299          58.00       218.40
  137.28        2956.00           1302          61.00       231.48
  137.32        2956.25           1306          51.00       187.88
  137.35        2956.50           1309          56.00       209.68
  137.38        2956.75           1312          54.00       200.96
  137.41        2957.00           1316          61.00       231.48
  137.44        2957.25           1319          59.00       222.76
  137.47        2957.50           1322          66.00       253.27
  137.50        2957.75           1326          56.00       209.68
  137.53        2958.00           1329          57.00       214.04
  137.56        2958.25           1332          62.00       235.83
  137.59        2958.50           1336          56.00       209.68
  137.62        2958.75           1339          67.00       257.63
  137.65        2959.00           1342          54.00       200.96
  137.69        2959.25           1346          60.00       227.12
  137.72        2959.50           1349          78.00       305.58
  137.75        2959.75           1352          82.00       323.02
  137.78        2960.00           1356         110.00       445.08
  137.81        2960.25           1359         152.00       628.17
  137.84        2960.50           1362         186.00       776.39
  137.87        2960.75           1366         233.00       981.28
  137.90        2961.00           1369         288.00      1221.06
  137.93        2961.25           1372         321.00      1364.92
  137.96        2961.50           1376         366.00      1561.10
  137.99        2961.75           1379         591.00      2542.04
  138.02        2962.00           1382        1144.00      4953.22
  138.05        2962.25           1386        2714.00     11800.60
  138.09        2962.50           1389        4137.00     18009.29
  138.12        2962.75           1392        5540.00     24132.99
  138.15        2963.00           1396        7539.00     32861.94
  138.18        2963.25           1399        9065.00     39528.54
  138.21        2963.50           1402       10499.00     45795.66
  138.24        2963.75           1406       12600.00     54982.07
  138.27        2964.00           1409       14094.00     61517.53
  138.30        2964.25           1412       15562.00     67941.75
  138.34        2964.50           1416       17565.00     76711.21
  138.37        2964.75           1419       19141.00     83614.46
  138.40        2965.00           1422       20585.00     89942.01
  138.43        2965.25           1426       22506.00     98363.51
  138.46        2965.50           1429       24198.00    105784.60
  138.49        2965.75           1432       25534.00    111646.60
  138.52        2966.00           1436       27290.00    119354.70
  138.55        2966.25           1439       28789.00    125937.40
  138.58        2966.50           1442       30029.00    131384.80
  138.61        2966.75           1446       31555.00    138090.90
  138.64        2967.00           1449       32127.00    140605.40
  138.68        2967.25           1452       32163.00    140763.60
  138.71        2967.50           1456       32397.00    141792.40
  138.74        2967.75           1459       32132.00    140627.40
  138.77        2968.00           1462       32188.00    140873.50
  138.80        2968.25           1466       31109.00    136130.70
  138.83        2968.50           1469       29902.00    130826.80
  138.86        2968.75           1472       28657.00    125357.70
  138.89        2969.00           1476       26667.00    116619.60
  138.92        2969.25           1479       25376.00    110953.30
  138.95        2969.50           1482       23828.00    104161.50
  138.98        2969.75           1486       21934.00     95855.47
  139.02        2970.00           1489       20430.00     89262.69
  139.05        2970.25           1492       19030.00     83128.15
  139.08        2970.50           1496       16994.00     74210.81
  139.11        2970.75           1499       15343.00     66983.21
  139.14        2971.00           1502       13886.00     60607.48
  139.17        2971.25           1506       11782.00     51404.85
  139.20        2971.50           1509       10340.00     45100.65
  139.23        2971.75           1513        8622.00     37592.94
  139.26        2972.00           1516        6922.00     30167.22
  139.29        2972.25           1519        5650.00     24613.20
  139.33        2972.50           1523        3677.00     16002.01
  139.36        2972.75           1526        2140.00      9296.84
  139.39        2973.00           1529         984.00      4255.56
  139.42        2973.25           1533         395.00      1687.53
  139.45        2973.50           1536         306.00      1299.53
  139.48        2973.75           1539         244.00      1029.24
  139.51        2974.00           1543         196.00       819.99
  139.54        2974.25           1546         144.00       593.30
  139.57        2974.50           1549         120.00       488.67
  139.60        2974.75           1553          84.00       331.74
  139.63        2975.00           1556          59.00       222.76
  139.66        2975.25           1559          60.00       227.12
  139.70        2975.50           1563          56.00       209.68
  139.73        2975.75           1566          53.00       196.60
  139.76        2976.00           1569          55.00       205.32
  139.79        2976.25           1573          52.00       192.24
  139.82        2976.50           1576          62.00       235.83
  139.85        2976.75           1579          50.00       183.52
  139.88        2977.00           1583          59.00       222.76
  139.91        2977.25           1586          54.00       200.96
  139.94        2977.50           1590          63.00       240.19
  139.97        2977.75           1593          59.00       222.76
  140.00        2978.00           1596          52.00       192.24
  140.03        2978.25           1600          63.00       240.19
  140.07        2978.50           1603          56.00       209.68
  140.10        2978.75           1606          59.00       222.76
  140.13        2979.00           1610          52.00       192.24
  140.16        2979.25           1613          46.00       166.09
  140.19        2979.50           1616          55.00       205.32
  140.22        2979.75           1620          58.00       218.40
  140.25        2980.00           1623          50.00       183.52
  140.28        2980.25           1626          56.00       209.68
  140.31        2980.50           1630          60.00       227.12
  140.34        2980.75           1633          58.00       218.40
  140.37        2981.00           1637          61.00       231.48
  140.40        2981.25           1640          54.00       200.96
  140.43        2981.50           1643          49.00       179.16
  140.47        2981.75           1647          54.00       200.96
  140.50        2982.00           1650          60.00       227.12
  140.53        2982.25           1653          54.00       200.96
  140.56        2982.50           1657          54.00       200.96
  140.59        2982.75           1660          59.00       222.76
  140.62        2983.00           1663          46.00       166.09
  140.65        2983.25           1667          53.00       196.60
  140.68        2983.50           1670          51.00       187.88
  140.71        2983.75           1673          55.00       205.32
  140.74        2984.00           1677          59.00       222.76
HS scan finished at 02:20:58
end
************************************************************
  HS Scan of (1) Internal mercury lamp
************************************************************
Integration time is 0.2294 seconds per sample
dh050418Manchester 53.47 2.23 2.804185pr1000
************************************************************
Dead Time -------------------------  3E-08 
Number of Cycles Used -------------  4 
Starting Wavelength (Angstroms) ---  2950 
Final Wavelength (Angstoms) -------  2984 
Wavelength Increment (Angstroms) --  .25 
Filter Wheel #1 Position ---------- (1) Ground quartz diffuser (ND=2.32)
Filter Wheel #2 Position ---------- (1) Neutral Density 0.494



************************************************************
HS scan start time = 19:42:02
Dark Count =  5.9 


Time (GMT)  Wavelength (Ang)  Step Number  Raw Counts  Counts/Second

 1182.40        2950.00           1222          62.00       244.55
 1182.47        2950.25           1226          72.00       288.15
 1182.50        2950.50           1229          58.00       227.12
 1182.53        2950.75           1232          61.00       240.19
 1182.56        2951.00           1236          55.00       214.04
 1182.59        2951.25           1239          52.00       200.96
 1182.62        2951.50           1242          50.00       192.24
 1182.66        2951.75           1246          60.00       235.83
 1182.69        2952.00           1249          59.00       231.48
 1182.72        2952.25           1252          51.00       196.60
 1182.75        2952.50           1256          61.00       240.19
 1182.78        2952.75           1259          51.00       196.60
 1182.81        2953.00           1262          60.00       235.83
 1182.84        2953.25           1266          60.00       235.83
 1182.87        2953.50           1269          61.00       240.19
 1182.90        2953.75           1272          59.00       231.48
 1182.93        2954.00           1276          64.00       253.27
 1182.96        2954.25           1279          57.00       222.76
 1182.99        2954.50           1282          62.00       244.55
 1183.02        2954.75           1286          52.00       200.96
 1183.05        2955.00           1289          55.00       214.04
 1183.08        2955.25           1292          65.00       257.63
 1183.12        2955.50           1296          54.00       209.68
 1183.15        2955.75           1299          62.00       244.55
 1183.18        2956.00           1302          58.00       227.12
 1183.21        2956.25           1306          57.00       222.76
 1183.24        2956.50           1309          62.00       244.55
 1183.27        2956.75           1312          58.00       227.12
 1183.30        2957.00           1316          52.00       200.96
 1183.33        2957.25           1319          68.00       270.71
 1183.36        2957.50           1322          65.00       257.63
 1183.39        2957.75           1326          58.00       227.12
 1183.43        2958.00           1329          59.00       231.48
 1183.46        2958.25           1332          64.00       253.27
 1183.49        2958.50           1336          57.00       222.76
 1183.52        2958.75           1339          56.00       218.40
 1183.55        2959.00           1342          66.00       261.99
 1183.58        2959.25           1346          67.00       266.35
 1183.61        2959.50           1349          69.00       275.07
 1183.64        2959.75           1352          81.00       327.38
 1183.67        2960.00           1356         108.00       445.08
 1183.70        2960.25           1359         140.00       584.58
 1183.73        2960.50           1362         172.00       724.08
 1183.77        2960.75           1366         222.00       942.05
 1183.80        2961.00           1369         271.00      1155.66
 1183.83        2961.25           1372         296.00      1264.65
 1183.86        2961.50           1376         376.00      1613.42
 1183.89        2961.75           1379         567.00      2446.13
 1183.92        2962.00           1382        1221.00      5297.70
 1183.95        2962.25           1386        2814.00     12245.56
 1183.98        2962.50           1389        4320.00     18816.64
 1184.01        2962.75           1392        5749.00     25054.13
 1184.04        2963.00           1396        7773.00     33892.77
 1184.07        2963.25           1399        9085.00     39624.67
 1184.11        2963.50           1402       10830.00     47251.33
 1184.14        2963.75           1406       12806.00     55891.81
 1184.17        2964.00           1409       14337.00     62589.52
 1184.20        2964.25           1412       15953.00     69662.00
 1184.23        2964.50           1416       17833.00     77893.68
 1184.26        2964.75           1419       19451.00     84981.42
 1184.29        2965.00           1422       20769.00     90757.24
 1184.32        2965.25           1426       22930.00    100231.60
 1184.35        2965.50           1429       24327.00    106359.30
 1184.38        2965.75           1432       25776.00    112717.50
 1184.41        2966.00           1436       27777.00    121501.80
 1184.45        2966.25           1439       29268.00    128050.30
 1184.48        2966.50           1442       30570.00    133770.70
 1184.51        2966.75           1446       31766.00    139027.20
 1184.54        2967.00           1449       32030.00    140187.70
 1184.57        2967.25           1452       32046.00    140258.10
 1184.60        2967.50           1456       31911.00    139664.60
 1184.63        2967.75           1459       31957.00    139866.80
 1184.66        2968.00           1462       31535.00    138011.80
 1184.69        2968.25           1466       30617.00    133977.30
 1184.73        2968.50           1469       29275.00    128081.00
 1184.76        2968.75           1472       27848.00    121813.60
 1184.79        2969.00           1476       25939.00    113432.90
 1184.82        2969.25           1479       24405.00    106701.50
 1184.85        2969.50           1482       22880.00    100012.40
 1184.88        2969.75           1486       20909.00     91370.87
 1184.91        2970.00           1489       19488.00     85143.53
 1184.94        2970.25           1492       18146.00     79264.55
 1184.97        2970.50           1496       16245.00     70940.28
 1185.00        2970.75           1499       14841.00     64794.97
 1185.03        2971.00           1502       13352.00     58280.10
 1185.07        2971.25           1506       11366.00     49594.66
 1185.10        2971.50           1509        9805.00     42771.07
 1185.13        2971.75           1513        7845.00     34207.28
 1185.16        2972.00           1516        6391.00     27857.19
 1185.19        2972.25           1519        4937.00     21509.52
 1185.22        2972.50           1523        3059.00     13314.39
 1185.25        2972.75           1526        1659.00      7207.75
 1185.28        2973.00           1529         699.00      3021.63
 1185.31        2973.25           1533         363.00      1556.74
 1185.34        2973.50           1536         304.00      1299.53
 1185.37        2973.75           1539         246.00      1046.68
 1185.41        2974.00           1543         212.00       898.45
 1185.44        2974.25           1546         156.00       654.33
 1185.47        2974.50           1549         115.00       475.60
 1185.50        2974.75           1553          80.00       323.02
 1185.53        2975.00           1556          62.00       244.55
 1185.56        2975.25           1559          59.00       231.48
 1185.59        2975.50           1563          67.00       266.35
 1185.62        2975.75           1566          62.00       244.55
 1185.65        2976.00           1569          58.00       227.12
 1185.68        2976.25           1573          64.00       253.27
 1185.71        2976.50           1576          60.00       235.83
 1185.74        2976.75           1579          58.00       227.12
 1185.77        2977.00           1583          57.00       222.76
 1185.80        2977.25           1586          58.00       227.12
 1185.84        2977.50           1590          51.00       196.60
 1185.87        2977.75           1593          52.00       200.96
 1185.90        2978.00           1596          52.00       200.96
 1185.93        2978.25           1600          58.00       227.12
 1185.96        2978.50           1603          50.00       192.24
 1185.99        2978.75           1606          59.00       231.48
 1186.02        2979.00           1610          57.00       222.76
 1186.05        2979.25           1613          65.00       257.63
 1186.08        2979.50           1616          49.00       187.88
 1186.11        2979.75           1620          58.00       227.12
 1186.14        2980.00           1623          49.00       187.88
 1186.17        2980.25           1626          55.00       214.04
 1186.20        2980.50           1630          57.00       222.76
 1186.24        2980.75           1633          58.00       227.12
 1186.27        2981.00           1637          50.00       192.24
 1186.30        2981.25           1640          61.00       240.19
 1186.33        2981.50           1643          65.00       257.63
 1186.36        2981.75           1647          53.00       205.32
 1186.39        2982.00           1650          54.00       209.68
 1186.42        2982.25           1653          47.00       179.16
 1186.45        2982.50           1657          63.00       248.91
 1186.48        2982.75           1660          52.00       200.96
 1186.51        2983.00           1663          54.00       209.68
 1186.54        2983.25           1667          56.00       218.40
 1186.57        2983.50           1670          52.00       200.96
 1186.60        2983.75           1673          58.00       227.12
 1186.64        2984.00           1677          55.00       214.04
HS scan finished at 19:46:51
end
