************************************************************
  HS Scan of (1) Internal mercury lamp
************************************************************
Integration time is 0.2294 seconds per sample
dh030419Manchester 53.47 2.23 2.804185pr1000
************************************************************
Dead Time -------------------------  3E-08 
Number of Cycles Used -------------  4 
Starting Wavelength (Angstroms) ---  2950 
Final Wavelength (Angstoms) -------  2984 
Wavelength Increment (Angstroms) --  .25 
Filter Wheel #1 Position ---------- (1) Ground quartz diffuser (ND=2.32)
Filter Wheel #2 Position ---------- (1) Neutral Density 0.494



************************************************************
HS scan start time = 01:47:01
Dark Count =  4.4 


Time (GMT)  Wavelength (Ang)  Step Number  Raw Counts  Counts/Second

  107.39        2950.00           1222          54.00       216.22
  107.46        2950.25           1226          54.00       216.22
  107.49        2950.50           1229          53.00       211.86
  107.52        2950.75           1232          51.00       203.14
  107.55        2951.00           1236          61.00       246.73
  107.58        2951.25           1239          55.00       220.58
  107.61        2951.50           1242          50.00       198.78
  107.64        2951.75           1246          53.00       211.86
  107.67        2952.00           1249          52.00       207.50
  107.70        2952.25           1252          61.00       246.73
  107.73        2952.50           1256          58.00       233.65
  107.76        2952.75           1259          61.00       246.73
  107.80        2953.00           1262          60.00       242.37
  107.83        2953.25           1266          50.00       198.78
  107.86        2953.50           1269          52.00       207.50
  107.89        2953.75           1272          62.00       251.09
  107.92        2954.00           1276          53.00       211.86
  107.95        2954.25           1279          53.00       211.86
  107.98        2954.50           1282          59.00       238.01
  108.01        2954.75           1286          52.00       207.50
  108.04        2955.00           1289          56.00       224.94
  108.07        2955.25           1292          52.00       207.50
  108.11        2955.50           1296          53.00       211.86
  108.14        2955.75           1299          47.00       185.70
  108.17        2956.00           1302          49.00       194.42
  108.20        2956.25           1306          59.00       238.01
  108.23        2956.50           1309          53.00       211.86
  108.26        2956.75           1312          56.00       224.94
  108.29        2957.00           1316          54.00       216.22
  108.32        2957.25           1319          54.00       216.22
  108.35        2957.50           1322          48.00       190.06
  108.39        2957.75           1326          58.00       233.65
  108.42        2958.00           1329          50.00       198.78
  108.45        2958.25           1332          51.00       203.14
  108.48        2958.50           1336          59.00       238.01
  108.51        2958.75           1339          54.00       216.22
  108.54        2959.00           1342          52.00       207.50
  108.57        2959.25           1346          55.00       220.58
  108.60        2959.50           1349          61.00       246.73
  108.63        2959.75           1352          69.00       281.61
  108.66        2960.00           1356          85.00       351.36
  108.69        2960.25           1359         105.00       438.54
  108.73        2960.50           1362         122.00       512.65
  108.76        2960.75           1366         176.00       748.06
  108.79        2961.00           1369         202.00       861.40
  108.82        2961.25           1372         247.00      1057.58
  108.85        2961.50           1376         297.00      1275.55
  108.88        2961.75           1379         480.00      2073.36
  108.91        2962.00           1382        1101.00      4780.98
  108.94        2962.25           1386        2509.00     10921.63
  108.97        2962.50           1389        3708.00     16152.55
  109.00        2962.75           1392        4951.00     21577.17
  109.03        2963.00           1396        6549.00     28553.66
  109.07        2963.25           1399        7629.00     33270.33
  109.10        2963.50           1402        8873.00     38704.90
  109.13        2963.75           1406       10559.00     46073.23
  109.16        2964.00           1409       11946.00     52137.28
  109.19        2964.25           1412       13124.00     57289.32
  109.22        2964.50           1416       14724.00     64289.53
  109.25        2964.75           1419       16047.00     70080.05
  109.28        2965.00           1422       17332.00     75706.19
  109.31        2965.25           1426       19005.00     83033.96
  109.35        2965.50           1429       20238.00     88436.58
  109.38        2965.75           1432       21554.00     94204.83
  109.41        2966.00           1436       23202.00    101431.10
  109.44        2966.25           1439       24361.00    106515.10
  109.47        2966.50           1442       25329.00    110762.40
  109.50        2966.75           1446       26324.00    115129.30
  109.53        2967.00           1449       26836.00    117376.90
  109.56        2967.25           1452       26712.00    116832.50
  109.59        2967.50           1456       26687.00    116722.80
  109.63        2967.75           1459       26668.00    116639.40
  109.66        2968.00           1462       26465.00    115748.20
  109.69        2968.25           1466       25846.00    113031.30
  109.72        2968.50           1469       24709.00    108041.90
  109.75        2968.75           1472       23599.00    103172.40
  109.78        2969.00           1476       22002.00     96168.94
  109.81        2969.25           1479       20954.00     91574.68
  109.84        2969.50           1482       19656.00     85886.22
  109.87        2969.75           1486       18075.00     78960.15
  109.91        2970.00           1489       16962.00     74086.01
  109.94        2970.25           1492       15748.00     68771.21
  109.97        2970.50           1496       13853.00     60478.42
  110.00        2970.75           1499       12688.00     55382.27
  110.03        2971.00           1502       11273.00     49194.61
  110.06        2971.25           1506        9615.00     41947.26
  110.09        2971.50           1509        8324.00     36306.31
  110.12        2971.75           1513        6732.00     29352.78
  110.15        2972.00           1516        5478.00     23877.60
  110.18        2972.25           1519        4378.00     19076.30
  110.21        2972.50           1523        2858.00     12444.05
  110.25        2972.75           1526        1630.00      7087.82
  110.28        2973.00           1529         824.00      3573.18
  110.31        2973.25           1533         385.00      1659.19
  110.34        2973.50           1536         297.00      1275.55
  110.37        2973.75           1539         243.00      1040.14
  110.40        2974.00           1543         209.00       891.92
  110.43        2974.25           1546         183.00       778.57
  110.46        2974.50           1549         137.00       578.04
  110.49        2974.75           1553         106.00       442.90
  110.53        2975.00           1556          80.00       329.56
  110.56        2975.25           1559          63.00       255.45
  110.59        2975.50           1563          62.00       251.09
  110.62        2975.75           1566          53.00       211.86
  110.65        2976.00           1569          51.00       203.14
  110.68        2976.25           1573          58.00       233.65
  110.71        2976.50           1576          63.00       255.45
  110.74        2976.75           1579          55.00       220.58
  110.77        2977.00           1583          48.00       190.06
  110.80        2977.25           1586          48.00       190.06
  110.83        2977.50           1590          60.00       242.37
  110.87        2977.75           1593          53.00       211.86
  110.90        2978.00           1596          54.00       216.22
  110.93        2978.25           1600          52.00       207.50
  110.96        2978.50           1603          52.00       207.50
  110.99        2978.75           1606          47.00       185.70
  111.02        2979.00           1610          48.00       190.06
  111.05        2979.25           1613          51.00       203.14
  111.08        2979.50           1616          46.00       181.34
  111.11        2979.75           1620          59.00       238.01
  111.14        2980.00           1623          47.00       185.70
  111.18        2980.25           1626          49.00       194.42
  111.21        2980.50           1630          54.00       216.22
  111.24        2980.75           1633          48.00       190.06
  111.27        2981.00           1637          50.00       198.78
  111.30        2981.25           1640          49.00       194.42
  111.33        2981.50           1643          53.00       211.86
  111.36        2981.75           1647          60.00       242.37
  111.39        2982.00           1650          58.00       233.65
  111.42        2982.25           1653          46.00       181.34
  111.46        2982.50           1657          51.00       203.14
  111.49        2982.75           1660          57.00       229.30
  111.52        2983.00           1663          45.00       176.98
  111.55        2983.25           1667          54.00       216.22
  111.58        2983.50           1670          51.00       203.14
  111.61        2983.75           1673          46.00       181.34
  111.64        2984.00           1677          47.00       185.70
HS scan finished at 01:51:51
end
************************************************************
  HS Scan of (1) Internal mercury lamp
************************************************************
Integration time is 0.2294 seconds per sample
dh030419Manchester 53.47 2.23 2.804185pr1000
************************************************************
Dead Time -------------------------  3E-08 
Number of Cycles Used -------------  4 
Starting Wavelength (Angstroms) ---  2950 
Final Wavelength (Angstoms) -------  2984 
Wavelength Increment (Angstroms) --  .25 
Filter Wheel #1 Position ---------- (1) Ground quartz diffuser (ND=2.32)
Filter Wheel #2 Position ---------- (1) Neutral Density 0.494



************************************************************
HS scan start time = 19:42:15
Dark Count =  8.399999 


Time (GMT)  Wavelength (Ang)  Step Number  Raw Counts  Counts/Second

 1182.62        2950.00           1222          52.00       190.06
 1182.69        2950.25           1226          56.00       207.50
 1182.72        2950.50           1229          53.00       194.42
 1182.75        2950.75           1232          56.00       207.50
 1182.78        2951.00           1236          55.00       203.14
 1182.81        2951.25           1239          60.00       224.94
 1182.84        2951.50           1242          62.00       233.65
 1182.87        2951.75           1246          55.00       203.14
 1182.91        2952.00           1249          50.00       181.34
 1182.94        2952.25           1252          55.00       203.14
 1182.97        2952.50           1256          59.00       220.58
 1183.00        2952.75           1259          53.00       194.42
 1183.03        2953.00           1262          62.00       233.65
 1183.06        2953.25           1266          54.00       198.78
 1183.09        2953.50           1269          53.00       194.42
 1183.12        2953.75           1272          54.00       198.78
 1183.15        2954.00           1276          62.00       233.65
 1183.19        2954.25           1279          60.00       224.94
 1183.22        2954.50           1282          63.00       238.01
 1183.25        2954.75           1286          56.00       207.50
 1183.28        2955.00           1289          54.00       198.78
 1183.31        2955.25           1292          61.00       229.30
 1183.34        2955.50           1296          61.00       229.30
 1183.37        2955.75           1299          53.00       194.42
 1183.40        2956.00           1302          55.00       203.14
 1183.43        2956.25           1306          53.00       194.42
 1183.47        2956.50           1309          60.00       224.94
 1183.50        2956.75           1312          55.00       203.14
 1183.53        2957.00           1316          54.00       198.78
 1183.56        2957.25           1319          59.00       220.58
 1183.59        2957.50           1322          54.00       198.78
 1183.62        2957.75           1326          59.00       220.58
 1183.65        2958.00           1329          62.00       233.65
 1183.68        2958.25           1332          56.00       207.50
 1183.71        2958.50           1336          50.00       181.34
 1183.74        2958.75           1339          56.00       207.50
 1183.77        2959.00           1342          50.00       181.34
 1183.80        2959.25           1346          56.00       207.50
 1183.83        2959.50           1349          74.00       285.97
 1183.86        2959.75           1352          69.00       264.17
 1183.90        2960.00           1356          89.00       351.36
 1183.93        2960.25           1359         108.00       434.18
 1183.96        2960.50           1362         148.00       608.56
 1183.99        2960.75           1366         178.00       739.34
 1184.02        2961.00           1369         210.00       878.84
 1184.05        2961.25           1372         251.00      1057.58
 1184.08        2961.50           1376         326.00      1384.54
 1184.11        2961.75           1379         520.00      2230.31
 1184.14        2962.00           1382        1116.00      4828.95
 1184.17        2962.25           1386        2571.00     11174.63
 1184.21        2962.50           1389        3830.00     16667.44
 1184.24        2962.75           1392        5093.00     22179.53
 1184.27        2963.00           1396        6710.00     29239.24
 1184.30        2963.25           1399        7796.00     33982.32
 1184.33        2963.50           1402        8978.00     39146.21
 1184.36        2963.75           1406       10874.00     47432.75
 1184.39        2964.00           1409       12117.00     52867.57
 1184.42        2964.25           1412       13377.00     58378.52
 1184.45        2964.50           1416       15050.00     65698.68
 1184.49        2964.75           1419       16209.00     70771.72
 1184.52        2965.00           1422       17363.00     75824.43
 1184.55        2965.25           1426       19177.00     83769.98
 1184.58        2965.50           1429       20485.00     89501.55
 1184.61        2965.75           1432       21813.00     95322.78
 1184.64        2966.00           1436       23222.00    101501.30
 1184.67        2966.25           1439       24460.00    106931.90
 1184.70        2966.50           1442       25510.00    111539.10
 1184.73        2966.75           1446       26568.00    116182.80
 1184.77        2967.00           1449       26675.00    116652.50
 1184.80        2967.25           1452       26796.00    117183.70
 1184.83        2967.50           1456       26626.00    116437.40
 1184.86        2967.75           1459       26760.00    117025.70
 1184.89        2968.00           1462       26474.00    115770.20
 1184.92        2968.25           1466       25510.00    111539.10
 1184.95        2968.50           1469       24439.00    106839.70
 1184.98        2968.75           1472       23078.00    100869.70
 1185.01        2969.00           1476       21596.00     94371.42
 1185.04        2969.25           1479       20332.00     88831.01
 1185.08        2969.50           1482       19019.00     83077.77
 1185.11        2969.75           1486       17238.00     75277.04
 1185.14        2970.00           1489       16178.00     70636.01
 1185.17        2970.25           1492       14984.00     65409.83
 1185.20        2970.50           1496       13374.00     58365.40
 1185.23        2970.75           1499       12260.00     53492.93
 1185.26        2971.00           1502       10940.00     47721.28
 1185.29        2971.25           1506        9275.00     40443.98
 1185.32        2971.50           1509        8017.00     34947.69
 1185.36        2971.75           1513        6371.00     27758.94
 1185.39        2972.00           1516        5120.00     22297.39
 1185.42        2972.25           1519        3943.00     17160.53
 1185.45        2972.50           1523        2383.00     10354.57
 1185.48        2972.75           1526        1314.00      5692.34
 1185.51        2973.00           1529         602.00      2587.82
 1185.54        2973.25           1533         360.00      1532.76
 1185.57        2973.50           1536         288.00      1218.88
 1185.60        2973.75           1539         248.00      1044.50
 1185.63        2974.00           1543         214.00       896.28
 1185.67        2974.25           1546         170.00       704.46
 1185.70        2974.50           1549         141.00       578.04
 1185.73        2974.75           1553         102.00       408.03
 1185.76        2975.00           1556          74.00       285.97
 1185.79        2975.25           1559          62.00       233.65
 1185.82        2975.50           1563          53.00       194.42
 1185.85        2975.75           1566          60.00       224.94
 1185.88        2976.00           1569          47.00       168.27
 1185.92        2976.25           1573          53.00       194.42
 1185.95        2976.50           1576          52.00       190.06
 1185.98        2976.75           1579          51.00       185.70
 1186.01        2977.00           1583          61.00       229.30
 1186.04        2977.25           1586          51.00       185.70
 1186.07        2977.50           1590          52.00       190.06
 1186.10        2977.75           1593          49.00       176.98
 1186.15        2978.00           1596          47.00       168.27
 1186.18        2978.25           1600          55.00       203.14
 1186.21        2978.50           1603          52.00       190.06
 1186.24        2978.75           1606          52.00       190.06
 1186.27        2979.00           1610          45.00       159.55
 1186.31        2979.25           1613          57.00       211.86
 1186.34        2979.50           1616          46.00       163.91
 1186.37        2979.75           1620          56.00       207.50
 1186.40        2980.00           1623          58.00       216.22
 1186.43        2980.25           1626          51.00       185.70
 1186.46        2980.50           1630          49.00       176.98
 1186.49        2980.75           1633          48.00       172.63
 1186.52        2981.00           1637          51.00       185.70
 1186.56        2981.25           1640          61.00       229.30
 1186.59        2981.50           1643          39.00       133.39
 1186.62        2981.75           1647          54.00       198.78
 1186.65        2982.00           1650          53.00       194.42
 1186.68        2982.25           1653          45.00       159.55
 1186.71        2982.50           1657          53.00       194.42
 1186.74        2982.75           1660          53.00       194.42
 1186.77        2983.00           1663          47.00       168.27
 1186.80        2983.25           1667          50.00       181.34
 1186.83        2983.50           1670          49.00       176.98
 1186.86        2983.75           1673          50.00       181.34
 1186.90        2984.00           1677          49.00       176.98
HS scan finished at 19:47:07
end
