************************************************************
  HS Scan of (1) Internal mercury lamp
************************************************************
Integration time is 0.2294 seconds per sample
dh060418Manchester 53.47 2.23 2.804185pr1000
************************************************************
Dead Time -------------------------  3E-08 
Number of Cycles Used -------------  4 
Starting Wavelength (Angstroms) ---  2950 
Final Wavelength (Angstoms) -------  2984 
Wavelength Increment (Angstroms) --  .25 
Filter Wheel #1 Position ---------- (1) Ground quartz diffuser (ND=2.32)
Filter Wheel #2 Position ---------- (1) Neutral Density 0.494



************************************************************
HS scan start time = 01:34:45
Dark Count =  4.2 


Time (GMT)  Wavelength (Ang)  Step Number  Raw Counts  Counts/Second

   95.11        2950.00           1222          61.00       247.60
   95.18        2950.25           1226          54.00       217.09
   95.21        2950.50           1229          64.00       260.68
   95.24        2950.75           1232          60.00       243.25
   95.27        2951.00           1236          63.00       256.32
   95.30        2951.25           1239          62.00       251.96
   95.33        2951.50           1242          63.00       256.32
   95.36        2951.75           1246          64.00       260.68
   95.39        2952.00           1249          57.00       230.17
   95.42        2952.25           1252          58.00       234.53
   95.45        2952.50           1256          62.00       251.96
   95.49        2952.75           1259          59.00       238.89
   95.52        2953.00           1262          59.00       238.89
   95.55        2953.25           1266          59.00       238.89
   95.58        2953.50           1269          58.00       234.53
   95.61        2953.75           1272          72.00       295.56
   95.64        2954.00           1276          62.00       251.96
   95.67        2954.25           1279          53.00       212.73
   95.70        2954.50           1282          62.00       251.96
   95.73        2954.75           1286          69.00       282.48
   95.76        2955.00           1289          55.00       221.45
   95.79        2955.25           1292          60.00       243.25
   95.82        2955.50           1296          54.00       217.09
   95.85        2955.75           1299          59.00       238.89
   95.88        2956.00           1302          64.00       260.68
   95.92        2956.25           1306          58.00       234.53
   95.95        2956.50           1309          56.00       225.81
   95.98        2956.75           1312          60.00       243.25
   96.01        2957.00           1316          62.00       251.96
   96.04        2957.25           1319          60.00       243.25
   96.07        2957.50           1322          56.00       225.81
   96.10        2957.75           1326          57.00       230.17
   96.13        2958.00           1329          60.00       243.25
   96.16        2958.25           1332          63.00       256.32
   96.19        2958.50           1336          70.00       286.84
   96.22        2958.75           1339          63.00       256.32
   96.25        2959.00           1342          61.00       247.60
   96.28        2959.25           1346          63.00       256.32
   96.31        2959.50           1349          71.00       291.20
   96.34        2959.75           1352          89.00       369.66
   96.38        2960.00           1356         116.00       487.37
   96.41        2960.25           1359         148.00       626.86
   96.44        2960.50           1362         187.00       796.88
   96.47        2960.75           1366         237.00      1014.85
   96.50        2961.00           1369         282.00      1211.03
   96.53        2961.25           1372         305.00      1311.30
   96.56        2961.50           1376         363.00      1564.15
   96.59        2961.75           1379         519.00      2244.27
   96.62        2962.00           1382        1101.00      4781.85
   96.65        2962.25           1386        2796.00     12174.45
   96.68        2962.50           1389        4168.00     18160.72
   96.71        2962.75           1392        5617.00     24485.29
   96.74        2963.00           1396        7531.00     32843.16
   96.77        2963.25           1399        8945.00     39020.37
   96.81        2963.50           1402       10462.00     45650.10
   96.84        2963.75           1406       12235.00     53401.96
   96.87        2964.00           1409       13887.00     60628.05
   96.90        2964.25           1412       15527.00     67804.75
   96.93        2964.50           1416       17408.00     76039.88
   96.96        2964.75           1419       18919.00     82658.07
   96.99        2965.00           1422       20442.00     89331.50
   97.02        2965.25           1426       22636.00     98949.81
   97.05        2965.50           1429       24043.00    105120.90
   97.08        2965.75           1432       25522.00    111610.20
   97.11        2966.00           1436       27428.00    119976.90
   97.15        2966.25           1439       28759.00    125821.90
   97.18        2966.50           1442       29888.00    130781.50
   97.21        2966.75           1446       31655.00    138546.80
   97.24        2967.00           1449       32021.00    140155.70
   97.27        2967.25           1452       31845.00    139382.00
   97.30        2967.50           1456       31902.00    139632.50
   97.33        2967.75           1459       31775.00    139074.30
   97.36        2968.00           1462       31575.00    138195.10
   97.39        2968.25           1466       30646.00    134112.20
   97.42        2968.50           1469       29255.00    128000.60
   97.46        2968.75           1472       28040.00    122664.20
   97.49        2969.00           1476       26058.00    113962.60
   97.52        2969.25           1479       24486.00    107064.40
   97.55        2969.50           1482       23121.00    101076.70
   97.58        2969.75           1486       21209.00     92693.33
   97.61        2970.00           1489       19604.00     85659.26
   97.64        2970.25           1492       18312.00     79999.10
   97.67        2970.50           1496       16428.00     71748.88
   97.70        2970.75           1499       14799.00     64618.61
   97.73        2971.00           1502       13091.00     57145.84
   97.77        2971.25           1506       11226.00     48990.00
   97.80        2971.50           1509        9714.00     42380.79
   97.83        2971.75           1513        7855.00     34258.38
   97.86        2972.00           1516        6424.00     28008.70
   97.89        2972.25           1519        4940.00     21530.03
   97.92        2972.50           1523        3076.00     13395.97
   97.95        2972.75           1526        1815.00      7895.51
   97.98        2973.00           1529         769.00      3334.25
   98.01        2973.25           1533         396.00      1708.02
   98.04        2973.50           1536         303.00      1302.58
   98.07        2973.75           1539         262.00      1123.84
   98.10        2974.00           1543         223.00       953.82
   98.14        2974.25           1546         161.00       683.54
   98.17        2974.50           1549         128.00       539.68
   98.20        2974.75           1553          88.00       365.30
   98.23        2975.00           1556          75.00       308.63
   98.26        2975.25           1559          67.00       273.76
   98.29        2975.50           1563          58.00       234.53
   98.32        2975.75           1566          57.00       230.17
   98.35        2976.00           1569          55.00       221.45
   98.38        2976.25           1573          54.00       217.09
   98.41        2976.50           1576          55.00       221.45
   98.44        2976.75           1579          58.00       234.53
   98.47        2977.00           1583          58.00       234.53
   98.50        2977.25           1586          54.00       217.09
   98.54        2977.50           1590          61.00       247.60
   98.57        2977.75           1593          60.00       243.25
   98.60        2978.00           1596          48.00       190.93
   98.63        2978.25           1600          60.00       243.25
   98.66        2978.50           1603          51.00       204.01
   98.69        2978.75           1606          56.00       225.81
   98.72        2979.00           1610          47.00       186.57
   98.75        2979.25           1613          54.00       217.09
   98.78        2979.50           1616          52.00       208.37
   98.81        2979.75           1620          52.00       208.37
   98.84        2980.00           1623          56.00       225.81
   98.87        2980.25           1626          56.00       225.81
   98.90        2980.50           1630          58.00       234.53
   98.94        2980.75           1633          54.00       217.09
   98.97        2981.00           1637          52.00       208.37
   99.00        2981.25           1640          49.00       195.29
   99.03        2981.50           1643          56.00       225.81
   99.06        2981.75           1647          58.00       234.53
   99.09        2982.00           1650          50.00       199.65
   99.12        2982.25           1653          56.00       225.81
   99.15        2982.50           1657          52.00       208.37
   99.18        2982.75           1660          52.00       208.37
   99.21        2983.00           1663          52.00       208.37
   99.25        2983.25           1667          57.00       230.17
   99.28        2983.50           1670          55.00       221.45
   99.31        2983.75           1673          50.00       199.65
   99.34        2984.00           1677          50.00       199.65
HS scan finished at 01:39:33
end
************************************************************
  HS Scan of (1) Internal mercury lamp
************************************************************
Integration time is 0.2294 seconds per sample
dh060418Manchester 53.47 2.23 2.804185pr1000
************************************************************
Dead Time -------------------------  3E-08 
Number of Cycles Used -------------  4 
Starting Wavelength (Angstroms) ---  2950 
Final Wavelength (Angstoms) -------  2984 
Wavelength Increment (Angstroms) --  .25 
Filter Wheel #1 Position ---------- (1) Ground quartz diffuser (ND=2.32)
Filter Wheel #2 Position ---------- (1) Neutral Density 0.494



************************************************************
HS scan start time = 19:42:04
Dark Count =  7.2 


Time (GMT)  Wavelength (Ang)  Step Number  Raw Counts  Counts/Second

 1182.43        2950.00           1222          54.00       204.01
 1182.50        2950.25           1226          60.00       230.17
 1182.53        2950.50           1229          58.00       221.45
 1182.56        2950.75           1232          58.00       221.45
 1182.59        2951.00           1236          53.00       199.65
 1182.62        2951.25           1239          64.00       247.60
 1182.65        2951.50           1242          60.00       230.17
 1182.68        2951.75           1246          60.00       230.17
 1182.71        2952.00           1249          56.00       212.73
 1182.74        2952.25           1252          53.00       199.65
 1182.77        2952.50           1256          65.00       251.96
 1182.80        2952.75           1259          57.00       217.09
 1182.84        2953.00           1262          56.00       212.73
 1182.87        2953.25           1266          55.00       208.37
 1182.90        2953.50           1269          61.00       234.53
 1182.93        2953.75           1272          62.00       238.89
 1182.96        2954.00           1276          58.00       221.45
 1182.99        2954.25           1279          59.00       225.81
 1183.02        2954.50           1282          58.00       221.45
 1183.05        2954.75           1286          51.00       190.93
 1183.08        2955.00           1289          61.00       234.53
 1183.11        2955.25           1292          62.00       238.89
 1183.14        2955.50           1296          59.00       225.81
 1183.17        2955.75           1299          59.00       225.81
 1183.20        2956.00           1302          64.00       247.60
 1183.24        2956.25           1306          56.00       212.73
 1183.27        2956.50           1309          61.00       234.53
 1183.30        2956.75           1312          62.00       238.89
 1183.33        2957.00           1316          61.00       234.53
 1183.36        2957.25           1319          69.00       269.40
 1183.39        2957.50           1322          58.00       221.45
 1183.42        2957.75           1326          56.00       212.73
 1183.45        2958.00           1329          52.00       195.29
 1183.48        2958.25           1332          63.00       243.25
 1183.51        2958.50           1336          60.00       230.17
 1183.54        2958.75           1339          53.00       199.65
 1183.57        2959.00           1342          62.00       238.89
 1183.60        2959.25           1346          62.00       238.89
 1183.64        2959.50           1349          79.00       312.99
 1183.67        2959.75           1352          67.00       260.68
 1183.70        2960.00           1356         104.00       421.98
 1183.73        2960.25           1359         141.00       583.27
 1183.76        2960.50           1362         179.00       748.93
 1183.79        2960.75           1366         220.00       927.66
 1183.82        2961.00           1369         270.00      1145.64
 1183.85        2961.25           1372         298.00      1267.70
 1183.88        2961.50           1376         364.00      1555.43
 1183.91        2961.75           1379         510.00      2191.95
 1183.94        2962.00           1382        1001.00      4332.73
 1183.97        2962.25           1386        2551.00     11092.62
 1184.00        2962.50           1389        3917.00     17052.31
 1184.04        2962.75           1392        5320.00     23175.66
 1184.07        2963.00           1396        7056.00     30755.48
 1184.10        2963.25           1399        8607.00     37530.46
 1184.13        2963.50           1402       10186.00     44430.59
 1184.16        2963.75           1406       12198.00     53227.04
 1184.19        2964.00           1409       13743.00     59984.92
 1184.22        2964.25           1412       15321.00     66889.98
 1184.25        2964.50           1416       17458.00     76245.71
 1184.28        2964.75           1419       18900.00     82561.71
 1184.31        2965.00           1422       20372.00     89011.57
 1184.34        2965.25           1426       22223.00     97125.66
 1184.37        2965.50           1429       23655.00    103405.70
 1184.41        2965.75           1432       25312.00    110675.50
 1184.44        2966.00           1436       27393.00    119810.00
 1184.47        2966.25           1439       28762.00    125821.90
 1184.50        2966.50           1442       30164.00    131981.00
 1184.53        2966.75           1446       31574.00    138177.60
 1184.56        2967.00           1449       31988.00    139997.40
 1184.59        2967.25           1452       31975.00    139940.20
 1184.62        2967.50           1456       32022.00    140146.90
 1184.65        2967.75           1459       32005.00    140072.10
 1184.68        2968.00           1462       31861.00    139439.10
 1184.71        2968.25           1466       30907.00    135246.00
 1184.74        2968.50           1469       29889.00    130772.70
 1184.78        2968.75           1472       28389.00    124183.70
 1184.81        2969.00           1476       26602.00    116337.30
 1184.84        2969.25           1479       25355.00    110864.20
 1184.87        2969.50           1482       23778.00    103945.30
 1184.90        2969.75           1486       22018.00     96226.82
 1184.93        2970.00           1489       20477.00     89471.75
 1184.96        2970.25           1492       19005.00     83021.69
 1184.99        2970.50           1496       16983.00     74165.71
 1185.02        2970.75           1499       15674.00     68435.04
 1185.05        2971.00           1502       14102.00     61555.59
 1185.08        2971.25           1506       11949.00     52138.16
 1185.11        2971.50           1509       10385.00     45300.41
 1185.14        2971.75           1513        8472.00     36940.66
 1185.17        2972.00           1516        7155.00     31187.84
 1185.21        2972.25           1519        5737.00     24996.07
 1185.24        2972.50           1523        3811.00     16589.77
 1185.27        2972.75           1526        2602.00     11315.09
 1185.30        2973.00           1529        1268.00      5496.98
 1185.33        2973.25           1533         499.00      2143.99
 1185.36        2973.50           1536         318.00      1354.89
 1185.39        2973.75           1539         265.00      1123.84
 1185.42        2974.00           1543         241.00      1019.21
 1185.45        2974.25           1546         162.00       674.82
 1185.48        2974.50           1549         148.00       613.79
 1185.52        2974.75           1553          93.00       374.02
 1185.55        2975.00           1556          70.00       273.76
 1185.58        2975.25           1559          65.00       251.96
 1185.61        2975.50           1563          60.00       230.17
 1185.64        2975.75           1566          56.00       212.73
 1185.67        2976.00           1569          58.00       221.45
 1185.70        2976.25           1573          60.00       230.17
 1185.73        2976.50           1576          60.00       230.17
 1185.76        2976.75           1579          63.00       243.25
 1185.79        2977.00           1583          62.00       238.89
 1185.82        2977.25           1586          56.00       212.73
 1185.85        2977.50           1590          54.00       204.01
 1185.88        2977.75           1593          61.00       234.53
 1185.91        2978.00           1596          54.00       204.01
 1185.95        2978.25           1600          54.00       204.01
 1185.98        2978.50           1603          60.00       230.17
 1186.01        2978.75           1606          56.00       212.73
 1186.04        2979.00           1610          57.00       217.09
 1186.07        2979.25           1613          57.00       217.09
 1186.10        2979.50           1616          49.00       182.22
 1186.13        2979.75           1620          55.00       208.37
 1186.16        2980.00           1623          53.00       199.65
 1186.19        2980.25           1626          53.00       199.65
 1186.22        2980.50           1630          56.00       212.73
 1186.25        2980.75           1633          60.00       230.17
 1186.28        2981.00           1637          62.00       238.89
 1186.32        2981.25           1640          60.00       230.17
 1186.35        2981.50           1643          50.00       186.57
 1186.38        2981.75           1647          57.00       217.09
 1186.41        2982.00           1650          54.00       204.01
 1186.44        2982.25           1653          47.00       173.50
 1186.47        2982.50           1657          59.00       225.81
 1186.50        2982.75           1660          52.00       195.29
 1186.53        2983.00           1663          58.00       221.45
 1186.56        2983.25           1667          54.00       204.01
 1186.59        2983.50           1670          57.00       217.09
 1186.62        2983.75           1673          61.00       234.53
 1186.65        2984.00           1677          45.00       164.78
HS scan finished at 19:46:52
end
