************************************************************
  HS Scan of (1) Internal mercury lamp
************************************************************
Integration time is 0.2294 seconds per sample
dh090418Manchester 53.47 2.23 2.804185pr1000
************************************************************
Dead Time -------------------------  3E-08 
Number of Cycles Used -------------  4 
Starting Wavelength (Angstroms) ---  2950 
Final Wavelength (Angstoms) -------  2984 
Wavelength Increment (Angstroms) --  .25 
Filter Wheel #1 Position ---------- (1) Ground quartz diffuser (ND=2.32)
Filter Wheel #2 Position ---------- (1) Neutral Density 0.494



************************************************************
HS scan start time = 01:37:11
Dark Count =  6.9 


Time (GMT)  Wavelength (Ang)  Step Number  Raw Counts  Counts/Second

   97.55        2950.00           1222          61.00       235.83
   97.62        2950.25           1226          60.00       231.48
   97.65        2950.50           1229          63.00       244.55
   97.68        2950.75           1232          68.00       266.35
   97.71        2951.00           1236          61.00       235.83
   97.74        2951.25           1239          58.00       222.76
   97.77        2951.50           1242          62.00       240.19
   97.80        2951.75           1246          59.00       227.12
   97.83        2952.00           1249          55.00       209.68
   97.87        2952.25           1252          58.00       222.76
   97.90        2952.50           1256          57.00       218.40
   97.93        2952.75           1259          57.00       218.40
   97.96        2953.00           1262          53.00       200.96
   97.99        2953.25           1266          58.00       222.76
   98.02        2953.50           1269          59.00       227.12
   98.05        2953.75           1272          55.00       209.68
   98.08        2954.00           1276          55.00       209.68
   98.11        2954.25           1279          64.00       248.91
   98.14        2954.50           1282          55.00       209.68
   98.17        2954.75           1286          58.00       222.76
   98.20        2955.00           1289          63.00       244.55
   98.23        2955.25           1292          64.00       248.91
   98.26        2955.50           1296          76.00       301.22
   98.29        2955.75           1299          63.00       244.55
   98.32        2956.00           1302          58.00       222.76
   98.35        2956.25           1306          55.00       209.68
   98.38        2956.50           1309          55.00       209.68
   98.42        2956.75           1312          67.00       261.99
   98.45        2957.00           1316          64.00       248.91
   98.48        2957.25           1319          74.00       292.50
   98.51        2957.50           1322          56.00       214.04
   98.54        2957.75           1326          58.00       222.76
   98.57        2958.00           1329          54.00       205.32
   98.60        2958.25           1332          61.00       235.83
   98.63        2958.50           1336          62.00       240.19
   98.66        2958.75           1339          50.00       187.88
   98.69        2959.00           1342          54.00       205.32
   98.72        2959.25           1346          61.00       235.83
   98.75        2959.50           1349          64.00       248.91
   98.78        2959.75           1352          72.00       283.79
   98.82        2960.00           1356         106.00       432.00
   98.85        2960.25           1359         131.00       540.99
   98.88        2960.50           1362         168.00       702.28
   98.91        2960.75           1366         215.00       907.17
   98.94        2961.00           1369         258.00      1094.63
   98.97        2961.25           1372         277.00      1177.46
   99.00        2961.50           1376         361.00      1543.66
   99.03        2961.75           1379         498.00      2140.94
   99.06        2962.00           1382        1013.00      4386.37
   99.09        2962.25           1386        2596.00     11290.23
   99.12        2962.50           1389        4036.00     17572.91
   99.16        2962.75           1392        5339.00     23259.91
   99.19        2963.00           1396        7261.00     31652.10
   99.22        2963.25           1399        8613.00     37557.99
   99.25        2963.50           1402        9993.00     43588.35
   99.28        2963.75           1406       11977.00     52261.91
   99.31        2964.00           1409       13704.00     59815.62
   99.34        2964.25           1412       15197.00     66348.58
   99.37        2964.50           1416       17131.00     74815.08
   99.40        2964.75           1419       18467.00     80666.21
   99.44        2965.00           1422       19985.00     87316.92
   99.47        2965.25           1426       21924.00     95816.01
   99.50        2965.50           1429       23204.00    101428.90
   99.53        2965.75           1432       24683.00    107916.80
   99.56        2966.00           1436       26675.00    116659.10
   99.59        2966.25           1439       28138.00    123082.70
   99.62        2966.50           1442       29653.00    129737.20
   99.65        2966.75           1446       31206.00    136561.40
   99.68        2967.00           1449       31705.00    138754.70
   99.71        2967.25           1452       31986.00    139989.90
   99.74        2967.50           1456       31866.00    139462.40
   99.77        2967.75           1459       31808.00    139207.40
   99.81        2968.00           1462       31809.00    139211.90
   99.84        2968.25           1466       31185.00    136469.10
   99.87        2968.50           1469       30178.00    132043.80
   99.90        2968.75           1472       28694.00    125524.60
   99.93        2969.00           1476       26950.00    117866.40
   99.96        2969.25           1479       25297.00    110611.00
   99.99        2969.50           1482       23927.00    104600.20
  100.02        2969.75           1486       21918.00     95789.69
  100.05        2970.00           1489       20345.00     88894.56
  100.08        2970.25           1492       19133.00     83583.78
  100.12        2970.50           1496       17251.00     75340.55
  100.15        2970.75           1499       15786.00     68926.60
  100.18        2971.00           1502       14361.00     62690.15
  100.21        2971.25           1506       12506.00     54575.34
  100.24        2971.50           1509       11019.00     48073.21
  100.27        2971.75           1513        8871.00     38685.24
  100.30        2972.00           1516        7422.00     32355.28
  100.33        2972.25           1519        5982.00     26067.02
  100.36        2972.50           1523        3948.00     17188.90
  100.39        2972.75           1526        2563.00     11146.28
  100.42        2973.00           1529        1253.00      5432.88
  100.45        2973.25           1533         474.00      2036.31
  100.48        2973.50           1536         328.00      1399.80
  100.51        2973.75           1539         271.00      1151.30
  100.55        2974.00           1543         200.00       841.78
  100.58        2974.25           1546         171.00       715.36
  100.61        2974.50           1549         132.00       545.34
  100.64        2974.75           1553          90.00       362.25
  100.67        2975.00           1556          74.00       292.50
  100.70        2975.25           1559          61.00       235.83
  100.73        2975.50           1563          56.00       214.04
  100.76        2975.75           1566          55.00       209.68
  100.79        2976.00           1569          59.00       227.12
  100.82        2976.25           1573          56.00       214.04
  100.85        2976.50           1576          59.00       227.12
  100.88        2976.75           1579          57.00       218.40
  100.92        2977.00           1583          56.00       214.04
  100.95        2977.25           1586          55.00       209.68
  100.98        2977.50           1590          61.00       235.83
  101.01        2977.75           1593          55.00       209.68
  101.04        2978.00           1596          53.00       200.96
  101.07        2978.25           1600          53.00       200.96
  101.10        2978.50           1603          52.00       196.60
  101.13        2978.75           1606          65.00       253.27
  101.16        2979.00           1610          50.00       187.88
  101.19        2979.25           1613          56.00       214.04
  101.22        2979.50           1616          49.00       183.52
  101.25        2979.75           1620          57.00       218.40
  101.29        2980.00           1623          50.00       187.88
  101.32        2980.25           1626          54.00       205.32
  101.35        2980.50           1630          56.00       214.04
  101.38        2980.75           1633          53.00       200.96
  101.41        2981.00           1637          58.00       222.76
  101.44        2981.25           1640          52.00       196.60
  101.47        2981.50           1643          50.00       187.88
  101.50        2981.75           1647          56.00       214.04
  101.53        2982.00           1650          59.00       227.12
  101.56        2982.25           1653          49.00       183.52
  101.59        2982.50           1657          51.00       192.24
  101.63        2982.75           1660          59.00       227.12
  101.66        2983.00           1663          57.00       218.40
  101.69        2983.25           1667          49.00       183.52
  101.72        2983.50           1670          55.00       209.68
  101.75        2983.75           1673          58.00       222.76
  101.78        2984.00           1677          52.00       196.60
HS scan finished at 01:42:00
end
************************************************************
  HS Scan of (1) Internal mercury lamp
************************************************************
Integration time is 0.2294 seconds per sample
dh090418Manchester 53.47 2.23 2.804185pr1000
************************************************************
Dead Time -------------------------  3E-08 
Number of Cycles Used -------------  4 
Starting Wavelength (Angstroms) ---  2950 
Final Wavelength (Angstoms) -------  2984 
Wavelength Increment (Angstroms) --  .25 
Filter Wheel #1 Position ---------- (1) Ground quartz diffuser (ND=2.32)
Filter Wheel #2 Position ---------- (1) Neutral Density 0.494



************************************************************
HS scan start time = 20:12:03
Dark Count =  7.3 


Time (GMT)  Wavelength (Ang)  Step Number  Raw Counts  Counts/Second

 1212.42        2950.00           1222          52.00       194.86
 1212.48        2950.25           1226          59.00       225.37
 1212.51        2950.50           1229          55.00       207.94
 1212.54        2950.75           1232          56.00       212.29
 1212.57        2951.00           1236          57.00       216.65
 1212.61        2951.25           1239          58.00       221.01
 1212.64        2951.50           1242          49.00       181.78
 1212.67        2951.75           1246          56.00       212.29
 1212.70        2952.00           1249          58.00       221.01
 1212.73        2952.25           1252          50.00       186.14
 1212.76        2952.50           1256          54.00       203.58
 1212.79        2952.75           1259          64.00       247.17
 1212.82        2953.00           1262          59.00       225.37
 1212.85        2953.25           1266          52.00       194.86
 1212.89        2953.50           1269          65.00       251.53
 1212.92        2953.75           1272          53.00       199.22
 1212.95        2954.00           1276          60.00       229.73
 1212.98        2954.25           1279          56.00       212.29
 1213.01        2954.50           1282          60.00       229.73
 1213.04        2954.75           1286          64.00       247.17
 1213.07        2955.00           1289          59.00       225.37
 1213.10        2955.25           1292          60.00       229.73
 1213.13        2955.50           1296          71.00       277.68
 1213.16        2955.75           1299          56.00       212.29
 1213.19        2956.00           1302          57.00       216.65
 1213.23        2956.25           1306          60.00       229.73
 1213.26        2956.50           1309          60.00       229.73
 1213.29        2956.75           1312          55.00       207.94
 1213.32        2957.00           1316          57.00       216.65
 1213.35        2957.25           1319          58.00       221.01
 1213.38        2957.50           1322          58.00       221.01
 1213.41        2957.75           1326          71.00       277.68
 1213.44        2958.00           1329          54.00       203.58
 1213.47        2958.25           1332          57.00       216.65
 1213.50        2958.50           1336          60.00       229.73
 1213.53        2958.75           1339          60.00       229.73
 1213.56        2959.00           1342          63.00       242.81
 1213.60        2959.25           1346          68.00       264.61
 1213.63        2959.50           1349          70.00       273.32
 1213.66        2959.75           1352          86.00       343.07
 1213.69        2960.00           1356         109.00       443.34
 1213.72        2960.25           1359         146.00       604.63
 1213.75        2960.50           1362         181.00       757.21
 1213.78        2960.75           1366         210.00       883.63
 1213.81        2961.00           1369         252.00      1066.73
 1213.84        2961.25           1372         302.00      1284.71
 1213.87        2961.50           1376         349.00      1489.60
 1213.90        2961.75           1379         472.00      2025.84
 1213.93        2962.00           1382         903.00      3904.99
 1213.97        2962.25           1386        2455.00     10673.43
 1214.00        2962.50           1389        3807.00     16571.88
 1214.03        2962.75           1392        5220.00     22738.70
 1214.06        2963.00           1396        7047.00     30715.74
 1214.09        2963.25           1399        8481.00     36979.54
 1214.12        2963.50           1402       10136.00     44211.62
 1214.15        2963.75           1406       11975.00     52251.42
 1214.18        2964.00           1409       13656.00     59603.87
 1214.21        2964.25           1412       15150.00     66141.15
 1214.24        2964.50           1416       17040.00     74414.85
 1214.27        2964.75           1419       18483.00     80734.54
 1214.30        2965.00           1422       19852.00     86732.35
 1214.34        2965.25           1426       21797.00     95257.46
 1214.37        2965.50           1429       23246.00    101611.40
 1214.40        2965.75           1432       24833.00    108573.20
 1214.43        2966.00           1436       26761.00    117034.90
 1214.46        2966.25           1439       28260.00    123616.70
 1214.49        2966.50           1442       29643.00    129691.50
 1214.52        2966.75           1446       31354.00    137210.10
 1214.55        2967.00           1449       31780.00    139082.60
 1214.58        2967.25           1452       31918.00    139689.20
 1214.62        2967.50           1456       31916.00    139680.40
 1214.65        2967.75           1459       31940.00    139785.90
 1214.68        2968.00           1462       31742.00    138915.60
 1214.71        2968.25           1466       31149.00    136309.10
 1214.74        2968.50           1469       30076.00    131593.90
 1214.77        2968.75           1472       28743.00    125738.00
 1214.80        2969.00           1476       26811.00    117254.40
 1214.83        2969.25           1479       25363.00    110898.90
 1214.86        2969.50           1482       23805.00    104063.30
 1214.89        2969.75           1486       21815.00     95336.37
 1214.93        2970.00           1489       20345.00     88892.79
 1214.96        2970.25           1492       18913.00     82618.21
 1214.99        2970.50           1496       16947.00     74007.63
 1215.02        2970.75           1499       15595.00     68088.82
 1215.05        2971.00           1502       14242.00     62167.72
 1215.08        2971.25           1506       12306.00     53698.91
 1215.11        2971.50           1509       10731.00     46812.43
 1215.14        2971.75           1513        8888.00     38757.77
 1215.17        2972.00           1516        7442.00     32440.89
 1215.20        2972.25           1519        5978.00     26047.81
 1215.24        2972.50           1523        4103.00     17863.54
 1215.27        2972.75           1526        2693.00     11711.61
 1215.30        2973.00           1529        1365.00      5919.53
 1215.33        2973.25           1533         504.00      2165.35
 1215.36        2973.50           1536         322.00      1371.90
 1215.39        2973.75           1539         274.00      1162.64
 1215.42        2974.00           1543         231.00       975.18
 1215.45        2974.25           1546         174.00       726.69
 1215.48        2974.50           1549         141.00       582.83
 1215.51        2974.75           1553          94.00       377.95
 1215.54        2975.00           1556          79.00       312.56
 1215.57        2975.25           1559          67.00       260.25
 1215.60        2975.50           1563          60.00       229.73
 1215.64        2975.75           1566          65.00       251.53
 1215.67        2976.00           1569          64.00       247.17
 1215.70        2976.25           1573          63.00       242.81
 1215.73        2976.50           1576          57.00       216.65
 1215.76        2976.75           1579          55.00       207.94
 1215.79        2977.00           1583          55.00       207.94
 1215.82        2977.25           1586          60.00       229.73
 1215.85        2977.50           1590          58.00       221.01
 1215.88        2977.75           1593          60.00       229.73
 1215.91        2978.00           1596          65.00       251.53
 1215.95        2978.25           1600          58.00       221.01
 1215.98        2978.50           1603          55.00       207.94
 1216.01        2978.75           1606          58.00       221.01
 1216.04        2979.00           1610          61.00       234.09
 1216.07        2979.25           1613          56.00       212.29
 1216.10        2979.50           1616          59.00       225.37
 1216.13        2979.75           1620          55.00       207.94
 1216.16        2980.00           1623          58.00       221.01
 1216.19        2980.25           1626          63.00       242.81
 1216.22        2980.50           1630          57.00       216.65
 1216.26        2980.75           1633          49.00       181.78
 1216.29        2981.00           1637          52.00       194.86
 1216.32        2981.25           1640          54.00       203.58
 1216.35        2981.50           1643          58.00       221.01
 1216.38        2981.75           1647          53.00       199.22
 1216.41        2982.00           1650          57.00       216.65
 1216.44        2982.25           1653          54.00       203.58
 1216.47        2982.50           1657          48.00       177.42
 1216.50        2982.75           1660          58.00       221.01
 1216.53        2983.00           1663          55.00       207.94
 1216.56        2983.25           1667          57.00       216.65
 1216.59        2983.50           1670          55.00       207.94
 1216.62        2983.75           1673          56.00       212.29
 1216.66        2984.00           1677          54.00       203.58
HS scan finished at 20:16:52
end
