************************************************************
  HS Scan of (1) Internal mercury lamp
************************************************************
Integration time is 0.2294 seconds per sample
dh040417Manchester 53.47 2.23 2.804185pr1000
************************************************************
Dead Time -------------------------  3E-08 
Number of Cycles Used -------------  4 
Starting Wavelength (Angstroms) ---  2950 
Final Wavelength (Angstoms) -------  2984 
Wavelength Increment (Angstroms) --  .25 
Filter Wheel #1 Position ---------- (1) Ground quartz diffuser (ND=2.32)
Filter Wheel #2 Position ---------- (1) Neutral Density 0.494



************************************************************
HS scan start time = 02:59:39
Dark Count =  6.6 


Time (GMT)  Wavelength (Ang)  Step Number  Raw Counts  Counts/Second

  180.02        2950.00           1222          49.00       184.83
  180.09        2950.25           1226          44.00       163.03
  180.12        2950.50           1229          46.00       171.75
  180.15        2950.75           1232          45.00       167.39
  180.18        2951.00           1236          43.00       158.68
  180.21        2951.25           1239          44.00       163.03
  180.25        2951.50           1242          47.00       176.11
  180.28        2951.75           1246          44.00       163.03
  180.31        2952.00           1249          49.00       184.83
  180.34        2952.25           1252          50.00       189.19
  180.37        2952.50           1256          42.00       154.32
  180.40        2952.75           1259          52.00       197.91
  180.43        2953.00           1262          58.00       224.06
  180.46        2953.25           1266          50.00       189.19
  180.49        2953.50           1269          42.00       154.32
  180.52        2953.75           1272          47.00       176.11
  180.55        2954.00           1276          52.00       197.91
  180.58        2954.25           1279          41.00       149.96
  180.61        2954.50           1282          52.00       197.91
  180.64        2954.75           1286          41.00       149.96
  180.67        2955.00           1289          46.00       171.75
  180.70        2955.25           1292          42.00       154.32
  180.74        2955.50           1296          52.00       197.91
  180.77        2955.75           1299          48.00       180.47
  180.80        2956.00           1302          43.00       158.68
  180.83        2956.25           1306          45.00       167.39
  180.86        2956.50           1309          47.00       176.11
  180.89        2956.75           1312          42.00       154.32
  180.92        2957.00           1316          50.00       189.19
  180.95        2957.25           1319          46.00       171.75
  180.98        2957.50           1322          53.00       202.27
  181.01        2957.75           1326          45.00       167.39
  181.04        2958.00           1329          42.00       154.32
  181.08        2958.25           1332          51.00       193.55
  181.11        2958.50           1336          44.00       163.03
  181.14        2958.75           1339          56.00       215.35
  181.17        2959.00           1342          48.00       180.47
  181.20        2959.25           1346          49.00       184.83
  181.23        2959.50           1349          53.00       202.27
  181.26        2959.75           1352          64.00       250.22
  181.29        2960.00           1356          83.00       333.05
  181.32        2960.25           1359         119.00       489.98
  181.35        2960.50           1362         152.00       633.84
  181.38        2960.75           1366         209.00       882.32
  181.41        2961.00           1369         247.00      1047.98
  181.44        2961.25           1372         303.00      1292.12
  181.48        2961.50           1376         385.00      1649.60
  181.51        2961.75           1379         575.00      2477.95
  181.54        2962.00           1382        1150.00      4985.05
  181.57        2962.25           1386        2934.00     12766.00
  181.60        2962.50           1389        4544.00     19791.17
  181.63        2962.75           1392        6050.00     26365.22
  181.66        2963.00           1396        8160.00     35580.24
  181.69        2963.25           1399        9709.00     42348.45
  181.72        2963.50           1402       11383.00     49665.93
  181.75        2963.75           1406       13637.00     59523.82
  181.79        2964.00           1409       15270.00     66669.40
  181.82        2964.25           1412       17113.00     74737.56
  181.85        2964.50           1416       19473.00     85074.74
  181.88        2964.75           1419       21252.00     92871.30
  181.91        2965.00           1422       22878.00    100000.50
  181.94        2965.25           1426       25202.00    110195.40
  181.97        2965.50           1429       26906.00    117674.50
  182.00        2965.75           1432       28624.00    125218.40
  182.03        2966.00           1436       30638.00    134066.50
  182.06        2966.25           1439       32325.00    141481.60
  182.10        2966.50           1442       33645.00    147285.80
  182.13        2966.75           1446       35368.00    154865.20
  182.16        2967.00           1449       35868.00    157065.30
  182.19        2967.25           1452       36093.00    158055.40
  182.22        2967.50           1456       36061.00    157914.60
  182.25        2967.75           1459       36193.00    158495.50
  182.28        2968.00           1462       35929.00    157333.70
  182.31        2968.25           1466       35019.00    153329.70
  182.35        2968.50           1469       33493.00    146617.30
  182.38        2968.75           1472       32137.00    140655.10
  182.41        2969.00           1476       29759.00    130204.20
  182.44        2969.25           1479       28339.00    123966.70
  182.47        2969.50           1482       26774.00    117095.00
  182.50        2969.75           1486       24522.00    107211.80
  182.53        2970.00           1489       23006.00    100561.90
  182.56        2970.25           1492       21335.00     93235.13
  182.59        2970.50           1496       19015.00     83068.13
  182.62        2970.75           1499       17308.00     75591.46
  182.66        2971.00           1502       15555.00     67916.79
  182.69        2971.25           1506       13362.00     58320.79
  182.72        2971.50           1509       11522.00     50273.67
  182.75        2971.75           1513        9377.00     40897.58
  182.78        2972.00           1516        7793.00     33977.08
  182.81        2972.25           1519        6279.00     27365.09
  182.84        2972.50           1523        4046.00     17617.85
  182.87        2972.75           1526        2636.00     11466.02
  182.90        2973.00           1529        1337.00      5800.49
  182.94        2973.25           1533         503.00      2164.05
  182.97        2973.50           1536         362.00      1549.33
  183.00        2973.75           1539         297.00      1265.96
  183.03        2974.00           1543         265.00      1126.45
  183.06        2974.25           1546         198.00       834.37
  183.09        2974.50           1549         160.00       668.71
  183.12        2974.75           1553         100.00       407.15
  183.15        2975.00           1556          84.00       337.41
  183.18        2975.25           1559          62.00       241.50
  183.21        2975.50           1563          57.00       219.71
  183.25        2975.75           1566          53.00       202.27
  183.28        2976.00           1569          50.00       189.19
  183.31        2976.25           1573          55.00       210.99
  183.34        2976.50           1576          48.00       180.47
  183.37        2976.75           1579          51.00       193.55
  183.40        2977.00           1583          44.00       163.03
  183.43        2977.25           1586          47.00       176.11
  183.46        2977.50           1590          45.00       167.39
  183.49        2977.75           1593          48.00       180.47
  183.52        2978.00           1596          44.00       163.03
  183.56        2978.25           1600          45.00       167.39
  183.59        2978.50           1603          46.00       171.75
  183.62        2978.75           1606          51.00       193.55
  183.65        2979.00           1610          45.00       167.39
  183.68        2979.25           1613          46.00       171.75
  183.71        2979.50           1616          43.00       158.68
  183.74        2979.75           1620          40.00       145.60
  183.77        2980.00           1623          39.00       141.24
  183.80        2980.25           1626          45.00       167.39
  183.83        2980.50           1630          46.00       171.75
  183.86        2980.75           1633          48.00       180.47
  183.90        2981.00           1637          36.00       128.16
  183.93        2981.25           1640          46.00       171.75
  183.96        2981.50           1643          39.00       141.24
  183.99        2981.75           1647          44.00       163.03
  184.02        2982.00           1650          44.00       163.03
  184.05        2982.25           1653          46.00       171.75
  184.08        2982.50           1657          44.00       163.03
  184.11        2982.75           1660          43.00       158.68
  184.14        2983.00           1663          44.00       163.03
  184.17        2983.25           1667          45.00       167.39
  184.20        2983.50           1670          40.00       145.60
  184.23        2983.75           1673          39.00       141.24
  184.26        2984.00           1677          42.00       154.32
HS scan finished at 03:04:29
end
************************************************************
  HS Scan of (1) Internal mercury lamp
************************************************************
Integration time is 0.2294 seconds per sample
dh040417Manchester 53.47 2.23 2.804185pr1000
************************************************************
Dead Time -------------------------  3E-08 
Number of Cycles Used -------------  4 
Starting Wavelength (Angstroms) ---  2950 
Final Wavelength (Angstoms) -------  2984 
Wavelength Increment (Angstroms) --  .25 
Filter Wheel #1 Position ---------- (1) Ground quartz diffuser (ND=2.32)
Filter Wheel #2 Position ---------- (1) Neutral Density 0.494



************************************************************
HS scan start time = 19:42:03
Dark Count =  9.600001 


Time (GMT)  Wavelength (Ang)  Step Number  Raw Counts  Counts/Second

 1182.42        2950.00           1222          50.00       176.11
 1182.49        2950.25           1226          44.00       149.96
 1182.52        2950.50           1229          51.00       180.47
 1182.55        2950.75           1232          48.00       167.39
 1182.58        2951.00           1236          44.00       149.96
 1182.61        2951.25           1239          44.00       149.96
 1182.64        2951.50           1242          43.00       145.60
 1182.67        2951.75           1246          46.00       158.68
 1182.70        2952.00           1249          43.00       145.60
 1182.73        2952.25           1252          42.00       141.24
 1182.77        2952.50           1256          46.00       158.68
 1182.80        2952.75           1259          50.00       176.11
 1182.83        2953.00           1262          42.00       141.24
 1182.86        2953.25           1266          48.00       167.39
 1182.89        2953.50           1269          46.00       158.68
 1182.92        2953.75           1272          44.00       149.96
 1182.95        2954.00           1276          50.00       176.11
 1182.98        2954.25           1279          51.00       180.47
 1183.01        2954.50           1282          46.00       158.68
 1183.04        2954.75           1286          41.00       136.88
 1183.07        2955.00           1289          50.00       176.11
 1183.10        2955.25           1292          48.00       167.39
 1183.14        2955.50           1296          48.00       167.39
 1183.17        2955.75           1299          48.00       167.39
 1183.20        2956.00           1302          49.00       171.75
 1183.23        2956.25           1306          45.00       154.32
 1183.26        2956.50           1309          49.00       171.75
 1183.29        2956.75           1312          42.00       141.24
 1183.32        2957.00           1316          45.00       154.32
 1183.35        2957.25           1319          40.00       132.52
 1183.38        2957.50           1322          56.00       202.27
 1183.41        2957.75           1326          46.00       158.68
 1183.44        2958.00           1329          53.00       189.19
 1183.47        2958.25           1332          49.00       171.75
 1183.50        2958.50           1336          47.00       163.03
 1183.53        2958.75           1339          51.00       180.47
 1183.56        2959.00           1342          47.00       163.03
 1183.59        2959.25           1346          54.00       193.55
 1183.62        2959.50           1349          52.00       184.83
 1183.66        2959.75           1352          65.00       241.50
 1183.69        2960.00           1356          88.00       341.76
 1183.72        2960.25           1359         121.00       485.62
 1183.75        2960.50           1362         156.00       638.20
 1183.78        2960.75           1366         216.00       899.76
 1183.81        2961.00           1369         260.00      1091.58
 1183.84        2961.25           1372         295.00      1244.16
 1183.87        2961.50           1376         367.00      1558.05
 1183.90        2961.75           1379         572.00      2451.79
 1183.93        2962.00           1382        1145.00      4950.17
 1183.97        2962.25           1386        2988.00     12988.49
 1184.00        2962.50           1389        4476.00     19481.31
 1184.03        2962.75           1392        5968.00     25994.11
 1184.06        2963.00           1396        8226.00     35855.47
 1184.09        2963.25           1399        9750.00     42514.53
 1184.12        2963.50           1402       11318.00     49368.62
 1184.15        2963.75           1406       13501.00     58915.73
 1184.18        2964.00           1409       15213.00     66406.80
 1184.22        2964.25           1412       17000.00     74229.65
 1184.25        2964.50           1416       19147.00     83633.29
 1184.28        2964.75           1419       20867.00     91170.56
 1184.31        2965.00           1422       22690.00     99162.91
 1184.34        2965.25           1426       24968.00    109155.50
 1184.37        2965.50           1429       26569.00    116181.90
 1184.40        2965.75           1432       28103.00    122917.10
 1184.43        2966.00           1436       30183.00    132053.90
 1184.47        2966.25           1439       31861.00    139428.60
 1184.50        2966.50           1442       33417.00    146269.90
 1184.53        2966.75           1446       34958.00    153048.10
 1184.56        2967.00           1449       35478.00    155336.00
 1184.59        2967.25           1452       35605.00    155894.80
 1184.62        2967.50           1456       35544.00    155626.40
 1184.65        2967.75           1459       35610.00    155916.80
 1184.68        2968.00           1462       35474.00    155318.40
 1184.71        2968.25           1466       34322.00    150250.30
 1184.75        2968.50           1469       33168.00    145174.90
 1184.78        2968.75           1472       31642.00    138465.90
 1184.81        2969.00           1476       29353.00    128407.40
 1184.84        2969.25           1479       27692.00    121112.30
 1184.87        2969.50           1482       26121.00    114215.50
 1184.90        2969.75           1486       23951.00    104693.60
 1184.93        2970.00           1489       22398.00     97882.48
 1184.96        2970.25           1492       20784.00     90806.76
 1184.99        2970.50           1496       18556.00     81044.24
 1185.02        2970.75           1499       16780.00     73266.36
 1185.06        2971.00           1502       15111.00     65960.40
 1185.09        2971.25           1506       13014.00     56785.42
 1185.12        2971.50           1509       11198.00     48843.98
 1185.15        2971.75           1513        8998.00     39228.36
 1185.18        2972.00           1516        7472.00     32561.87
 1185.21        2972.25           1519        5850.00     25478.93
 1185.24        2972.50           1523        3808.00     16566.21
 1185.27        2972.75           1526        2370.00     10292.63
 1185.30        2973.00           1529        1120.00      4841.16
 1185.34        2973.25           1533         465.00      1985.30
 1185.37        2973.50           1536         350.00      1483.94
 1185.40        2973.75           1539         303.00      1279.04
 1185.43        2974.00           1543         233.00       973.87
 1185.46        2974.25           1546         186.00       768.98
 1185.49        2974.50           1549         131.00       529.22
 1185.52        2974.75           1553          93.00       363.56
 1185.55        2975.00           1556          71.00       267.66
 1185.58        2975.25           1559          60.00       219.71
 1185.61        2975.50           1563          55.00       197.91
 1185.64        2975.75           1566          51.00       180.47
 1185.67        2976.00           1569          54.00       193.55
 1185.70        2976.25           1573          46.00       158.68
 1185.73        2976.50           1576          55.00       197.91
 1185.77        2976.75           1579          49.00       171.75
 1185.80        2977.00           1583          48.00       167.39
 1185.83        2977.25           1586          50.00       176.11
 1185.86        2977.50           1590          40.00       132.52
 1185.89        2977.75           1593          41.00       136.88
 1185.92        2978.00           1596          44.00       149.96
 1185.95        2978.25           1600          42.00       141.24
 1185.98        2978.50           1603          43.00       145.60
 1186.01        2978.75           1606          43.00       145.60
 1186.04        2979.00           1610          46.00       158.68
 1186.07        2979.25           1613          44.00       149.96
 1186.11        2979.50           1616          51.00       180.47
 1186.14        2979.75           1620          36.00       115.08
 1186.17        2980.00           1623          48.00       167.39
 1186.20        2980.25           1626          43.00       145.60
 1186.23        2980.50           1630          43.00       145.60
 1186.26        2980.75           1633          47.00       163.03
 1186.29        2981.00           1637          44.00       149.96
 1186.32        2981.25           1640          50.00       176.11
 1186.35        2981.50           1643          44.00       149.96
 1186.38        2981.75           1647          46.00       158.68
 1186.41        2982.00           1650          48.00       167.39
 1186.45        2982.25           1653          46.00       158.68
 1186.48        2982.50           1657          45.00       154.32
 1186.51        2982.75           1660          49.00       171.75
 1186.54        2983.00           1663          40.00       132.52
 1186.57        2983.25           1667          43.00       145.60
 1186.60        2983.50           1670          55.00       197.91
 1186.63        2983.75           1673          48.00       167.39
 1186.66        2984.00           1677          53.00       189.19
HS scan finished at 19:46:53
end
