************************************************************
  HS Scan of (1) Internal mercury lamp
************************************************************
Integration time is 0.2294 seconds per sample
dh050417Manchester 53.47 2.23 2.804185pr1000
************************************************************
Dead Time -------------------------  3E-08 
Number of Cycles Used -------------  4 
Starting Wavelength (Angstroms) ---  2950 
Final Wavelength (Angstoms) -------  2984 
Wavelength Increment (Angstroms) --  .25 
Filter Wheel #1 Position ---------- (1) Ground quartz diffuser (ND=2.32)
Filter Wheel #2 Position ---------- (1) Neutral Density 0.494



************************************************************
HS scan start time = 02:16:08
Dark Count =  5.6 


Time (GMT)  Wavelength (Ang)  Step Number  Raw Counts  Counts/Second

  136.50        2950.00           1222          52.00       202.27
  136.56        2950.25           1226          50.00       193.55
  136.60        2950.50           1229          48.00       184.83
  136.63        2950.75           1232          48.00       184.83
  136.66        2951.00           1236          55.00       215.35
  136.69        2951.25           1239          50.00       193.55
  136.72        2951.50           1242          48.00       184.83
  136.75        2951.75           1246          51.00       197.91
  136.78        2952.00           1249          49.00       189.19
  136.81        2952.25           1252          42.00       158.68
  136.84        2952.50           1256          48.00       184.83
  136.87        2952.75           1259          55.00       215.35
  136.90        2953.00           1262          46.00       176.11
  136.94        2953.25           1266          45.00       171.75
  136.97        2953.50           1269          47.00       180.47
  137.00        2953.75           1272          50.00       193.55
  137.03        2954.00           1276          57.00       224.06
  137.06        2954.25           1279          44.00       167.39
  137.09        2954.50           1282          43.00       163.03
  137.12        2954.75           1286          50.00       193.55
  137.15        2955.00           1289          48.00       184.83
  137.18        2955.25           1292          46.00       176.11
  137.21        2955.50           1296          45.00       171.75
  137.24        2955.75           1299          40.00       149.96
  137.28        2956.00           1302          41.00       154.32
  137.31        2956.25           1306          45.00       171.75
  137.34        2956.50           1309          43.00       163.03
  137.37        2956.75           1312          46.00       176.11
  137.40        2957.00           1316          48.00       184.83
  137.43        2957.25           1319          46.00       176.11
  137.46        2957.50           1322          49.00       189.19
  137.49        2957.75           1326          53.00       206.63
  137.52        2958.00           1329          47.00       180.47
  137.55        2958.25           1332          47.00       180.47
  137.58        2958.50           1336          45.00       171.75
  137.61        2958.75           1339          47.00       180.47
  137.64        2959.00           1342          48.00       184.83
  137.67        2959.25           1346          44.00       167.39
  137.70        2959.50           1349          57.00       224.06
  137.73        2959.75           1352          72.00       289.45
  137.77        2960.00           1356         110.00       455.11
  137.80        2960.25           1359         140.00       585.89
  137.83        2960.50           1362         174.00       734.11
  137.86        2960.75           1366         231.00       982.59
  137.89        2961.00           1369         271.00      1156.97
  137.92        2961.25           1372         333.00      1427.26
  137.95        2961.50           1376         403.00      1732.44
  137.98        2961.75           1379         592.00      2556.43
  138.01        2962.00           1382        1180.00      5120.23
  138.04        2962.25           1386        2859.00     12443.18
  138.08        2962.50           1389        4612.00     20092.32
  138.11        2962.75           1392        6306.00     27487.35
  138.14        2963.00           1396        8483.00     36995.70
  138.17        2963.25           1399       10096.00     44044.21
  138.20        2963.50           1402       11732.00     51196.28
  138.23        2963.75           1406       13971.00     60989.44
  138.26        2964.00           1409       15669.00     68420.16
  138.29        2964.25           1412       17352.00     75788.51
  138.32        2964.50           1416       19579.00     85543.57
  138.35        2964.75           1419       21180.00     92560.07
  138.39        2965.00           1422       23081.00    100895.20
  138.42        2965.25           1426       25444.00    111261.80
  138.45        2965.50           1429       27036.00    118249.60
  138.48        2965.75           1432       28843.00    126184.70
  138.51        2966.00           1436       31154.00    136338.60
  138.54        2966.25           1439       32808.00    143609.50
  138.57        2966.50           1442       34251.00    149955.60
  138.60        2966.75           1446       35596.00    155872.80
  138.63        2967.00           1449       36120.00    158178.70
  138.67        2967.25           1452       36219.00    158614.40
  138.70        2967.50           1456       36179.00    158438.30
  138.73        2967.75           1459       35944.00    157404.10
  138.76        2968.00           1462       35755.00    156572.40
  138.79        2968.25           1466       34860.00    152634.60
  138.82        2968.50           1469       33365.00    146058.80
  138.85        2968.75           1472       31813.00    139235.10
  138.88        2969.00           1476       29584.00    129439.80
  138.91        2969.25           1479       27970.00    122350.60
  138.95        2969.50           1482       26221.00    114671.90
  138.98        2969.75           1486       24168.00    105663.10
  139.01        2970.00           1489       22505.00     98369.21
  139.04        2970.25           1492       20724.00     90561.31
  139.07        2970.50           1496       18449.00     80593.06
  139.10        2970.75           1499       16839.00     73542.21
  139.13        2971.00           1502       15204.00     66384.91
  139.16        2971.25           1506       12832.00     56006.84
  139.19        2971.50           1509       11004.00     48013.32
  139.23        2971.75           1513        8762.00     38214.67
  139.26        2972.00           1516        7231.00     31526.76
  139.29        2972.25           1519        5724.00     24946.30
  139.32        2972.50           1523        3610.00     15719.71
  139.35        2972.75           1526        2145.00      9328.68
  139.38        2973.00           1529        1027.00      4453.08
  139.41        2973.25           1533         458.00      1972.22
  139.44        2973.50           1536         350.00      1501.38
  139.47        2973.75           1539         265.00      1130.81
  139.50        2974.00           1543         228.00       969.51
  139.53        2974.25           1546         173.00       729.75
  139.56        2974.50           1549         121.00       503.06
  139.59        2974.75           1553          69.00       276.38
  139.63        2975.00           1556          63.00       250.22
  139.66        2975.25           1559          49.00       189.19
  139.69        2975.50           1563          51.00       197.91
  139.72        2975.75           1566          49.00       189.19
  139.75        2976.00           1569          44.00       167.39
  139.78        2976.25           1573          52.00       202.27
  139.81        2976.50           1576          45.00       171.75
  139.84        2976.75           1579          53.00       206.63
  139.87        2977.00           1583          45.00       171.75
  139.90        2977.25           1586          55.00       215.35
  139.93        2977.50           1590          46.00       176.11
  139.96        2977.75           1593          44.00       167.39
  139.99        2978.00           1596          51.00       197.91
  140.03        2978.25           1600          44.00       167.39
  140.06        2978.50           1603          43.00       163.03
  140.09        2978.75           1606          42.00       158.68
  140.12        2979.00           1610          53.00       206.63
  140.15        2979.25           1613          48.00       184.83
  140.18        2979.50           1616          45.00       171.75
  140.21        2979.75           1620          47.00       180.47
  140.24        2980.00           1623          45.00       171.75
  140.27        2980.25           1626          49.00       189.19
  140.30        2980.50           1630          48.00       184.83
  140.34        2980.75           1633          45.00       171.75
  140.37        2981.00           1637          42.00       158.68
  140.40        2981.25           1640          42.00       158.68
  140.43        2981.50           1643          47.00       180.47
  140.46        2981.75           1647          39.00       145.60
  140.49        2982.00           1650          51.00       197.91
  140.52        2982.25           1653          47.00       180.47
  140.55        2982.50           1657          43.00       163.03
  140.58        2982.75           1660          42.00       158.68
  140.61        2983.00           1663          42.00       158.68
  140.64        2983.25           1667          43.00       163.03
  140.67        2983.50           1670          44.00       167.39
  140.70        2983.75           1673          47.00       180.47
  140.73        2984.00           1677          38.00       141.24
HS scan finished at 02:20:57
end
************************************************************
  HS Scan of (1) Internal mercury lamp
************************************************************
Integration time is 0.2294 seconds per sample
dh050417Manchester 53.47 2.23 2.804185pr1000
************************************************************
Dead Time -------------------------  3E-08 
Number of Cycles Used -------------  4 
Starting Wavelength (Angstroms) ---  2950 
Final Wavelength (Angstoms) -------  2984 
Wavelength Increment (Angstroms) --  .25 
Filter Wheel #1 Position ---------- (1) Ground quartz diffuser (ND=2.32)
Filter Wheel #2 Position ---------- (1) Neutral Density 0.494



************************************************************
HS scan start time = 19:42:04
Dark Count =  6.9 


Time (GMT)  Wavelength (Ang)  Step Number  Raw Counts  Counts/Second

 1182.44        2950.00           1222          41.00       148.65
 1182.50        2950.25           1226          47.00       174.80
 1182.53        2950.50           1229          44.00       161.73
 1182.57        2950.75           1232          44.00       161.73
 1182.60        2951.00           1236          47.00       174.80
 1182.63        2951.25           1239          44.00       161.73
 1182.66        2951.50           1242          48.00       179.16
 1182.69        2951.75           1246          48.00       179.16
 1182.72        2952.00           1249          47.00       174.80
 1182.75        2952.25           1252          46.00       170.45
 1182.78        2952.50           1256          47.00       174.80
 1182.81        2952.75           1259          47.00       174.80
 1182.84        2953.00           1262          48.00       179.16
 1182.87        2953.25           1266          46.00       170.45
 1182.90        2953.50           1269          45.00       166.09
 1182.93        2953.75           1272          54.00       205.32
 1182.96        2954.00           1276          53.00       200.96
 1183.00        2954.25           1279          46.00       170.45
 1183.03        2954.50           1282          44.00       161.73
 1183.06        2954.75           1286          39.00       139.93
 1183.09        2955.00           1289          48.00       179.16
 1183.12        2955.25           1292          38.00       135.57
 1183.15        2955.50           1296          45.00       166.09
 1183.18        2955.75           1299          52.00       196.60
 1183.21        2956.00           1302          42.00       153.01
 1183.24        2956.25           1306          38.00       135.57
 1183.27        2956.50           1309          46.00       170.45
 1183.30        2956.75           1312          48.00       179.16
 1183.33        2957.00           1316          45.00       166.09
 1183.36        2957.25           1319          51.00       192.24
 1183.40        2957.50           1322          48.00       179.16
 1183.43        2957.75           1326          43.00       157.37
 1183.46        2958.00           1329          42.00       153.01
 1183.49        2958.25           1332          43.00       157.37
 1183.52        2958.50           1336          47.00       174.80
 1183.55        2958.75           1339          51.00       192.24
 1183.58        2959.00           1342          45.00       166.09
 1183.61        2959.25           1346          47.00       174.80
 1183.64        2959.50           1349          47.00       174.80
 1183.67        2959.75           1352          63.00       244.55
 1183.70        2960.00           1356          96.00       388.41
 1183.74        2960.25           1359         128.00       527.91
 1183.77        2960.50           1362         145.00       602.02
 1183.80        2960.75           1366         203.00       854.86
 1183.83        2961.00           1369         260.00      1103.35
 1183.86        2961.25           1372         305.00      1299.53
 1183.89        2961.50           1376         360.00      1539.30
 1183.92        2961.75           1379         501.00      2154.02
 1183.95        2962.00           1382         927.00      4011.38
 1183.98        2962.25           1386        2352.00     10225.89
 1184.02        2962.50           1389        3971.00     17289.26
 1184.05        2962.75           1392        5542.00     24146.08
 1184.08        2963.00           1396        7730.00     33700.58
 1184.11        2963.25           1399        9247.00     40328.19
 1184.14        2963.50           1402       10972.00     47867.73
 1184.17        2963.75           1406       13267.00     57903.90
 1184.20        2964.00           1409       14892.00     65013.78
 1184.23        2964.25           1412       16741.00     73107.41
 1184.26        2964.50           1416       18995.00     82979.19
 1184.30        2964.75           1419       20547.00     89779.84
 1184.33        2965.00           1422       22163.00     96863.90
 1184.36        2965.25           1426       24339.00    106407.60
 1184.39        2965.50           1429       26003.00    113709.40
 1184.42        2965.75           1432       27721.00    121251.50
 1184.45        2966.00           1436       30018.00    131340.80
 1184.48        2966.25           1439       31782.00    139093.20
 1184.51        2966.50           1442       33209.00    145367.10
 1184.54        2966.75           1446       34711.00    151973.40
 1184.57        2967.00           1449       35578.00    155787.90
 1184.61        2967.25           1452       35627.00    156003.50
 1184.64        2967.50           1456       35579.00    155792.30
 1184.67        2967.75           1459       35433.00    155149.90
 1184.70        2968.00           1462       35321.00    154657.10
 1184.73        2968.25           1466       34477.00    150944.00
 1184.76        2968.50           1469       33328.00    145890.40
 1184.79        2968.75           1472       31829.00    139299.70
 1184.82        2969.00           1476       29678.00    129847.00
 1184.85        2969.25           1479       27914.00    122099.00
 1184.88        2969.50           1482       26312.00    115065.70
 1184.91        2969.75           1486       24218.00    105876.70
 1184.95        2970.00           1489       22635.00     98933.56
 1184.98        2970.25           1492       20940.00     91502.36
 1185.01        2970.50           1496       18760.00     81949.71
 1185.04        2970.75           1499       17214.00     75178.53
 1185.07        2971.00           1502       15754.00     68786.53
 1185.10        2971.25           1506       13373.00     58367.60
 1185.13        2971.50           1509       11769.00     51352.37
 1185.16        2971.75           1513        9503.00     41446.88
 1185.19        2972.00           1516        7917.00     34517.42
 1185.23        2972.25           1519        6298.00     27446.74
 1185.26        2972.50           1523        4298.00     18716.26
 1185.29        2972.75           1526        2715.00     11809.33
 1185.32        2973.00           1529        1477.00      6409.69
 1185.35        2973.25           1533         552.00      2376.37
 1185.38        2973.50           1536         365.00      1561.10
 1185.41        2973.75           1539         300.00      1277.73
 1185.44        2974.00           1543         260.00      1103.35
 1185.47        2974.25           1546         201.00       846.14
 1185.51        2974.50           1549         163.00       680.48
 1185.54        2974.75           1553         100.00       405.85
 1185.57        2975.00           1556          76.00       301.22
 1185.60        2975.25           1559          68.00       266.35
 1185.63        2975.50           1563          54.00       205.32
 1185.66        2975.75           1566          52.00       196.60
 1185.69        2976.00           1569          48.00       179.16
 1185.72        2976.25           1573          44.00       161.73
 1185.75        2976.50           1576          44.00       161.73
 1185.78        2976.75           1579          49.00       183.52
 1185.81        2977.00           1583          45.00       166.09
 1185.85        2977.25           1586          49.00       183.52
 1185.88        2977.50           1590          47.00       174.80
 1185.91        2977.75           1593          43.00       157.37
 1185.94        2978.00           1596          49.00       183.52
 1185.97        2978.25           1600          56.00       214.04
 1186.00        2978.50           1603          45.00       166.09
 1186.03        2978.75           1606          47.00       174.80
 1186.06        2979.00           1610          50.00       187.88
 1186.09        2979.25           1613          50.00       187.88
 1186.12        2979.50           1616          43.00       157.37
 1186.15        2979.75           1620          40.00       144.29
 1186.18        2980.00           1623          42.00       153.01
 1186.22        2980.25           1626          46.00       170.45
 1186.25        2980.50           1630          44.00       161.73
 1186.28        2980.75           1633          43.00       157.37
 1186.31        2981.00           1637          47.00       174.80
 1186.34        2981.25           1640          50.00       187.88
 1186.37        2981.50           1643          41.00       148.65
 1186.40        2981.75           1647          43.00       157.37
 1186.43        2982.00           1650          39.00       139.93
 1186.46        2982.25           1653          41.00       148.65
 1186.49        2982.50           1657          40.00       144.29
 1186.53        2982.75           1660          42.00       153.01
 1186.56        2983.00           1663          42.00       153.01
 1186.59        2983.25           1667          42.00       153.01
 1186.62        2983.50           1670          42.00       153.01
 1186.65        2983.75           1673          51.00       192.24
 1186.68        2984.00           1677          43.00       157.37
HS scan finished at 19:46:54
end
