************************************************************
  HS Scan of (1) Internal mercury lamp
************************************************************
Integration time is 0.2294 seconds per sample
dh010418Manchester 53.47 2.23 2.750537pr1000
************************************************************
Dead Time -------------------------  3E-08 
Number of Cycles Used -------------  4 
Starting Wavelength (Angstroms) ---  2950 
Final Wavelength (Angstoms) -------  2984 
Wavelength Increment (Angstroms) --  .25 
Filter Wheel #1 Position ---------- (1) Ground quartz diffuser (ND=2.32)
Filter Wheel #2 Position ---------- (1) Neutral Density 0.494



************************************************************
HS scan start time = 02:00:33
Dark Count =  5.5 


Time (GMT)  Wavelength (Ang)  Step Number  Raw Counts  Counts/Second

  120.93        2950.00           1222          58.00       228.86
  120.99        2950.25           1226          57.00       224.50
  121.02        2950.50           1229          63.00       250.66
  121.05        2950.75           1232          60.00       237.58
  121.08        2951.00           1236          61.00       241.94
  121.11        2951.25           1239          62.00       246.30
  121.15        2951.50           1242          60.00       237.58
  121.18        2951.75           1246          57.00       224.50
  121.21        2952.00           1249          61.00       241.94
  121.24        2952.25           1252          56.00       220.14
  121.27        2952.50           1256          55.00       215.78
  121.30        2952.75           1259          56.00       220.14
  121.33        2953.00           1262          60.00       237.58
  121.36        2953.25           1266          64.00       255.02
  121.39        2953.50           1269          59.00       233.22
  121.42        2953.75           1272          59.00       233.22
  121.45        2954.00           1276          62.00       246.30
  121.48        2954.25           1279          55.00       215.78
  121.51        2954.50           1282          67.00       268.09
  121.54        2954.75           1286          56.00       220.14
  121.58        2955.00           1289          59.00       233.22
  121.61        2955.25           1292          57.00       224.50
  121.64        2955.50           1296          58.00       228.86
  121.67        2955.75           1299          51.00       198.34
  121.70        2956.00           1302          60.00       237.58
  121.73        2956.25           1306          63.00       250.66
  121.76        2956.50           1309          55.00       215.78
  121.79        2956.75           1312          62.00       246.30
  121.82        2957.00           1316          59.00       233.22
  121.85        2957.25           1319          54.00       211.42
  121.88        2957.50           1322          60.00       237.58
  121.92        2957.75           1326          55.00       215.78
  121.95        2958.00           1329          53.00       207.06
  121.98        2958.25           1332          61.00       241.94
  122.01        2958.50           1336          61.00       241.94
  122.04        2958.75           1339          57.00       224.50
  122.07        2959.00           1342          64.00       255.02
  122.10        2959.25           1346          65.00       259.37
  122.13        2959.50           1349          67.00       268.09
  122.16        2959.75           1352          87.00       355.28
  122.19        2960.00           1356         112.00       464.26
  122.22        2960.25           1359         143.00       599.40
  122.25        2960.50           1362         179.00       756.34
  122.28        2960.75           1366         236.00      1004.83
  122.32        2961.00           1369         279.00      1192.28
  122.35        2961.25           1372         303.00      1296.91
  122.38        2961.50           1376         383.00      1645.68
  122.41        2961.75           1379         503.00      2168.84
  122.44        2962.00           1382         954.00      4135.21
  122.47        2962.25           1386        2384.00     10371.58
  122.50        2962.50           1389        3878.00     16889.55
  122.53        2962.75           1392        5239.00     22829.49
  122.56        2963.00           1396        6996.00     30500.87
  122.59        2963.25           1399        8552.00     37297.60
  122.63        2963.50           1402       10151.00     44285.04
  122.66        2963.75           1406       12342.00     53864.22
  122.69        2964.00           1409       14066.00     61405.52
  122.72        2964.25           1412       15559.00     67939.12
  122.75        2964.50           1416       17499.00     76432.69
  122.78        2964.75           1419       18852.00     82358.86
  122.81        2965.00           1422       20538.00     89746.55
  122.84        2965.25           1426       22528.00     98470.51
  122.87        2965.50           1429       24032.00    105066.90
  122.90        2965.75           1432       25499.00    111503.60
  122.94        2966.00           1436       27271.00    119281.80
  122.97        2966.25           1439       28638.00    125284.70
  123.00        2966.50           1442       30119.00    131790.70
  123.03        2966.75           1446       31761.00    139007.00
  123.06        2967.00           1449       32161.00    140765.40
  123.09        2967.25           1452       32257.00    141187.40
  123.12        2967.50           1456       32239.00    141108.30
  123.15        2967.75           1459       32062.00    140330.20
  123.18        2968.00           1462       32148.00    140708.20
  123.22        2968.25           1466       31094.00    136075.30
  123.25        2968.50           1469       30099.00    131702.90
  123.28        2968.75           1472       28716.00    125627.30
  123.31        2969.00           1476       26755.00    117016.40
  123.34        2969.25           1479       25272.00    110507.40
  123.37        2969.50           1482       23804.00    104066.80
  123.40        2969.75           1486       21982.00     96076.43
  123.43        2970.00           1489       20460.00     89404.69
  123.46        2970.25           1492       18876.00     82464.00
  123.49        2970.50           1496       16889.00     73761.56
  123.53        2970.75           1499       15576.00     68013.53
  123.56        2971.00           1502       14090.00     61510.53
  123.59        2971.25           1506       12132.00     52945.85
  123.62        2971.50           1509       10591.00     46208.30
  123.65        2971.75           1513        8686.00     37883.05
  123.68        2972.00           1516        7274.00     31714.99
  123.71        2972.25           1519        5865.00     25562.32
  123.74        2972.50           1523        3898.00     16976.82
  123.77        2972.75           1526        2505.00     10899.38
  123.80        2973.00           1529        1173.00      5090.14
  123.84        2973.25           1533         451.00      1942.14
  123.87        2973.50           1536         300.00      1283.83
  123.90        2973.75           1539         273.00      1166.13
  123.93        2974.00           1543         205.00       869.68
  123.96        2974.25           1546         158.00       664.79
  123.99        2974.50           1549         115.00       477.34
  124.02        2974.75           1553          81.00       329.12
  124.05        2975.00           1556          70.00       281.17
  124.08        2975.25           1559          58.00       228.86
  124.11        2975.50           1563          51.00       198.34
  124.15        2975.75           1566          62.00       246.30
  124.18        2976.00           1569          64.00       255.02
  124.21        2976.25           1573          54.00       211.42
  124.24        2976.50           1576          58.00       228.86
  124.27        2976.75           1579          56.00       220.14
  124.30        2977.00           1583          56.00       220.14
  124.33        2977.25           1586          54.00       211.42
  124.36        2977.50           1590          61.00       241.94
  124.39        2977.75           1593          55.00       215.78
  124.42        2978.00           1596          60.00       237.58
  124.45        2978.25           1600          61.00       241.94
  124.48        2978.50           1603          55.00       215.78
  124.51        2978.75           1606          60.00       237.58
  124.55        2979.00           1610          59.00       233.22
  124.58        2979.25           1613          52.00       202.70
  124.61        2979.50           1616          54.00       211.42
  124.64        2979.75           1620          49.00       189.63
  124.67        2980.00           1623          59.00       233.22
  124.70        2980.25           1626          62.00       246.30
  124.73        2980.50           1630          51.00       198.34
  124.76        2980.75           1633          64.00       255.02
  124.79        2981.00           1637          55.00       215.78
  124.82        2981.25           1640          55.00       215.78
  124.85        2981.50           1643          51.00       198.34
  124.88        2981.75           1647          50.00       193.99
  124.91        2982.00           1650          50.00       193.99
  124.94        2982.25           1653          59.00       233.22
  124.98        2982.50           1657          61.00       241.94
  125.01        2982.75           1660          43.00       163.47
  125.04        2983.00           1663          56.00       220.14
  125.07        2983.25           1667          50.00       193.99
  125.10        2983.50           1670          56.00       220.14
  125.13        2983.75           1673          49.00       189.63
  125.16        2984.00           1677          61.00       241.94
HS scan finished at 02:05:22
end
************************************************************
  HS Scan of (1) Internal mercury lamp
************************************************************
Integration time is 0.2294 seconds per sample
dh010418Manchester 53.47 2.23 2.804185pr1000
************************************************************
Dead Time -------------------------  3E-08 
Number of Cycles Used -------------  4 
Starting Wavelength (Angstroms) ---  2950 
Final Wavelength (Angstoms) -------  2984 
Wavelength Increment (Angstroms) --  .25 
Filter Wheel #1 Position ---------- (1) Ground quartz diffuser (ND=2.32)
Filter Wheel #2 Position ---------- (1) Neutral Density 0.494



************************************************************
HS scan start time = 19:42:01
Dark Count =  6.7 


Time (GMT)  Wavelength (Ang)  Step Number  Raw Counts  Counts/Second

 1182.39        2950.00           1222          65.00       254.14
 1182.46        2950.25           1226          57.00       219.27
 1182.49        2950.50           1229          54.00       206.19
 1182.52        2950.75           1232          57.00       219.27
 1182.55        2951.00           1236          58.00       223.63
 1182.58        2951.25           1239          59.00       227.99
 1182.61        2951.50           1242          64.00       249.78
 1182.64        2951.75           1246          65.00       254.14
 1182.67        2952.00           1249          61.00       236.71
 1182.70        2952.25           1252          73.00       289.02
 1182.73        2952.50           1256          63.00       245.42
 1182.76        2952.75           1259          57.00       219.27
 1182.79        2953.00           1262          54.00       206.19
 1182.82        2953.25           1266          72.00       284.66
 1182.85        2953.50           1269          54.00       206.19
 1182.89        2953.75           1272          61.00       236.71
 1182.92        2954.00           1276          54.00       206.19
 1182.95        2954.25           1279          54.00       206.19
 1182.98        2954.50           1282          61.00       236.71
 1183.01        2954.75           1286          56.00       214.91
 1183.04        2955.00           1289          63.00       245.42
 1183.07        2955.25           1292          58.00       223.63
 1183.10        2955.50           1296          63.00       245.42
 1183.13        2955.75           1299          54.00       206.19
 1183.16        2956.00           1302          61.00       236.71
 1183.19        2956.25           1306          52.00       197.47
 1183.22        2956.50           1309          57.00       219.27
 1183.25        2956.75           1312          64.00       249.78
 1183.29        2957.00           1316          61.00       236.71
 1183.32        2957.25           1319          57.00       219.27
 1183.35        2957.50           1322          54.00       206.19
 1183.38        2957.75           1326          52.00       197.47
 1183.41        2958.00           1329          58.00       223.63
 1183.44        2958.25           1332          68.00       267.22
 1183.47        2958.50           1336          59.00       227.99
 1183.50        2958.75           1339          65.00       254.14
 1183.53        2959.00           1342          57.00       219.27
 1183.56        2959.25           1346          62.00       241.07
 1183.60        2959.50           1349          62.00       241.07
 1183.63        2959.75           1352          68.00       267.22
 1183.66        2960.00           1356          94.00       380.56
 1183.69        2960.25           1359         119.00       489.55
 1183.72        2960.50           1362         140.00       581.09
 1183.75        2960.75           1366         205.00       864.45
 1183.78        2961.00           1369         229.00       969.08
 1183.81        2961.25           1372         257.00      1091.14
 1183.84        2961.50           1376         340.00      1452.98
 1183.87        2961.75           1379         407.00      1745.08
 1183.90        2962.00           1382         739.00      3192.55
 1183.93        2962.25           1386        2056.00      8935.70
 1183.97        2962.50           1389        3440.00     14973.16
 1184.00        2962.75           1392        4773.00     20790.21
 1184.03        2963.00           1396        6676.00     29098.19
 1184.06        2963.25           1399        8052.00     35108.01
 1184.09        2963.50           1402        9615.00     41937.21
 1184.12        2963.75           1406       11638.00     50780.44
 1184.15        2964.00           1409       13036.00     56894.32
 1184.18        2964.25           1412       14685.00     64108.80
 1184.21        2964.50           1416       16684.00     72858.74
 1184.24        2964.75           1419       18198.00     79488.81
 1184.27        2965.00           1422       19482.00     85113.75
 1184.30        2965.25           1426       21514.00     94019.40
 1184.34        2965.50           1429       23046.00    100736.90
 1184.37        2965.75           1432       24504.00    107132.40
 1184.40        2966.00           1436       26440.00    115628.40
 1184.43        2966.25           1439       27824.00    121704.70
 1184.46        2966.50           1442       29239.00    127919.40
 1184.49        2966.75           1446       31069.00    135960.10
 1184.52        2967.00           1449       31830.00    139305.00
 1184.55        2967.25           1452       31954.00    139850.10
 1184.58        2967.50           1456       32109.00    140531.50
 1184.61        2967.75           1459       31929.00    139740.20
 1184.64        2968.00           1462       32005.00    140074.30
 1184.67        2968.25           1466       31541.00    138034.70
 1184.71        2968.50           1469       30375.00    132910.40
 1184.74        2968.75           1472       29375.00    128516.80
 1184.77        2969.00           1476       27196.00    118947.30
 1184.80        2969.25           1479       25828.00    112942.20
 1184.83        2969.50           1482       24368.00    106535.70
 1184.86        2969.75           1486       22353.00     97697.88
 1184.89        2970.00           1489       20853.00     91121.91
 1184.92        2970.25           1492       19353.00     84548.54
 1184.95        2970.50           1496       17406.00     76020.18
 1184.98        2970.75           1499       16056.00     70109.38
 1185.02        2971.00           1502       14456.00     63106.72
 1185.05        2971.25           1506       12476.00     54445.01
 1185.08        2971.50           1509       10898.00     47545.10
 1185.11        2971.75           1513        9051.00     39472.61
 1185.14        2972.00           1516        7810.00     34050.90
 1185.17        2972.25           1519        6183.00     26945.49
 1185.20        2972.50           1523        4247.00     18494.57
 1185.23        2972.75           1526        2749.00     11958.52
 1185.26        2973.00           1529        1492.00      6475.97
 1185.29        2973.25           1533         532.00      2290.04
 1185.33        2973.50           1536         365.00      1561.97
 1185.36        2973.75           1539         309.00      1317.84
 1185.39        2974.00           1543         274.00      1165.25
 1185.42        2974.25           1546         206.00       868.81
 1185.45        2974.50           1549         174.00       729.31
 1185.48        2974.75           1553         110.00       450.31
 1185.51        2975.00           1556          87.00       350.05
 1185.54        2975.25           1559          69.00       271.58
 1185.57        2975.50           1563          60.00       232.35
 1185.60        2975.75           1566          62.00       241.07
 1185.63        2976.00           1569          56.00       214.91
 1185.66        2976.25           1573          56.00       214.91
 1185.69        2976.50           1576          50.00       188.75
 1185.72        2976.75           1579          60.00       232.35
 1185.76        2977.00           1583          54.00       206.19
 1185.79        2977.25           1586          62.00       241.07
 1185.82        2977.50           1590          57.00       219.27
 1185.85        2977.75           1593          62.00       241.07
 1185.88        2978.00           1596          56.00       214.91
 1185.91        2978.25           1600          58.00       223.63
 1185.94        2978.50           1603          61.00       236.71
 1185.97        2978.75           1606          59.00       227.99
 1186.00        2979.00           1610          57.00       219.27
 1186.03        2979.25           1613          56.00       214.91
 1186.06        2979.50           1616          60.00       232.35
 1186.09        2979.75           1620          51.00       193.11
 1186.12        2980.00           1623          50.00       188.75
 1186.15        2980.25           1626          49.00       184.40
 1186.19        2980.50           1630          56.00       214.91
 1186.22        2980.75           1633          57.00       219.27
 1186.25        2981.00           1637          51.00       193.11
 1186.28        2981.25           1640          50.00       188.75
 1186.31        2981.50           1643          58.00       223.63
 1186.34        2981.75           1647          58.00       223.63
 1186.37        2982.00           1650          48.00       180.04
 1186.40        2982.25           1653          51.00       193.11
 1186.43        2982.50           1657          58.00       223.63
 1186.46        2982.75           1660          53.00       201.83
 1186.49        2983.00           1663          53.00       201.83
 1186.52        2983.25           1667          48.00       180.04
 1186.56        2983.50           1670          53.00       201.83
 1186.59        2983.75           1673          50.00       188.75
 1186.62        2984.00           1677          48.00       180.04
HS scan finished at 19:46:50
end
