************************************************************
  HS Scan of (1) Internal mercury lamp
************************************************************
Integration time is 0.2294 seconds per sample
dh060419Manchester 53.47 2.23 2.804185pr1000
************************************************************
Dead Time -------------------------  3E-08 
Number of Cycles Used -------------  4 
Starting Wavelength (Angstroms) ---  2950 
Final Wavelength (Angstoms) -------  2984 
Wavelength Increment (Angstroms) --  .25 
Filter Wheel #1 Position ---------- (1) Ground quartz diffuser (ND=2.32)
Filter Wheel #2 Position ---------- (1) Neutral Density 0.494



************************************************************
HS scan start time = 01:35:31
Dark Count =  6.7 


Time (GMT)  Wavelength (Ang)  Step Number  Raw Counts  Counts/Second

   95.88        2950.00           1222          59.00       227.99
   95.95        2950.25           1226          50.00       188.75
   95.98        2950.50           1229          55.00       210.55
   96.01        2950.75           1232          55.00       210.55
   96.04        2951.00           1236          55.00       210.55
   96.08        2951.25           1239          59.00       227.99
   96.11        2951.50           1242          56.00       214.91
   96.14        2951.75           1246          54.00       206.19
   96.17        2952.00           1249          50.00       188.75
   96.20        2952.25           1252          64.00       249.78
   96.23        2952.50           1256          47.00       175.68
   96.26        2952.75           1259          56.00       214.91
   96.29        2953.00           1262          54.00       206.19
   96.32        2953.25           1266          63.00       245.42
   96.35        2953.50           1269          66.00       258.50
   96.39        2953.75           1272          48.00       180.04
   96.42        2954.00           1276          55.00       210.55
   96.45        2954.25           1279          67.00       262.86
   96.48        2954.50           1282          55.00       210.55
   96.51        2954.75           1286          52.00       197.47
   96.54        2955.00           1289          50.00       188.75
   96.57        2955.25           1292          56.00       214.91
   96.60        2955.50           1296          59.00       227.99
   96.63        2955.75           1299          55.00       210.55
   96.66        2956.00           1302          55.00       210.55
   96.70        2956.25           1306          55.00       210.55
   96.73        2956.50           1309          57.00       219.27
   96.76        2956.75           1312          48.00       180.04
   96.79        2957.00           1316          54.00       206.19
   96.82        2957.25           1319          59.00       227.99
   96.85        2957.50           1322          53.00       201.83
   96.88        2957.75           1326          52.00       197.47
   96.91        2958.00           1329          58.00       223.63
   96.94        2958.25           1332          52.00       197.47
   96.98        2958.50           1336          54.00       206.19
   97.01        2958.75           1339          49.00       184.40
   97.04        2959.00           1342          54.00       206.19
   97.07        2959.25           1346          60.00       232.35
   97.10        2959.50           1349          62.00       241.07
   97.13        2959.75           1352          72.00       284.66
   97.16        2960.00           1356         104.00       424.16
   97.19        2960.25           1359         124.00       511.34
   97.22        2960.50           1362         154.00       642.12
   97.26        2960.75           1366         191.00       803.42
   97.29        2961.00           1369         229.00       969.08
   97.32        2961.25           1372         256.00      1086.78
   97.35        2961.50           1376         316.00      1348.35
   97.38        2961.75           1379         502.00      2159.25
   97.41        2962.00           1382        1192.00      5167.76
   97.44        2962.25           1386        2557.00     11120.97
   97.47        2962.50           1389        3710.00     16151.24
   97.50        2962.75           1392        4895.00     21322.70
   97.53        2963.00           1396        6420.00     27980.32
   97.57        2963.25           1399        7639.00     33303.97
   97.60        2963.50           1402        8981.00     39166.74
   97.63        2963.75           1406       10639.00     46412.88
   97.66        2964.00           1409       12141.00     52979.96
   97.69        2964.25           1412       13364.00     58329.10
   97.72        2964.50           1416       14951.00     65272.86
   97.75        2964.75           1419       16251.00     70963.03
   97.78        2965.00           1422       17416.00     76063.96
   97.81        2965.25           1426       19130.00     83571.53
   97.85        2965.50           1429       20387.00     89079.51
   97.88        2965.75           1432       21629.00     94523.55
   97.91        2966.00           1436       23279.00    101758.80
   97.94        2966.25           1439       24312.00    106290.00
   97.97        2966.50           1442       25598.00    111932.80
   98.00        2966.75           1446       26512.00    115944.40
   98.03        2967.00           1449       26675.00    116660.00
   98.06        2967.25           1452       26703.00    116782.90
   98.09        2967.50           1456       26831.00    117344.80
   98.13        2967.75           1459       26664.00    116611.70
   98.16        2968.00           1462       26475.00    115782.00
   98.19        2968.25           1466       25606.00    111967.90
   98.22        2968.50           1469       24394.00    106649.80
   98.25        2968.75           1472       23538.00    102894.70
   98.28        2969.00           1476       21934.00     95860.72
   98.31        2969.25           1479       20458.00     89390.68
   98.34        2969.50           1482       19232.00     84018.40
   98.37        2969.75           1486       17705.00     77329.59
   98.41        2970.00           1489       16183.00     70665.35
   98.44        2970.25           1492       15332.00     66940.31
   98.47        2970.50           1496       13582.00     59282.76
   98.50        2970.75           1499       12291.00     53635.93
   98.53        2971.00           1502       11183.00     48791.07
   98.56        2971.25           1506        9486.00     41373.47
   98.59        2971.50           1509        8172.00     35632.23
   98.62        2971.75           1513        6572.00     28644.05
   98.65        2972.00           1516        5427.00     23644.93
   98.69        2972.25           1519        4174.00     18175.99
   98.72        2972.50           1523        2599.00     11304.18
   98.75        2972.75           1526        1463.00      6349.51
   98.78        2973.00           1529         634.00      2734.75
   98.81        2973.25           1533         337.00      1439.91
   98.84        2973.50           1536         279.00      1187.05
   98.87        2973.75           1539         240.00      1017.03
   98.90        2974.00           1543         197.00       829.58
   98.93        2974.25           1546         157.00       655.20
   98.97        2974.50           1549         117.00       480.83
   99.00        2974.75           1553          98.00       398.00
   99.03        2975.00           1556          74.00       293.38
   99.06        2975.25           1559          52.00       197.47
   99.09        2975.50           1563          51.00       193.11
   99.12        2975.75           1566          47.00       175.68
   99.15        2976.00           1569          52.00       197.47
   99.18        2976.25           1573          51.00       193.11
   99.21        2976.50           1576          56.00       214.91
   99.24        2976.75           1579          61.00       236.71
   99.28        2977.00           1583          55.00       210.55
   99.31        2977.25           1586          51.00       193.11
   99.34        2977.50           1590          54.00       206.19
   99.37        2977.75           1593          63.00       245.42
   99.40        2978.00           1596          55.00       210.55
   99.43        2978.25           1600          46.00       171.32
   99.46        2978.50           1603          61.00       236.71
   99.49        2978.75           1606          60.00       232.35
   99.52        2979.00           1610          46.00       171.32
   99.55        2979.25           1613          40.00       145.16
   99.58        2979.50           1616          58.00       223.63
   99.61        2979.75           1620          52.00       197.47
   99.64        2980.00           1623          48.00       180.04
   99.68        2980.25           1626          48.00       180.04
   99.71        2980.50           1630          50.00       188.75
   99.74        2980.75           1633          47.00       175.68
   99.77        2981.00           1637          51.00       193.11
   99.80        2981.25           1640          50.00       188.75
   99.83        2981.50           1643          51.00       193.11
   99.86        2981.75           1647          42.00       153.88
   99.89        2982.00           1650          45.00       166.96
   99.92        2982.25           1653          57.00       219.27
   99.95        2982.50           1657          55.00       210.55
   99.98        2982.75           1660          47.00       175.68
  100.02        2983.00           1663          50.00       188.75
  100.05        2983.25           1667          55.00       210.55
  100.08        2983.50           1670          56.00       214.91
  100.11        2983.75           1673          45.00       166.96
  100.14        2984.00           1677          46.00       171.32
HS scan finished at 01:40:21
end
************************************************************
  HS Scan of (1) Internal mercury lamp
************************************************************
Integration time is 0.2294 seconds per sample
dh060419Manchester 53.47 2.23 2.804185pr1000
************************************************************
Dead Time -------------------------  3E-08 
Number of Cycles Used -------------  4 
Starting Wavelength (Angstroms) ---  2950 
Final Wavelength (Angstoms) -------  2984 
Wavelength Increment (Angstroms) --  .25 
Filter Wheel #1 Position ---------- (1) Ground quartz diffuser (ND=2.32)
Filter Wheel #2 Position ---------- (1) Neutral Density 0.494



************************************************************
HS scan start time = 19:42:21
Dark Count =  8 


Time (GMT)  Wavelength (Ang)  Step Number  Raw Counts  Counts/Second

 1182.72        2950.00           1222          55.00       204.88
 1182.79        2950.25           1226          58.00       217.96
 1182.82        2950.50           1229          54.00       200.52
 1182.85        2950.75           1232          57.00       213.60
 1182.88        2951.00           1236          51.00       187.45
 1182.91        2951.25           1239          56.00       209.24
 1182.94        2951.50           1242          63.00       239.76
 1182.98        2951.75           1246          54.00       200.52
 1183.01        2952.00           1249          58.00       217.96
 1183.04        2952.25           1252          58.00       217.96
 1183.07        2952.50           1256          52.00       191.81
 1183.10        2952.75           1259          54.00       200.52
 1183.13        2953.00           1262          56.00       209.24
 1183.16        2953.25           1266          61.00       231.04
 1183.19        2953.50           1269          51.00       187.45
 1183.22        2953.75           1272          55.00       204.88
 1183.25        2954.00           1276          60.00       226.68
 1183.29        2954.25           1279          59.00       222.32
 1183.32        2954.50           1282          56.00       209.24
 1183.35        2954.75           1286          59.00       222.32
 1183.38        2955.00           1289          57.00       213.60
 1183.41        2955.25           1292          61.00       231.04
 1183.44        2955.50           1296          59.00       222.32
 1183.47        2955.75           1299          60.00       226.68
 1183.50        2956.00           1302          53.00       196.17
 1183.53        2956.25           1306          56.00       209.24
 1183.56        2956.50           1309          48.00       174.37
 1183.60        2956.75           1312          65.00       248.48
 1183.63        2957.00           1316          63.00       239.76
 1183.66        2957.25           1319          57.00       213.60
 1183.69        2957.50           1322          51.00       187.45
 1183.72        2957.75           1326          51.00       187.45
 1183.75        2958.00           1329          53.00       196.17
 1183.78        2958.25           1332          53.00       196.17
 1183.81        2958.50           1336          47.00       170.01
 1183.84        2958.75           1339          57.00       213.60
 1183.87        2959.00           1342          57.00       213.60
 1183.90        2959.25           1346          61.00       231.04
 1183.93        2959.50           1349          58.00       217.96
 1183.97        2959.75           1352          70.00       270.27
 1184.00        2960.00           1356          83.00       326.94
 1184.03        2960.25           1359         104.00       418.49
 1184.06        2960.50           1362         141.00       579.78
 1184.09        2960.75           1366         187.00       780.31
 1184.12        2961.00           1369         212.00       889.30
 1184.15        2961.25           1372         247.00      1041.88
 1184.18        2961.50           1376         308.00      1307.81
 1184.21        2961.75           1379         408.00      1743.77
 1184.24        2962.00           1382         822.00      3548.77
 1184.28        2962.25           1386        2122.00      9217.89
 1184.31        2962.50           1389        3370.00     14662.07
 1184.34        2962.75           1392        4571.00     19902.90
 1184.37        2963.00           1396        6085.00     26511.93
 1184.40        2963.25           1399        7411.00     32302.43
 1184.43        2963.50           1402        8613.00     37553.18
 1184.46        2963.75           1406       10223.00     44588.82
 1184.49        2964.00           1409       11370.00     49602.97
 1184.53        2964.25           1412       12522.00     54640.50
 1184.56        2964.50           1416       14320.00     62505.95
 1184.59        2964.75           1419       15501.00     67674.31
 1184.62        2965.00           1422       16668.00     72782.99
 1184.65        2965.25           1426       18374.00     80254.03
 1184.68        2965.50           1429       19696.00     86045.72
 1184.71        2965.75           1432       20985.00     91694.80
 1184.74        2966.00           1436       22841.00     99832.11
 1184.77        2966.25           1439       23756.00    103845.20
 1184.81        2966.50           1442       24973.00    109184.40
 1184.84        2966.75           1446       26202.00    114578.00
 1184.87        2967.00           1449       26554.00    116123.10
 1184.90        2967.25           1452       26729.00    116891.30
 1184.93        2967.50           1456       26665.00    116610.40
 1184.96        2967.75           1459       26806.00    117229.40
 1184.99        2968.00           1462       26626.00    116439.20
 1185.02        2968.25           1466       26052.00    113919.60
 1185.05        2968.50           1469       24851.00    108649.10
 1185.09        2968.75           1472       23824.00    104143.50
 1185.12        2969.00           1476       22079.00     96490.78
 1185.15        2969.25           1479       20877.00     91221.40
 1185.18        2969.50           1482       19850.00     86720.53
 1185.21        2969.75           1486       18168.00     79351.71
 1185.24        2970.00           1489       16924.00     73903.87
 1185.27        2970.25           1492       15844.00     69175.68
 1185.30        2970.50           1496       14131.00     61678.98
 1185.33        2970.75           1499       12836.00     56013.84
 1185.37        2971.00           1502       11666.00     50897.19
 1185.40        2971.25           1506        9989.00     43566.06
 1185.43        2971.50           1509        8671.00     37806.59
 1185.46        2971.75           1513        7149.00     31158.15
 1185.49        2972.00           1516        5821.00     25359.30
 1185.52        2972.25           1519        4568.00     19889.81
 1185.55        2972.50           1523        2855.00     12415.26
 1185.58        2972.75           1526        1711.00      7425.37
 1185.62        2973.00           1529         800.00      3452.84
 1185.65        2973.25           1533         362.00      1543.23
 1185.68        2973.50           1536         271.00      1146.51
 1185.71        2973.75           1539         230.00       967.77
 1185.74        2974.00           1543         198.00       828.27
 1185.77        2974.25           1546         139.00       571.06
 1185.80        2974.50           1549         111.00       449.00
 1185.83        2974.75           1553          88.00       348.74
 1185.86        2975.00           1556          68.00       261.55
 1185.90        2975.25           1559          62.00       235.40
 1185.93        2975.50           1563          50.00       183.09
 1185.96        2975.75           1566          52.00       191.81
 1185.99        2976.00           1569          49.00       178.73
 1186.02        2976.25           1573          53.00       196.17
 1186.05        2976.50           1576          48.00       174.37
 1186.08        2976.75           1579          50.00       183.09
 1186.11        2977.00           1583          55.00       204.88
 1186.14        2977.25           1586          51.00       187.45
 1186.18        2977.50           1590          52.00       191.81
 1186.21        2977.75           1593          52.00       191.81
 1186.24        2978.00           1596          54.00       200.52
 1186.27        2978.25           1600          56.00       209.24
 1186.30        2978.50           1603          51.00       187.45
 1186.33        2978.75           1606          51.00       187.45
 1186.36        2979.00           1610          54.00       200.52
 1186.39        2979.25           1613          50.00       183.09
 1186.42        2979.50           1616          55.00       204.88
 1186.45        2979.75           1620          54.00       200.52
 1186.48        2980.00           1623          53.00       196.17
 1186.51        2980.25           1626          54.00       200.52
 1186.55        2980.50           1630          50.00       183.09
 1186.58        2980.75           1633          51.00       187.45
 1186.61        2981.00           1637          61.00       231.04
 1186.64        2981.25           1640          53.00       196.17
 1186.67        2981.50           1643          56.00       209.24
 1186.70        2981.75           1647          56.00       209.24
 1186.73        2982.00           1650          53.00       196.17
 1186.76        2982.25           1653          56.00       209.24
 1186.79        2982.50           1657          54.00       200.52
 1186.82        2982.75           1660          43.00       152.57
 1186.85        2983.00           1663          51.00       187.45
 1186.88        2983.25           1667          57.00       213.60
 1186.92        2983.50           1670          57.00       213.60
 1186.95        2983.75           1673          50.00       183.09
 1186.98        2984.00           1677          55.00       204.88
HS scan finished at 19:47:12
end
