************************************************************
  HS Scan of (1) Internal mercury lamp
************************************************************
Integration time is 0.2294 seconds per sample
dh030417Manchester 53.47 2.23 2.804185pr1000
************************************************************
Dead Time -------------------------  3E-08 
Number of Cycles Used -------------  4 
Starting Wavelength (Angstroms) ---  2950 
Final Wavelength (Angstoms) -------  2984 
Wavelength Increment (Angstroms) --  .25 
Filter Wheel #1 Position ---------- (1) Ground quartz diffuser (ND=2.32)
Filter Wheel #2 Position ---------- (1) Neutral Density 0.494



************************************************************
HS scan start time = 01:43:41
Dark Count =  7.7 


Time (GMT)  Wavelength (Ang)  Step Number  Raw Counts  Counts/Second

  104.05        2950.00           1222          44.00       158.24
  104.11        2950.25           1226          44.00       158.24
  104.14        2950.50           1229          49.00       180.04
  104.17        2950.75           1232          43.00       153.88
  104.21        2951.00           1236          53.00       197.47
  104.24        2951.25           1239          41.00       145.16
  104.27        2951.50           1242          40.00       140.80
  104.30        2951.75           1246          45.00       162.60
  104.33        2952.00           1249          51.00       188.75
  104.36        2952.25           1252          45.00       162.60
  104.39        2952.50           1256          47.00       171.32
  104.42        2952.75           1259          43.00       153.88
  104.45        2953.00           1262          46.00       166.96
  104.48        2953.25           1266          46.00       166.96
  104.52        2953.50           1269          47.00       171.32
  104.55        2953.75           1272          43.00       153.88
  104.58        2954.00           1276          48.00       175.68
  104.61        2954.25           1279          45.00       162.60
  104.64        2954.50           1282          44.00       158.24
  104.67        2954.75           1286          44.00       158.24
  104.70        2955.00           1289          51.00       188.75
  104.73        2955.25           1292          53.00       197.47
  104.76        2955.50           1296          50.00       184.40
  104.79        2955.75           1299          42.00       149.52
  104.82        2956.00           1302          42.00       149.52
  104.86        2956.25           1306          45.00       162.60
  104.89        2956.50           1309          49.00       180.04
  104.92        2956.75           1312          42.00       149.52
  104.95        2957.00           1316          49.00       180.04
  104.98        2957.25           1319          61.00       232.35
  105.01        2957.50           1322          46.00       166.96
  105.04        2957.75           1326          48.00       175.68
  105.07        2958.00           1329          46.00       166.96
  105.10        2958.25           1332          48.00       175.68
  105.13        2958.50           1336          49.00       180.04
  105.16        2958.75           1339          42.00       149.52
  105.20        2959.00           1342          46.00       166.96
  105.23        2959.25           1346          47.00       171.32
  105.26        2959.50           1349          47.00       171.32
  105.29        2959.75           1352          52.00       193.11
  105.32        2960.00           1356          63.00       241.07
  105.35        2960.25           1359          96.00       384.92
  105.38        2960.50           1362         131.00       537.50
  105.41        2960.75           1366         196.00       820.86
  105.44        2961.00           1369         241.00      1017.03
  105.47        2961.25           1372         276.00      1169.61
  105.50        2961.50           1376         374.00      1596.85
  105.53        2961.75           1379         522.00      2242.09
  105.57        2962.00           1382        1097.00      4749.15
  105.60        2962.25           1386        2905.00     12634.69
  105.63        2962.50           1389        4531.00     19729.64
  105.66        2962.75           1392        6238.00     27181.27
  105.69        2963.00           1396        8261.00     36016.67
  105.72        2963.25           1399        9979.00     43523.66
  105.75        2963.50           1402       11625.00     50719.23
  105.78        2963.75           1406       14010.00     61150.88
  105.81        2964.00           1409       15484.00     67601.22
  105.84        2964.25           1412       17124.00     74780.93
  105.88        2964.50           1416       19667.00     85919.96
  105.91        2964.75           1419       21174.00     92524.56
  105.94        2965.00           1422       22782.00     99574.69
  105.97        2965.25           1426       24942.00    109049.70
  106.00        2965.50           1429       26901.00    117647.70
  106.03        2965.75           1432       28711.00    125595.70
  106.06        2966.00           1436       30985.00    135586.60
  106.09        2966.25           1439       32542.00    142430.80
  106.12        2966.50           1442       34035.00    148996.30
  106.16        2966.75           1446       35486.00    155379.50
  106.19        2967.00           1449       36009.00    157680.90
  106.22        2967.25           1452       35979.00    157548.90
  106.25        2967.50           1456       36101.00    158085.80
  106.28        2967.75           1459       36089.00    158033.00
  106.31        2968.00           1462       35744.00    156514.80
  106.34        2968.25           1466       34581.00    151397.90
  106.37        2968.50           1469       33208.00    145359.20
  106.40        2968.75           1472       31525.00    137960.00
  106.44        2969.00           1476       29300.00    128182.90
  106.47        2969.25           1479       27768.00    121454.40
  106.50        2969.50           1482       26055.00    113934.10
  106.53        2969.75           1486       23979.00    104824.80
  106.56        2970.00           1489       22381.00     97816.27
  106.59        2970.25           1492       20715.00     90512.66
  106.62        2970.50           1496       18484.00     80737.18
  106.65        2970.75           1499       17097.00     74662.71
  106.68        2971.00           1502       15271.00     66668.96
  106.72        2971.25           1506       12937.00     56456.92
  106.75        2971.50           1509       11130.00     48554.99
  106.78        2971.75           1513        8980.00     39158.01
  106.81        2972.00           1516        7329.00     31945.60
  106.84        2972.25           1519        5767.00     25124.86
  106.87        2972.50           1523        3728.00     16225.42
  106.90        2972.75           1526        2270.00      9864.73
  106.93        2973.00           1529        1158.00      5015.14
  106.96        2973.25           1533         535.00      2298.76
  106.99        2973.50           1536         411.00      1758.16
  107.03        2973.75           1539         321.00      1365.79
  107.06        2974.00           1543         275.00      1165.25
  107.09        2974.25           1546         207.00       868.81
  107.12        2974.50           1549         178.00       742.39
  107.15        2974.75           1553         117.00       476.47
  107.18        2975.00           1556          81.00       319.53
  107.21        2975.25           1559          65.00       249.78
  107.24        2975.50           1563          45.00       162.60
  107.27        2975.75           1566          46.00       166.96
  107.30        2976.00           1569          47.00       171.32
  107.33        2976.25           1573          43.00       153.88
  107.36        2976.50           1576          55.00       206.19
  107.39        2976.75           1579          49.00       180.04
  107.42        2977.00           1583          40.00       140.80
  107.46        2977.25           1586          42.00       149.52
  107.49        2977.50           1590          44.00       158.24
  107.52        2977.75           1593          74.00       289.02
  107.55        2978.00           1596          51.00       188.75
  107.58        2978.25           1600          51.00       188.75
  107.61        2978.50           1603          43.00       153.88
  107.64        2978.75           1606          46.00       166.96
  107.67        2979.00           1610          47.00       171.32
  107.70        2979.25           1613          54.00       201.83
  107.73        2979.50           1616          39.00       136.44
  107.76        2979.75           1620          51.00       188.75
  107.80        2980.00           1623          47.00       171.32
  107.83        2980.25           1626          48.00       175.68
  107.86        2980.50           1630          42.00       149.52
  107.89        2980.75           1633          43.00       153.88
  107.92        2981.00           1637          45.00       162.60
  107.95        2981.25           1640          44.00       158.24
  107.98        2981.50           1643          40.00       140.80
  108.01        2981.75           1647          42.00       149.52
  108.04        2982.00           1650          53.00       197.47
  108.07        2982.25           1653          47.00       171.32
  108.10        2982.50           1657          43.00       153.88
  108.13        2982.75           1660          39.00       136.44
  108.16        2983.00           1663          37.00       127.72
  108.19        2983.25           1667          38.00       132.08
  108.23        2983.50           1670          48.00       175.68
  108.26        2983.75           1673          43.00       153.88
  108.29        2984.00           1677          42.00       149.52
HS scan finished at 01:48:30
end
************************************************************
  HS Scan of (1) Internal mercury lamp
************************************************************
Integration time is 0.2294 seconds per sample
dh030417Manchester 53.47 2.23 2.804185pr1000
************************************************************
Dead Time -------------------------  3E-08 
Number of Cycles Used -------------  4 
Starting Wavelength (Angstroms) ---  2950 
Final Wavelength (Angstoms) -------  2984 
Wavelength Increment (Angstroms) --  .25 
Filter Wheel #1 Position ---------- (1) Ground quartz diffuser (ND=2.32)
Filter Wheel #2 Position ---------- (1) Neutral Density 0.494



************************************************************
HS scan start time = 19:42:05
Dark Count =  6.4 


Time (GMT)  Wavelength (Ang)  Step Number  Raw Counts  Counts/Second

 1182.46        2950.00           1222          42.00       155.19
 1182.52        2950.25           1226          44.00       163.91
 1182.55        2950.50           1229          49.00       185.70
 1182.58        2950.75           1232          45.00       168.27
 1182.62        2951.00           1236          42.00       155.19
 1182.65        2951.25           1239          46.00       172.63
 1182.68        2951.50           1242          45.00       168.27
 1182.71        2951.75           1246          44.00       163.91
 1182.74        2952.00           1249          53.00       203.14
 1182.77        2952.25           1252          45.00       168.27
 1182.80        2952.50           1256          46.00       172.63
 1182.83        2952.75           1259          56.00       216.22
 1182.86        2953.00           1262          45.00       168.27
 1182.89        2953.25           1266          42.00       155.19
 1182.92        2953.50           1269          50.00       190.06
 1182.96        2953.75           1272          45.00       168.27
 1182.99        2954.00           1276          41.00       150.83
 1183.02        2954.25           1279          48.00       181.34
 1183.05        2954.50           1282          50.00       190.06
 1183.08        2954.75           1286          51.00       194.42
 1183.11        2955.00           1289          45.00       168.27
 1183.14        2955.25           1292          42.00       155.19
 1183.17        2955.50           1296          49.00       185.70
 1183.20        2955.75           1299          45.00       168.27
 1183.23        2956.00           1302          45.00       168.27
 1183.26        2956.25           1306          44.00       163.91
 1183.29        2956.50           1309          49.00       185.70
 1183.32        2956.75           1312          44.00       163.91
 1183.35        2957.00           1316          43.00       159.55
 1183.38        2957.25           1319          51.00       194.42
 1183.42        2957.50           1322          47.00       176.98
 1183.45        2957.75           1326          43.00       159.55
 1183.48        2958.00           1329          40.00       146.47
 1183.51        2958.25           1332          36.00       129.03
 1183.54        2958.50           1336          54.00       207.50
 1183.57        2958.75           1339          42.00       155.19
 1183.60        2959.00           1342          51.00       194.42
 1183.63        2959.25           1346          54.00       207.50
 1183.66        2959.50           1349          69.00       272.89
 1183.69        2959.75           1352          81.00       325.20
 1183.73        2960.00           1356         123.00       508.29
 1183.76        2960.25           1359         151.00       630.35
 1183.79        2960.50           1362         196.00       826.52
 1183.82        2960.75           1366         254.00      1079.37
 1183.85        2961.00           1369         317.00      1354.02
 1183.88        2961.25           1372         353.00      1510.97
 1183.91        2961.50           1376         449.00      1929.49
 1183.94        2961.75           1379         702.00      3032.53
 1183.97        2962.00           1382        1487.00      6455.48
 1184.00        2962.25           1386        3301.00     14368.01
 1184.04        2962.50           1389        5018.00     21860.89
 1184.07        2962.75           1392        6499.00     28326.59
 1184.10        2963.00           1396        8766.00     38228.65
 1184.13        2963.25           1399       10241.00     44674.48
 1184.16        2963.50           1402       11795.00     51468.25
 1184.19        2963.75           1406       14120.00     61637.85
 1184.22        2964.00           1409       15786.00     68928.78
 1184.25        2964.25           1412       17520.00     76520.71
 1184.28        2964.50           1416       19884.00     86876.52
 1184.31        2964.75           1419       21686.00     94774.75
 1184.34        2965.00           1422       23428.00    102413.60
 1184.38        2965.25           1426       25636.00    112100.90
 1184.41        2965.50           1429       27349.00    119620.30
 1184.44        2965.75           1432       28706.00    125579.50
 1184.47        2966.00           1436       31198.00    136528.40
 1184.50        2966.25           1439       32660.00    142955.30
 1184.53        2966.50           1442       33939.00    148579.70
 1184.56        2966.75           1446       35345.00    154764.90
 1184.59        2967.00           1449       35744.00    156520.50
 1184.62        2967.25           1452       35741.00    156507.30
 1184.65        2967.50           1456       35853.00    157000.20
 1184.69        2967.75           1459       35721.00    156419.30
 1184.72        2968.00           1462       35489.00    155398.50
 1184.75        2968.25           1466       34051.00    149072.40
 1184.78        2968.50           1469       32955.00    144252.40
 1184.81        2968.75           1472       31382.00    137337.10
 1184.84        2969.00           1476       29253.00    127982.20
 1184.87        2969.25           1479       27836.00    121758.70
 1184.90        2969.50           1482       26092.00    114102.20
 1184.94        2969.75           1486       23852.00    104273.40
 1184.97        2970.00           1489       22184.00     96958.16
 1185.00        2970.25           1492       20535.00     89729.46
 1185.03        2970.50           1496       18238.00     79665.32
 1185.06        2970.75           1499       16575.00     72382.81
 1185.09        2971.00           1502       14924.00     65156.01
 1185.12        2971.25           1506       12681.00     55342.90
 1185.15        2971.50           1509       11018.00     48071.02
 1185.18        2971.75           1513        8910.00     38857.83
 1185.21        2972.00           1516        7230.00     31518.90
 1185.24        2972.25           1519        5613.00     24458.22
 1185.28        2972.50           1523        3559.00     15493.69
 1185.31        2972.75           1526        2173.00      9447.32
 1185.34        2973.00           1529        1011.00      4379.83
 1185.37        2973.25           1533         397.00      1702.79
 1185.40        2973.50           1536         298.00      1271.19
 1185.43        2973.75           1539         251.00      1066.29
 1185.46        2974.00           1543         194.00       817.81
 1185.49        2974.25           1546         149.00       621.63
 1185.52        2974.50           1549         106.00       434.18
 1185.56        2974.75           1553          73.00       290.33
 1185.59        2975.00           1556          51.00       194.42
 1185.62        2975.25           1559          45.00       168.27
 1185.65        2975.50           1563          46.00       172.63
 1185.68        2975.75           1566          45.00       168.27
 1185.71        2976.00           1569          49.00       185.70
 1185.74        2976.25           1573          44.00       163.91
 1185.77        2976.50           1576          54.00       207.50
 1185.80        2976.75           1579          46.00       172.63
 1185.83        2977.00           1583          50.00       190.06
 1185.86        2977.25           1586          51.00       194.42
 1185.89        2977.50           1590          54.00       207.50
 1185.93        2977.75           1593          58.00       224.94
 1185.96        2978.00           1596          39.00       142.11
 1185.99        2978.25           1600          45.00       168.27
 1186.02        2978.50           1603          41.00       150.83
 1186.05        2978.75           1606          44.00       163.91
 1186.08        2979.00           1610          44.00       163.91
 1186.11        2979.25           1613          44.00       163.91
 1186.14        2979.50           1616          54.00       207.50
 1186.17        2979.75           1620          45.00       168.27
 1186.20        2980.00           1623          41.00       150.83
 1186.23        2980.25           1626          47.00       176.98
 1186.26        2980.50           1630          46.00       172.63
 1186.29        2980.75           1633          45.00       168.27
 1186.32        2981.00           1637          44.00       163.91
 1186.36        2981.25           1640          42.00       155.19
 1186.39        2981.50           1643          45.00       168.27
 1186.42        2981.75           1647          46.00       172.63
 1186.45        2982.00           1650          38.00       137.75
 1186.48        2982.25           1653          43.00       159.55
 1186.51        2982.50           1657          42.00       155.19
 1186.54        2982.75           1660          41.00       150.83
 1186.57        2983.00           1663          46.00       172.63
 1186.60        2983.25           1667          36.00       129.03
 1186.63        2983.50           1670          40.00       146.47
 1186.66        2983.75           1673          48.00       181.34
 1186.69        2984.00           1677          42.00       155.19
HS scan finished at 19:46:55
end
