************************************************************
  HS Scan of (1) Internal mercury lamp
************************************************************
Integration time is 0.2294 seconds per sample
dh030418Manchester 53.47 2.23 2.804185pr1000
************************************************************
Dead Time -------------------------  3E-08 
Number of Cycles Used -------------  4 
Starting Wavelength (Angstroms) ---  2950 
Final Wavelength (Angstoms) -------  2984 
Wavelength Increment (Angstroms) --  .25 
Filter Wheel #1 Position ---------- (1) Ground quartz diffuser (ND=2.32)
Filter Wheel #2 Position ---------- (1) Neutral Density 0.494



************************************************************
HS scan start time = 01:44:42
Dark Count =  5.8 


Time (GMT)  Wavelength (Ang)  Step Number  Raw Counts  Counts/Second

  105.06        2950.00           1222          59.00       231.91
  105.13        2950.25           1226          66.00       262.43
  105.16        2950.50           1229          64.00       253.71
  105.19        2950.75           1232          62.00       244.99
  105.22        2951.00           1236          54.00       210.11
  105.25        2951.25           1239          67.00       266.79
  105.28        2951.50           1242          59.00       231.91
  105.31        2951.75           1246          60.00       236.27
  105.34        2952.00           1249          57.00       223.19
  105.37        2952.25           1252          62.00       244.99
  105.41        2952.50           1256          60.00       236.27
  105.44        2952.75           1259          55.00       214.47
  105.47        2953.00           1262          62.00       244.99
  105.50        2953.25           1266          66.00       262.43
  105.53        2953.50           1269          62.00       244.99
  105.56        2953.75           1272          61.00       240.63
  105.59        2954.00           1276          56.00       218.83
  105.62        2954.25           1279          50.00       192.68
  105.65        2954.50           1282          55.00       214.47
  105.68        2954.75           1286          62.00       244.99
  105.71        2955.00           1289          57.00       223.19
  105.74        2955.25           1292          58.00       227.55
  105.77        2955.50           1296          58.00       227.55
  105.80        2955.75           1299          64.00       253.71
  105.83        2956.00           1302          58.00       227.55
  105.87        2956.25           1306          54.00       210.11
  105.90        2956.50           1309          57.00       223.19
  105.93        2956.75           1312          67.00       266.79
  105.96        2957.00           1316          60.00       236.27
  105.99        2957.25           1319          55.00       214.47
  106.02        2957.50           1322          61.00       240.63
  106.05        2957.75           1326          57.00       223.19
  106.08        2958.00           1329          55.00       214.47
  106.11        2958.25           1332          63.00       249.35
  106.14        2958.50           1336          58.00       227.55
  106.17        2958.75           1339          54.00       210.11
  106.20        2959.00           1342          58.00       227.55
  106.23        2959.25           1346          60.00       236.27
  106.26        2959.50           1349          65.00       258.07
  106.29        2959.75           1352          78.00       314.74
  106.33        2960.00           1356         113.00       467.31
  106.36        2960.25           1359         147.00       615.53
  106.39        2960.50           1362         171.00       720.16
  106.42        2960.75           1366         213.00       903.25
  106.45        2961.00           1369         266.00      1134.30
  106.48        2961.25           1372         297.00      1269.45
  106.51        2961.50           1376         417.00      1792.60
  106.54        2961.75           1379         742.00      3209.55
  106.57        2962.00           1382        1780.00      7735.88
  106.60        2962.25           1386        3590.00     15631.57
  106.64        2962.50           1389        4978.00     21688.91
  106.67        2962.75           1392        6487.00     28276.81
  106.70        2963.00           1396        8386.00     36571.05
  106.73        2963.25           1399        9791.00     42710.32
  106.76        2963.50           1402       11217.00     48943.65
  106.79        2963.75           1406       13402.00     58499.27
  106.82        2964.00           1409       14680.00     64090.86
  106.85        2964.25           1412       16321.00     71273.43
  106.88        2964.50           1416       18488.00     80763.00
  106.91        2964.75           1419       20091.00     87786.24
  106.95        2965.00           1422       21682.00     94759.84
  106.98        2965.25           1426       23531.00    102868.00
  107.01        2965.50           1429       25102.00    109760.10
  107.04        2965.75           1432       26721.00    116865.90
  107.07        2966.00           1436       28528.00    124800.30
  107.10        2966.25           1439       29915.00    130893.10
  107.13        2966.50           1442       31245.00    136737.60
  107.16        2966.75           1446       32262.00    141208.10
  107.19        2967.00           1449       32543.00    142443.50
  107.22        2967.25           1452       32465.00    142100.60
  107.25        2967.50           1456       32344.00    141568.60
  107.28        2967.75           1459       32475.00    142144.50
  107.32        2968.00           1462       32042.00    140240.90
  107.35        2968.25           1466       30438.00    133191.10
  107.38        2968.50           1469       29294.00    128164.90
  107.41        2968.75           1472       28062.00    122753.80
  107.44        2969.00           1476       26092.00    114104.90
  107.47        2969.25           1479       24583.00    107482.90
  107.50        2969.50           1482       23155.00    101218.80
  107.53        2969.75           1486       21100.00     92208.51
  107.56        2970.00           1489       19662.00     85906.38
  107.59        2970.25           1492       18012.00     78678.07
  107.62        2970.50           1496       16141.00     70485.43
  107.65        2970.75           1499       14681.00     64095.24
  107.68        2971.00           1502       13054.00     56977.00
  107.71        2971.25           1506       10838.00     47286.74
  107.75        2971.50           1509        9440.00     41176.38
  107.78        2971.75           1513        7519.00     32783.76
  107.81        2972.00           1516        6043.00     26338.16
  107.84        2972.25           1519        4696.00     20458.07
  107.87        2972.50           1523        2777.00     12084.59
  107.90        2972.75           1526        1525.00      6623.81
  107.93        2973.00           1529         692.00      2991.55
  107.96        2973.25           1533         392.00      1683.61
  107.99        2973.50           1536         335.00      1435.11
  108.02        2973.75           1539         288.00      1230.21
  108.05        2974.00           1543         238.00      1012.24
  108.09        2974.25           1546         194.00       820.42
  108.12        2974.50           1549         157.00       659.12
  108.15        2974.75           1553         110.00       454.23
  108.18        2975.00           1556          85.00       345.25
  108.21        2975.25           1559          60.00       236.27
  108.24        2975.50           1563          65.00       258.07
  108.27        2975.75           1566          59.00       231.91
  108.30        2976.00           1569          58.00       227.55
  108.33        2976.25           1573          61.00       240.63
  108.36        2976.50           1576          55.00       214.47
  108.39        2976.75           1579          53.00       205.76
  108.42        2977.00           1583          60.00       236.27
  108.45        2977.25           1586          55.00       214.47
  108.49        2977.50           1590          65.00       258.07
  108.52        2977.75           1593          55.00       214.47
  108.55        2978.00           1596          59.00       231.91
  108.58        2978.25           1600          62.00       244.99
  108.61        2978.50           1603          54.00       210.11
  108.64        2978.75           1606          59.00       231.91
  108.67        2979.00           1610          58.00       227.55
  108.70        2979.25           1613          54.00       210.11
  108.73        2979.50           1616          53.00       205.76
  108.76        2979.75           1620          53.00       205.76
  108.79        2980.00           1623          57.00       223.19
  108.82        2980.25           1626          46.00       175.24
  108.85        2980.50           1630          55.00       214.47
  108.88        2980.75           1633          63.00       249.35
  108.92        2981.00           1637          58.00       227.55
  108.95        2981.25           1640          58.00       227.55
  108.98        2981.50           1643          50.00       192.68
  109.01        2981.75           1647          48.00       183.96
  109.04        2982.00           1650          60.00       236.27
  109.07        2982.25           1653          53.00       205.76
  109.10        2982.50           1657          55.00       214.47
  109.13        2982.75           1660          61.00       240.63
  109.16        2983.00           1663          52.00       201.40
  109.19        2983.25           1667          54.00       210.11
  109.22        2983.50           1670          52.00       201.40
  109.25        2983.75           1673          49.00       188.32
  109.28        2984.00           1677          48.00       183.96
HS scan finished at 01:49:30
end
************************************************************
  HS Scan of (1) Internal mercury lamp
************************************************************
Integration time is 0.2294 seconds per sample
dh030418Manchester 53.47 2.23 2.804185pr1000
************************************************************
Dead Time -------------------------  3E-08 
Number of Cycles Used -------------  4 
Starting Wavelength (Angstroms) ---  2950 
Final Wavelength (Angstoms) -------  2984 
Wavelength Increment (Angstroms) --  .25 
Filter Wheel #1 Position ---------- (1) Ground quartz diffuser (ND=2.32)
Filter Wheel #2 Position ---------- (1) Neutral Density 0.494



************************************************************
HS scan start time = 19:42:01
Dark Count =  4.8 


Time (GMT)  Wavelength (Ang)  Step Number  Raw Counts  Counts/Second

 1182.38        2950.00           1222          56.00       223.19
 1182.45        2950.25           1226          60.00       240.63
 1182.48        2950.50           1229          63.00       253.71
 1182.51        2950.75           1232          59.00       236.27
 1182.54        2951.00           1236          55.00       218.83
 1182.57        2951.25           1239          59.00       236.27
 1182.60        2951.50           1242          55.00       218.83
 1182.63        2951.75           1246          50.00       197.04
 1182.66        2952.00           1249          52.00       205.76
 1182.69        2952.25           1252          56.00       223.19
 1182.73        2952.50           1256          62.00       249.35
 1182.76        2952.75           1259          59.00       236.27
 1182.79        2953.00           1262          57.00       227.55
 1182.82        2953.25           1266          61.00       244.99
 1182.85        2953.50           1269          64.00       258.07
 1182.88        2953.75           1272          56.00       223.19
 1182.91        2954.00           1276          57.00       227.55
 1182.94        2954.25           1279          61.00       244.99
 1182.97        2954.50           1282          70.00       284.22
 1183.00        2954.75           1286          74.00       301.66
 1183.03        2955.00           1289          67.00       271.14
 1183.06        2955.25           1292          57.00       227.55
 1183.09        2955.50           1296          62.00       249.35
 1183.13        2955.75           1299          58.00       231.91
 1183.16        2956.00           1302          55.00       218.83
 1183.19        2956.25           1306          66.00       266.79
 1183.22        2956.50           1309          64.00       258.07
 1183.25        2956.75           1312          56.00       223.19
 1183.28        2957.00           1316          63.00       253.71
 1183.31        2957.25           1319          71.00       288.58
 1183.34        2957.50           1322          58.00       231.91
 1183.37        2957.75           1326          62.00       249.35
 1183.40        2958.00           1329          60.00       240.63
 1183.43        2958.25           1332          56.00       223.19
 1183.46        2958.50           1336          60.00       240.63
 1183.49        2958.75           1339          68.00       275.50
 1183.52        2959.00           1342          56.00       223.19
 1183.55        2959.25           1346          61.00       244.99
 1183.59        2959.50           1349          74.00       301.66
 1183.62        2959.75           1352          77.00       314.74
 1183.65        2960.00           1356         116.00       484.75
 1183.68        2960.25           1359         126.00       528.34
 1183.71        2960.50           1362         170.00       720.16
 1183.74        2960.75           1366         213.00       907.61
 1183.77        2961.00           1369         281.00      1204.05
 1183.80        2961.25           1372         293.00      1256.37
 1183.83        2961.50           1376         372.00      1600.77
 1183.86        2961.75           1379         492.00      2123.94
 1183.89        2962.00           1382        1057.00      4587.38
 1183.92        2962.25           1386        2523.00     10980.95
 1183.95        2962.50           1389        3806.00     16578.43
 1183.98        2962.75           1392        5306.00     23125.02
 1184.02        2963.00           1396        7223.00     31495.31
 1184.05        2963.25           1399        8759.00     38205.06
 1184.08        2963.50           1402       10186.00     44441.08
 1184.11        2963.75           1406       12241.00     53425.58
 1184.14        2964.00           1409       13733.00     59951.67
 1184.17        2964.25           1412       15308.00     66843.60
 1184.20        2964.50           1416       17311.00     75612.47
 1184.23        2964.75           1419       18895.00     82550.30
 1184.26        2965.00           1422       20386.00     89083.44
 1184.29        2965.25           1426       22301.00     97478.19
 1184.32        2965.50           1429       23608.00    103210.10
 1184.35        2965.75           1432       25042.00    109501.20
 1184.39        2966.00           1436       27211.00    119021.40
 1184.42        2966.25           1439       28335.00    123957.10
 1184.45        2966.50           1442       29753.00    130185.70
 1184.48        2966.75           1446       31392.00    137388.10
 1184.51        2967.00           1449       31826.00    139295.80
 1184.54        2967.25           1452       32003.00    140073.90
 1184.57        2967.50           1456       32180.00    140852.00
 1184.60        2967.75           1459       32105.00    140522.30
 1184.63        2968.00           1462       32179.00    140847.60
 1184.66        2968.25           1466       31178.00    136447.60
 1184.69        2968.50           1469       30177.00    132048.70
 1184.73        2968.75           1472       28803.00    126012.50
 1184.76        2969.00           1476       26819.00    117300.50
 1184.79        2969.25           1479       25395.00    111050.30
 1184.82        2969.50           1482       23781.00    103968.90
 1184.85        2969.75           1486       21918.00     95798.90
 1184.88        2970.00           1489       20651.00     90244.87
 1184.91        2970.25           1492       19260.00     84149.40
 1184.94        2970.50           1496       17150.00     74907.46
 1184.97        2970.75           1499       15534.00     67832.76
 1185.00        2971.00           1502       14127.00     61675.49
 1185.03        2971.25           1506       12062.00     52642.80
 1185.06        2971.50           1509       10539.00     45984.06
 1185.09        2971.75           1513        8743.00     38135.15
 1185.13        2972.00           1516        7217.00     31469.10
 1185.16        2972.25           1519        5760.00     25106.96
 1185.19        2972.50           1523        3811.00     16600.24
 1185.22        2972.75           1526        2412.00     10496.77
 1185.25        2973.00           1529        1116.00      4844.64
 1185.28        2973.25           1533         462.00      1993.14
 1185.31        2973.50           1536         322.00      1382.80
 1185.34        2973.75           1539         286.00      1225.85
 1185.37        2974.00           1543         223.00       951.20
 1185.41        2974.25           1546         180.00       763.75
 1185.44        2974.50           1549         138.00       580.66
 1185.47        2974.75           1553          91.00       375.77
 1185.50        2975.00           1556          72.00       292.94
 1185.53        2975.25           1559          64.00       258.07
 1185.56        2975.50           1563          61.00       244.99
 1185.59        2975.75           1566          58.00       231.91
 1185.62        2976.00           1569          58.00       231.91
 1185.65        2976.25           1573          51.00       201.40
 1185.68        2976.50           1576          54.00       214.47
 1185.71        2976.75           1579          54.00       214.47
 1185.75        2977.00           1583          60.00       240.63
 1185.78        2977.25           1586          50.00       197.04
 1185.81        2977.50           1590          57.00       227.55
 1185.84        2977.75           1593          49.00       192.68
 1185.87        2978.00           1596          58.00       231.91
 1185.90        2978.25           1600          56.00       223.19
 1185.93        2978.50           1603          50.00       197.04
 1185.96        2978.75           1606          57.00       227.55
 1185.99        2979.00           1610          60.00       240.63
 1186.02        2979.25           1613          57.00       227.55
 1186.05        2979.50           1616          52.00       205.76
 1186.08        2979.75           1620          49.00       192.68
 1186.12        2980.00           1623          55.00       218.83
 1186.15        2980.25           1626          56.00       223.19
 1186.18        2980.50           1630          56.00       223.19
 1186.21        2980.75           1633          54.00       214.47
 1186.24        2981.00           1637          57.00       227.55
 1186.27        2981.25           1640          52.00       205.76
 1186.30        2981.50           1643          61.00       244.99
 1186.33        2981.75           1647          53.00       210.11
 1186.36        2982.00           1650          48.00       188.32
 1186.39        2982.25           1653          56.00       223.19
 1186.42        2982.50           1657          57.00       227.55
 1186.45        2982.75           1660          52.00       205.76
 1186.48        2983.00           1663          60.00       240.63
 1186.51        2983.25           1667          54.00       214.47
 1186.55        2983.50           1670          54.00       214.47
 1186.58        2983.75           1673          54.00       214.47
 1186.61        2984.00           1677          49.00       192.68
HS scan finished at 19:46:49
end
