************************************************************
  HS Scan of (1) Internal mercury lamp
************************************************************
Integration time is 0.2294 seconds per sample
dh310317Manchester 53.47 2.23 2.804185pr1000
************************************************************
Dead Time -------------------------  3E-08 
Number of Cycles Used -------------  4 
Starting Wavelength (Angstroms) ---  2950 
Final Wavelength (Angstoms) -------  2984 
Wavelength Increment (Angstroms) --  .25 
Filter Wheel #1 Position ---------- (1) Ground quartz diffuser (ND=2.32)
Filter Wheel #2 Position ---------- (1) Neutral Density 0.494



************************************************************
HS scan start time = 02:05:52
Dark Count =  8.2 


Time (GMT)  Wavelength (Ang)  Step Number  Raw Counts  Counts/Second

  126.24        2950.00           1222          49.00       177.86
  126.30        2950.25           1226          47.00       169.14
  126.33        2950.50           1229          48.00       173.50
  126.37        2950.75           1232          47.00       169.14
  126.40        2951.00           1236          41.00       142.98
  126.43        2951.25           1239          52.00       190.93
  126.46        2951.50           1242          48.00       173.50
  126.49        2951.75           1246          49.00       177.86
  126.52        2952.00           1249          38.00       129.90
  126.55        2952.25           1252          49.00       177.86
  126.58        2952.50           1256          50.00       182.22
  126.61        2952.75           1259          51.00       186.57
  126.64        2953.00           1262          54.00       199.65
  126.67        2953.25           1266          51.00       186.57
  126.70        2953.50           1269          52.00       190.93
  126.74        2953.75           1272          51.00       186.57
  126.77        2954.00           1276          51.00       186.57
  126.80        2954.25           1279          47.00       169.14
  126.83        2954.50           1282          48.00       173.50
  126.86        2954.75           1286          47.00       169.14
  126.89        2955.00           1289          50.00       182.22
  126.92        2955.25           1292          44.00       156.06
  126.95        2955.50           1296          44.00       156.06
  126.98        2955.75           1299          44.00       156.06
  127.01        2956.00           1302          46.00       164.78
  127.04        2956.25           1306          53.00       195.29
  127.07        2956.50           1309          52.00       190.93
  127.10        2956.75           1312          50.00       182.22
  127.13        2957.00           1316          39.00       134.26
  127.17        2957.25           1319          44.00       156.06
  127.20        2957.50           1322          45.00       160.42
  127.23        2957.75           1326          50.00       182.22
  127.26        2958.00           1329          49.00       177.86
  127.29        2958.25           1332          54.00       199.65
  127.32        2958.50           1336          48.00       173.50
  127.35        2958.75           1339          63.00       238.89
  127.38        2959.00           1342          47.00       169.14
  127.41        2959.25           1346          56.00       208.37
  127.44        2959.50           1349          58.00       217.09
  127.47        2959.75           1352          76.00       295.56
  127.50        2960.00           1356         104.00       417.62
  127.53        2960.25           1359         146.00       600.71
  127.56        2960.50           1362         180.00       748.93
  127.60        2960.75           1366         247.00      1041.01
  127.63        2961.00           1369         308.00      1306.94
  127.66        2961.25           1372         347.00      1476.96
  127.69        2961.50           1376         442.00      1891.13
  127.72        2961.75           1379         658.00      2832.85
  127.75        2962.00           1382        1326.00      5745.54
  127.78        2962.25           1386        3155.00     13723.17
  127.81        2962.50           1389        4733.00     20609.08
  127.85        2962.75           1392        6455.00     28126.60
  127.88        2963.00           1396        8588.00     37443.08
  127.91        2963.25           1399       10150.00     44268.87
  127.94        2963.50           1402       11763.00     51320.46
  127.97        2963.75           1406       13978.00     61008.68
  128.00        2964.00           1409       15647.00     68312.48
  128.03        2964.25           1412       17401.00     75991.71
  128.06        2964.50           1416       19676.00     85957.21
  128.09        2964.75           1419       21420.00     93600.74
  128.12        2965.00           1422       23297.00    101831.10
  128.16        2965.25           1426       25543.00    111684.80
  128.19        2965.50           1429       27138.00    118686.00
  128.22        2965.75           1432       28904.00    126441.20
  128.25        2966.00           1436       31102.00    136098.60
  128.28        2966.25           1439       32775.00    143453.00
  128.31        2966.50           1442       34262.00    149992.50
  128.34        2966.75           1446       35618.00    155958.20
  128.37        2967.00           1449       36304.00    158977.00
  128.40        2967.25           1452       36231.00    158655.70
  128.44        2967.50           1456       36322.00    159056.20
  128.47        2967.75           1459       36373.00    159280.70
  128.50        2968.00           1462       36204.00    158536.90
  128.53        2968.25           1466       35178.00    154022.20
  128.56        2968.50           1469       33799.00    147956.10
  128.59        2968.75           1472       32109.00    140524.90
  128.62        2969.00           1476       30050.00    131475.70
  128.65        2969.25           1479       28614.00    125167.50
  128.68        2969.50           1482       26831.00    117338.20
  128.71        2969.75           1486       24824.00    108529.80
  128.74        2970.00           1489       23136.00    101125.00
  128.78        2970.25           1492       21541.00     94131.18
  128.81        2970.50           1496       19036.00     83153.13
  128.84        2970.75           1499       17362.00     75820.93
  128.87        2971.00           1502       15666.00     68395.65
  128.90        2971.25           1506       13590.00     59311.19
  128.93        2971.50           1509       11729.00     51171.79
  128.96        2971.75           1513        9439.00     41161.52
  128.99        2972.00           1516        7773.00     33882.72
  129.02        2972.25           1519        6265.00     27296.97
  129.05        2972.50           1523        4084.00     17776.70
  129.08        2972.75           1526        2550.00     11083.90
  129.12        2973.00           1529        1276.00      5527.51
  129.15        2973.25           1533         481.00      2061.16
  129.18        2973.50           1536         339.00      1442.09
  129.21        2973.75           1539         263.00      1110.76
  129.24        2974.00           1543         224.00       940.74
  129.27        2974.25           1546         149.00       613.79
  129.30        2974.50           1549         117.00       474.29
  129.33        2974.75           1553          70.00       269.40
  129.36        2975.00           1556          55.00       204.01
  129.39        2975.25           1559          50.00       182.22
  129.42        2975.50           1563          54.00       199.65
  129.45        2975.75           1566          54.00       199.65
  129.48        2976.00           1569          49.00       177.86
  129.52        2976.25           1573          53.00       195.29
  129.55        2976.50           1576          48.00       173.50
  129.58        2976.75           1579          46.00       164.78
  129.61        2977.00           1583          56.00       208.37
  129.64        2977.25           1586          47.00       169.14
  129.67        2977.50           1590          47.00       169.14
  129.70        2977.75           1593          43.00       151.70
  129.73        2978.00           1596          44.00       156.06
  129.76        2978.25           1600          42.00       147.34
  129.79        2978.50           1603          50.00       182.22
  129.82        2978.75           1606          46.00       164.78
  129.85        2979.00           1610          48.00       173.50
  129.88        2979.25           1613          47.00       169.14
  129.91        2979.50           1616          42.00       147.34
  129.95        2979.75           1620          52.00       190.93
  129.98        2980.00           1623          52.00       190.93
  130.01        2980.25           1626          50.00       182.22
  130.04        2980.50           1630          46.00       164.78
  130.07        2980.75           1633          44.00       156.06
  130.10        2981.00           1637          50.00       182.22
  130.13        2981.25           1640          46.00       164.78
  130.16        2981.50           1643          42.00       147.34
  130.19        2981.75           1647          45.00       160.42
  130.22        2982.00           1650          47.00       169.14
  130.25        2982.25           1653          44.00       156.06
  130.29        2982.50           1657          39.00       134.26
  130.32        2982.75           1660          38.00       129.90
  130.35        2983.00           1663          47.00       169.14
  130.38        2983.25           1667          48.00       173.50
  130.41        2983.50           1670          44.00       156.06
  130.44        2983.75           1673          40.00       138.62
  130.47        2984.00           1677          39.00       134.26
HS scan finished at 02:10:41
end
************************************************************
  HS Scan of (1) Internal mercury lamp
************************************************************
Integration time is 0.2294 seconds per sample
dh310317Manchester 53.47 2.23 2.804185pr1000
************************************************************
Dead Time -------------------------  3E-08 
Number of Cycles Used -------------  4 
Starting Wavelength (Angstroms) ---  2950 
Final Wavelength (Angstoms) -------  2984 
Wavelength Increment (Angstroms) --  .25 
Filter Wheel #1 Position ---------- (1) Ground quartz diffuser (ND=2.32)
Filter Wheel #2 Position ---------- (1) Neutral Density 0.494



************************************************************
HS scan start time = 19:42:00
Dark Count =  6.5 


Time (GMT)  Wavelength (Ang)  Step Number  Raw Counts  Counts/Second

 1182.37        2950.00           1222          48.00       180.91
 1182.44        2950.25           1226          45.00       167.83
 1182.47        2950.50           1229          49.00       185.27
 1182.50        2950.75           1232          43.00       159.11
 1182.53        2951.00           1236          54.00       207.06
 1182.56        2951.25           1239          48.00       180.91
 1182.59        2951.50           1242          48.00       180.91
 1182.63        2951.75           1246          43.00       159.11
 1182.66        2952.00           1249          51.00       193.99
 1182.69        2952.25           1252          49.00       185.27
 1182.72        2952.50           1256          47.00       176.55
 1182.75        2952.75           1259          44.00       163.47
 1182.78        2953.00           1262          56.00       215.78
 1182.81        2953.25           1266          43.00       159.11
 1182.84        2953.50           1269          49.00       185.27
 1182.87        2953.75           1272          46.00       172.19
 1182.90        2954.00           1276          44.00       163.47
 1182.93        2954.25           1279          43.00       159.11
 1182.97        2954.50           1282          48.00       180.91
 1183.00        2954.75           1286          47.00       176.55
 1183.03        2955.00           1289          51.00       193.99
 1183.06        2955.25           1292          52.00       198.34
 1183.09        2955.50           1296          47.00       176.55
 1183.12        2955.75           1299          45.00       167.83
 1183.15        2956.00           1302          45.00       167.83
 1183.18        2956.25           1306          50.00       189.63
 1183.21        2956.50           1309          48.00       180.91
 1183.24        2956.75           1312          50.00       189.63
 1183.27        2957.00           1316          40.00       146.03
 1183.31        2957.25           1319          45.00       167.83
 1183.34        2957.50           1322          45.00       167.83
 1183.37        2957.75           1326          46.00       172.19
 1183.40        2958.00           1329          55.00       211.42
 1183.43        2958.25           1332          49.00       185.27
 1183.46        2958.50           1336          47.00       176.55
 1183.49        2958.75           1339          47.00       176.55
 1183.52        2959.00           1342          46.00       172.19
 1183.55        2959.25           1346          54.00       207.06
 1183.58        2959.50           1349          49.00       185.27
 1183.61        2959.75           1352          62.00       241.94
 1183.65        2960.00           1356          96.00       390.15
 1183.68        2960.25           1359         129.00       534.01
 1183.71        2960.50           1362         178.00       747.62
 1183.74        2960.75           1366         226.00       956.87
 1183.77        2961.00           1369         270.00      1148.69
 1183.80        2961.25           1372         311.00      1327.43
 1183.83        2961.50           1376         403.00      1728.51
 1183.86        2961.75           1379         615.00      2652.78
 1183.89        2962.00           1382        1223.00      5303.81
 1183.92        2962.25           1386        2907.00     12648.65
 1183.95        2962.50           1389        4376.00     19058.41
 1183.99        2962.75           1392        5906.00     25736.95
 1184.02        2963.00           1396        8021.00     34973.47
 1184.05        2963.25           1399        9765.00     42593.63
 1184.08        2963.50           1402       11328.00     49425.90
 1184.11        2963.75           1406       13706.00     59826.11
 1184.14        2964.00           1409       15244.00     66556.04
 1184.17        2964.25           1412       17104.00     74698.60
 1184.20        2964.50           1416       19509.00     85232.92
 1184.23        2964.75           1419       21361.00     93349.55
 1184.27        2965.00           1422       23177.00    101312.30
 1184.30        2965.25           1426       25274.00    110511.80
 1184.33        2965.50           1429       27007.00    118118.30
 1184.36        2965.75           1432       28680.00    125464.80
 1184.39        2966.00           1436       30813.00    134836.00
 1184.42        2966.25           1439       32386.00    141750.20
 1184.45        2966.50           1442       33884.00    148337.40
 1184.48        2966.75           1446       35687.00    156269.30
 1184.51        2967.00           1449       36076.00    157981.10
 1184.55        2967.25           1452       36246.00    158729.20
 1184.58        2967.50           1456       35978.00    157549.80
 1184.61        2967.75           1459       35988.00    157593.80
 1184.64        2968.00           1462       35921.00    157299.00
 1184.67        2968.25           1466       35003.00    153259.70
 1184.70        2968.50           1469       33745.00    147726.00
 1184.73        2968.75           1472       32126.00    140607.10
 1184.76        2969.00           1476       30091.00    131663.30
 1184.79        2969.25           1479       28549.00    124889.50
 1184.83        2969.50           1482       26994.00    118061.30
 1184.86        2969.75           1486       24831.00    108568.00
 1184.89        2970.00           1489       23265.00    101698.20
 1184.92        2970.25           1492       21502.00     93967.66
 1184.95        2970.50           1496       19247.00     84084.99
 1184.98        2970.75           1499       17535.00     76585.97
 1185.01        2971.00           1502       15814.00     69050.91
 1185.04        2971.25           1506       13684.00     59729.87
 1185.07        2971.50           1509       11909.00     51966.31
 1185.11        2971.75           1513        9640.00     42047.34
 1185.14        2972.00           1516        7990.00     34838.05
 1185.17        2972.25           1519        6530.00     28461.52
 1185.20        2972.50           1523        4290.00     18683.09
 1185.23        2972.75           1526        2831.00     12317.11
 1185.26        2973.00           1529        1521.00      6603.31
 1185.29        2973.25           1533         539.00      2321.43
 1185.32        2973.50           1536         338.00      1445.14
 1185.35        2973.75           1539         294.00      1253.32
 1185.38        2974.00           1543         269.00      1144.33
 1185.41        2974.25           1546         200.00       843.53
 1185.45        2974.50           1549         155.00       647.35
 1185.48        2974.75           1553         112.00       459.90
 1185.51        2975.00           1556          73.00       289.89
 1185.54        2975.25           1559          60.00       233.22
 1185.57        2975.50           1563          52.00       198.34
 1185.60        2975.75           1566          53.00       202.70
 1185.63        2976.00           1569          45.00       167.83
 1185.66        2976.25           1573          47.00       176.55
 1185.69        2976.50           1576          58.00       224.50
 1185.72        2976.75           1579          44.00       163.47
 1185.75        2977.00           1583          48.00       180.91
 1185.78        2977.25           1586          51.00       193.99
 1185.81        2977.50           1590          43.00       159.11
 1185.84        2977.75           1593          48.00       180.91
 1185.87        2978.00           1596          48.00       180.91
 1185.91        2978.25           1600          46.00       172.19
 1185.94        2978.50           1603          46.00       172.19
 1185.97        2978.75           1606          47.00       176.55
 1186.00        2979.00           1610          48.00       180.91
 1186.03        2979.25           1613          45.00       167.83
 1186.06        2979.50           1616          47.00       176.55
 1186.09        2979.75           1620          47.00       176.55
 1186.12        2980.00           1623          49.00       185.27
 1186.15        2980.25           1626          45.00       167.83
 1186.18        2980.50           1630          38.00       137.32
 1186.21        2980.75           1633          47.00       176.55
 1186.25        2981.00           1637          48.00       180.91
 1186.28        2981.25           1640          52.00       198.34
 1186.31        2981.50           1643          43.00       159.11
 1186.34        2981.75           1647          44.00       163.47
 1186.37        2982.00           1650          43.00       159.11
 1186.40        2982.25           1653          38.00       137.32
 1186.43        2982.50           1657          47.00       176.55
 1186.46        2982.75           1660          39.00       141.67
 1186.49        2983.00           1663          41.00       150.39
 1186.52        2983.25           1667          44.00       163.47
 1186.55        2983.50           1670          42.00       154.75
 1186.58        2983.75           1673          39.00       141.67
 1186.61        2984.00           1677          43.00       159.11
HS scan finished at 19:46:50
end
