************************************************************
  HS Scan of (1) Internal mercury lamp
************************************************************
Integration time is 0.2294 seconds per sample
dh020418Manchester 53.47 2.23 2.750537pr1000
************************************************************
Dead Time -------------------------  3E-08 
Number of Cycles Used -------------  4 
Starting Wavelength (Angstroms) ---  2950 
Final Wavelength (Angstoms) -------  2984 
Wavelength Increment (Angstroms) --  .25 
Filter Wheel #1 Position ---------- (1) Ground quartz diffuser (ND=2.32)
Filter Wheel #2 Position ---------- (1) Neutral Density 0.494



************************************************************
HS scan start time = 01:53:02
Dark Count =  9.600001 


Time (GMT)  Wavelength (Ang)  Step Number  Raw Counts  Counts/Second

  113.40        2950.00           1222          65.00       241.50
  113.46        2950.25           1226          60.00       219.71
  113.49        2950.50           1229          54.00       193.55
  113.53        2950.75           1232          62.00       228.42
  113.56        2951.00           1236          60.00       219.71
  113.59        2951.25           1239          53.00       189.19
  113.62        2951.50           1242          54.00       193.55
  113.65        2951.75           1246          57.00       206.63
  113.68        2952.00           1249          62.00       228.42
  113.71        2952.25           1252          57.00       206.63
  113.74        2952.50           1256          57.00       206.63
  113.77        2952.75           1259          61.00       224.06
  113.80        2953.00           1262          58.00       210.99
  113.83        2953.25           1266          54.00       193.55
  113.86        2953.50           1269          57.00       206.63
  113.89        2953.75           1272          68.00       254.58
  113.92        2954.00           1276          61.00       224.06
  113.96        2954.25           1279          68.00       254.58
  113.99        2954.50           1282          60.00       219.71
  114.02        2954.75           1286          60.00       219.71
  114.05        2955.00           1289          62.00       228.42
  114.08        2955.25           1292          57.00       206.63
  114.11        2955.50           1296          67.00       250.22
  114.14        2955.75           1299          59.00       215.35
  114.17        2956.00           1302          62.00       228.42
  114.20        2956.25           1306          59.00       215.35
  114.23        2956.50           1309          64.00       237.14
  114.26        2956.75           1312          68.00       254.58
  114.29        2957.00           1316          52.00       184.83
  114.32        2957.25           1319          66.00       245.86
  114.35        2957.50           1322          63.00       232.78
  114.38        2957.75           1326          51.00       180.47
  114.41        2958.00           1329          63.00       232.78
  114.44        2958.25           1332          64.00       237.14
  114.48        2958.50           1336          60.00       219.71
  114.51        2958.75           1339          57.00       206.63
  114.54        2959.00           1342          52.00       184.83
  114.57        2959.25           1346          64.00       237.14
  114.60        2959.50           1349          61.00       224.06
  114.63        2959.75           1352          78.00       298.17
  114.66        2960.00           1356          87.00       337.41
  114.69        2960.25           1359         115.00       459.47
  114.72        2960.50           1362         151.00       616.40
  114.75        2960.75           1366         187.00       773.34
  114.79        2961.00           1369         238.00       995.67
  114.82        2961.25           1372         279.00      1174.41
  114.85        2961.50           1376         364.00      1544.97
  114.88        2961.75           1379         676.00      2905.22
  114.91        2962.00           1382        1628.00      7056.42
  114.94        2962.25           1386        3277.00     14249.33
  114.97        2962.50           1389        4699.00     20454.57
  115.00        2962.75           1392        6019.00     26216.78
  115.03        2963.00           1396        7830.00     34125.59
  115.06        2963.25           1399        9400.00     40984.98
  115.09        2963.50           1402       10757.00     46916.03
  115.13        2963.75           1406       13047.00     56929.76
  115.16        2964.00           1409       14599.00     63719.78
  115.19        2964.25           1412       16084.00     70219.26
  115.22        2964.50           1416       18346.00     80124.36
  115.25        2964.75           1419       19714.00     86117.58
  115.28        2965.00           1422       21191.00     92590.76
  115.31        2965.25           1426       23155.00    101202.20
  115.34        2965.50           1429       24614.00    107602.20
  115.37        2965.75           1432       26164.00    114404.20
  115.41        2966.00           1436       28089.00    122855.60
  115.44        2966.25           1439       29338.00    128341.50
  115.47        2966.50           1442       30625.00    133996.20
  115.50        2966.75           1446       31769.00    139024.10
  115.53        2967.00           1449       31858.00    139415.40
  115.56        2967.25           1452       32002.00    140048.40
  115.59        2967.50           1456       31867.00    139454.90
  115.62        2967.75           1459       31779.00    139068.10
  115.65        2968.00           1462       31533.00    137986.80
  115.68        2968.25           1466       30291.00    132528.50
  115.72        2968.50           1469       29033.00    127001.70
  115.75        2968.75           1472       27632.00    120848.90
  115.78        2969.00           1476       25852.00    113034.80
  115.81        2969.25           1479       24313.00    106281.70
  115.84        2969.50           1482       22862.00     99917.19
  115.87        2969.75           1486       20865.00     91161.80
  115.90        2970.00           1489       19545.00     85377.07
  115.93        2970.25           1492       18043.00     78797.21
  115.96        2970.50           1496       16178.00     70630.77
  115.99        2970.75           1499       14601.00     63728.53
  116.02        2971.00           1502       12998.00     56715.43
  116.06        2971.25           1506       10964.00     47820.96
  116.09        2971.50           1509        9594.00     41832.77
  116.12        2971.75           1513        7674.00     33444.18
  116.15        2972.00           1516        6298.00     27434.95
  116.18        2972.25           1519        4907.00     21362.43
  116.21        2972.50           1523        3090.00     13433.49
  116.24        2972.75           1526        1655.00      7174.17
  116.27        2973.00           1529         732.00      3149.38
  116.30        2973.25           1533         386.00      1640.88
  116.33        2973.50           1536         315.00      1331.35
  116.36        2973.75           1539         271.00      1139.53
  116.39        2974.00           1543         234.00       978.23
  116.43        2974.25           1546         170.00       699.23
  116.46        2974.50           1549         117.00       468.18
  116.49        2974.75           1553          96.00       376.64
  116.52        2975.00           1556          76.00       289.45
  116.55        2975.25           1559          59.00       215.35
  116.58        2975.50           1563          62.00       228.42
  116.61        2975.75           1566          57.00       206.63
  116.64        2976.00           1569          63.00       232.78
  116.67        2976.25           1573          55.00       197.91
  116.70        2976.50           1576          64.00       237.14
  116.73        2976.75           1579          54.00       193.55
  116.77        2977.00           1583          61.00       224.06
  116.80        2977.25           1586          60.00       219.71
  116.83        2977.50           1590          62.00       228.42
  116.86        2977.75           1593          60.00       219.71
  116.89        2978.00           1596          62.00       228.42
  116.92        2978.25           1600          59.00       215.35
  116.95        2978.50           1603          64.00       237.14
  116.98        2978.75           1606          51.00       180.47
  117.01        2979.00           1610          57.00       206.63
  117.04        2979.25           1613          54.00       193.55
  117.07        2979.50           1616          57.00       206.63
  117.10        2979.75           1620          54.00       193.55
  117.14        2980.00           1623          53.00       189.19
  117.17        2980.25           1626          50.00       176.11
  117.20        2980.50           1630          55.00       197.91
  117.23        2980.75           1633          59.00       215.35
  117.26        2981.00           1637          58.00       210.99
  117.29        2981.25           1640          61.00       224.06
  117.32        2981.50           1643          52.00       184.83
  117.35        2981.75           1647          47.00       163.03
  117.38        2982.00           1650          51.00       180.47
  117.41        2982.25           1653          55.00       197.91
  117.44        2982.50           1657          46.00       158.68
  117.47        2982.75           1660          51.00       180.47
  117.50        2983.00           1663          49.00       171.75
  117.54        2983.25           1667          54.00       193.55
  117.57        2983.50           1670          47.00       163.03
  117.60        2983.75           1673          51.00       180.47
  117.63        2984.00           1677          53.00       189.19
HS scan finished at 01:57:51
end
************************************************************
  HS Scan of (1) Internal mercury lamp
************************************************************
Integration time is 0.2294 seconds per sample
dh020418Manchester 53.47 2.23 2.804185pr1000
************************************************************
Dead Time -------------------------  3E-08 
Number of Cycles Used -------------  4 
Starting Wavelength (Angstroms) ---  2950 
Final Wavelength (Angstoms) -------  2984 
Wavelength Increment (Angstroms) --  .25 
Filter Wheel #1 Position ---------- (1) Ground quartz diffuser (ND=2.32)
Filter Wheel #2 Position ---------- (1) Neutral Density 0.494



************************************************************
HS scan start time = 19:42:01
Dark Count =  5.4 


Time (GMT)  Wavelength (Ang)  Step Number  Raw Counts  Counts/Second

 1182.39        2950.00           1222          59.00       233.65
 1182.46        2950.25           1226          56.00       220.58
 1182.49        2950.50           1229          54.00       211.86
 1182.52        2950.75           1232          54.00       211.86
 1182.55        2951.00           1236          55.00       216.22
 1182.58        2951.25           1239          61.00       242.37
 1182.61        2951.50           1242          60.00       238.01
 1182.64        2951.75           1246          70.00       281.61
 1182.67        2952.00           1249          64.00       255.45
 1182.70        2952.25           1252          59.00       233.65
 1182.73        2952.50           1256          58.00       229.30
 1182.76        2952.75           1259          53.00       207.50
 1182.80        2953.00           1262          62.00       246.73
 1182.83        2953.25           1266          64.00       255.45
 1182.86        2953.50           1269          57.00       224.94
 1182.89        2953.75           1272          62.00       246.73
 1182.92        2954.00           1276          65.00       259.81
 1182.95        2954.25           1279          58.00       229.30
 1182.98        2954.50           1282          64.00       255.45
 1183.01        2954.75           1286          56.00       220.58
 1183.04        2955.00           1289          53.00       207.50
 1183.07        2955.25           1292          65.00       259.81
 1183.10        2955.50           1296          61.00       242.37
 1183.14        2955.75           1299          64.00       255.45
 1183.17        2956.00           1302          64.00       255.45
 1183.20        2956.25           1306          57.00       224.94
 1183.23        2956.50           1309          50.00       194.42
 1183.26        2956.75           1312          62.00       246.73
 1183.29        2957.00           1316          64.00       255.45
 1183.32        2957.25           1319          62.00       246.73
 1183.35        2957.50           1322          60.00       238.01
 1183.38        2957.75           1326          63.00       251.09
 1183.41        2958.00           1329          54.00       211.86
 1183.44        2958.25           1332          59.00       233.65
 1183.47        2958.50           1336          63.00       251.09
 1183.50        2958.75           1339          57.00       224.94
 1183.53        2959.00           1342          63.00       251.09
 1183.57        2959.25           1346          63.00       251.09
 1183.60        2959.50           1349          72.00       290.33
 1183.63        2959.75           1352          87.00       355.71
 1183.66        2960.00           1356         115.00       477.77
 1183.69        2960.25           1359         148.00       621.63
 1183.72        2960.50           1362         181.00       765.49
 1183.75        2960.75           1366         239.00      1018.34
 1183.78        2961.00           1369         271.00      1157.84
 1183.81        2961.25           1372         291.00      1245.03
 1183.84        2961.50           1376         358.00      1537.12
 1183.87        2961.75           1379         523.00      2256.47
 1183.91        2962.00           1382         990.00      4292.62
 1183.94        2962.25           1386        2563.00     11152.82
 1183.97        2962.50           1389        3961.00     17252.17
 1184.00        2962.75           1392        5430.00     23663.70
 1184.03        2963.00           1396        7339.00     31999.32
 1184.06        2963.25           1399        8861.00     38648.10
 1184.09        2963.50           1402       10282.00     44858.06
 1184.12        2963.75           1406       12327.00     53799.06
 1184.15        2964.00           1409       13970.00     60985.93
 1184.18        2964.25           1412       15462.00     67514.99
 1184.22        2964.50           1416       17421.00     76091.55
 1184.25        2964.75           1419       18913.00     82626.53
 1184.28        2965.00           1422       20415.00     89207.91
 1184.31        2965.25           1426       22511.00     98396.40
 1184.34        2965.50           1429       24067.00    105220.90
 1184.37        2965.75           1432       25572.00    111824.40
 1184.40        2966.00           1436       27600.00    120726.80
 1184.43        2966.25           1439       28874.00    126321.80
 1184.46        2966.50           1442       30222.00    132243.80
 1184.49        2966.75           1446       31674.00    138625.00
 1184.52        2967.00           1449       32184.00    140866.90
 1184.56        2967.25           1452       32231.00    141073.60
 1184.59        2967.50           1456       32227.00    141056.00
 1184.62        2967.75           1459       32079.00    140405.40
 1184.65        2968.00           1462       32045.00    140255.90
 1184.68        2968.25           1466       31272.00    136858.10
 1184.71        2968.50           1469       29782.00    130310.50
 1184.74        2968.75           1472       28440.00    124415.60
 1184.77        2969.00           1476       26573.00    116217.90
 1184.80        2969.25           1479       24766.00    108287.60
 1184.83        2969.50           1482       23327.00    101975.00
 1184.87        2969.75           1486       21468.00     93823.44
 1184.90        2970.00           1489       19895.00     86929.11
 1184.93        2970.25           1492       18745.00     81890.56
 1184.96        2970.50           1496       16695.00     72912.59
 1184.99        2970.75           1499       15306.00     66832.21
 1185.02        2971.00           1502       13898.00     60670.92
 1185.05        2971.25           1506       12083.00     52732.01
 1185.08        2971.50           1509       10437.00     45535.57
 1185.11        2971.75           1513        8431.00     36769.39
 1185.14        2972.00           1516        6838.00     29811.31
 1185.18        2972.25           1519        5373.00     23414.88
 1185.21        2972.50           1523        3435.00     14957.02
 1185.24        2972.75           1526        2132.00      9272.85
 1185.27        2973.00           1529         960.00      4161.81
 1185.30        2973.25           1533         438.00      1885.90
 1185.33        2973.50           1536         319.00      1367.10
 1185.36        2973.75           1539         273.00      1166.56
 1185.39        2974.00           1543         230.00       979.10
 1185.42        2974.25           1546         167.00       704.46
 1185.45        2974.50           1549         135.00       564.96
 1185.48        2974.75           1553          92.00       377.51
 1185.51        2975.00           1556          68.00       272.89
 1185.54        2975.25           1559          57.00       224.94
 1185.57        2975.50           1563          61.00       242.37
 1185.60        2975.75           1566          58.00       229.30
 1185.64        2976.00           1569          57.00       224.94
 1185.67        2976.25           1573          52.00       203.14
 1185.70        2976.50           1576          59.00       233.65
 1185.73        2976.75           1579          60.00       238.01
 1185.76        2977.00           1583          57.00       224.94
 1185.79        2977.25           1586          59.00       233.65
 1185.82        2977.50           1590          53.00       207.50
 1185.85        2977.75           1593          51.00       198.78
 1185.88        2978.00           1596          56.00       220.58
 1185.91        2978.25           1600          60.00       238.01
 1185.94        2978.50           1603          53.00       207.50
 1185.97        2978.75           1606          54.00       211.86
 1186.01        2979.00           1610          55.00       216.22
 1186.04        2979.25           1613          55.00       216.22
 1186.07        2979.50           1616          58.00       229.30
 1186.10        2979.75           1620          59.00       233.65
 1186.13        2980.00           1623          54.00       211.86
 1186.16        2980.25           1626          59.00       233.65
 1186.19        2980.50           1630          53.00       207.50
 1186.22        2980.75           1633          48.00       185.70
 1186.25        2981.00           1637          83.00       338.28
 1186.28        2981.25           1640          50.00       194.42
 1186.31        2981.50           1643          59.00       233.65
 1186.34        2981.75           1647          55.00       216.22
 1186.37        2982.00           1650          57.00       224.94
 1186.40        2982.25           1653          52.00       203.14
 1186.44        2982.50           1657          59.00       233.65
 1186.47        2982.75           1660          55.00       216.22
 1186.50        2983.00           1663          52.00       203.14
 1186.53        2983.25           1667          64.00       255.45
 1186.56        2983.50           1670          54.00       211.86
 1186.59        2983.75           1673          50.00       194.42
 1186.62        2984.00           1677          63.00       251.09
HS scan finished at 19:46:50
end
