************************************************************
  HS Scan of (1) Internal mercury lamp
************************************************************
Integration time is 0.2294 seconds per sample
dh080418Manchester 53.47 2.23 2.804185pr1000
************************************************************
Dead Time -------------------------  3E-08 
Number of Cycles Used -------------  4 
Starting Wavelength (Angstroms) ---  2950 
Final Wavelength (Angstoms) -------  2984 
Wavelength Increment (Angstroms) --  .25 
Filter Wheel #1 Position ---------- (1) Ground quartz diffuser (ND=2.32)
Filter Wheel #2 Position ---------- (1) Neutral Density 0.494



************************************************************
HS scan start time = 01:27:03
Dark Count =  6.8 


Time (GMT)  Wavelength (Ang)  Step Number  Raw Counts  Counts/Second

   87.43        2950.00           1222          52.00       197.04
   87.49        2950.25           1226          62.00       240.63
   87.52        2950.50           1229          60.00       231.91
   87.55        2950.75           1232          59.00       227.55
   87.58        2951.00           1236          58.00       223.19
   87.61        2951.25           1239          57.00       218.83
   87.65        2951.50           1242          64.00       249.35
   87.68        2951.75           1246          65.00       253.71
   87.71        2952.00           1249          61.00       236.27
   87.74        2952.25           1252          60.00       231.91
   87.77        2952.50           1256          53.00       201.40
   87.80        2952.75           1259          54.00       205.76
   87.83        2953.00           1262          59.00       227.55
   87.86        2953.25           1266          65.00       253.71
   87.89        2953.50           1269          62.00       240.63
   87.92        2953.75           1272          60.00       231.91
   87.96        2954.00           1276          69.00       271.14
   87.99        2954.25           1279          62.00       240.63
   88.02        2954.50           1282          55.00       210.11
   88.05        2954.75           1286          60.00       231.91
   88.08        2955.00           1289          53.00       201.40
   88.11        2955.25           1292          63.00       244.99
   88.14        2955.50           1296          61.00       236.27
   88.17        2955.75           1299          56.00       214.47
   88.20        2956.00           1302          65.00       253.71
   88.23        2956.25           1306          57.00       218.83
   88.27        2956.50           1309          60.00       231.91
   88.30        2956.75           1312          50.00       188.32
   88.33        2957.00           1316          57.00       218.83
   88.36        2957.25           1319          58.00       223.19
   88.39        2957.50           1322          48.00       179.60
   88.42        2957.75           1326          58.00       223.19
   88.45        2958.00           1329          61.00       236.27
   88.48        2958.25           1332          66.00       258.07
   88.51        2958.50           1336          53.00       201.40
   88.54        2958.75           1339          65.00       253.71
   88.58        2959.00           1342          63.00       244.99
   88.61        2959.25           1346          68.00       266.79
   88.64        2959.50           1349          59.00       227.55
   88.67        2959.75           1352          84.00       336.53
   88.70        2960.00           1356         110.00       449.88
   88.73        2960.25           1359         139.00       576.30
   88.76        2960.50           1362         181.00       759.39
   88.79        2960.75           1366         226.00       955.56
   88.82        2961.00           1369         253.00      1073.27
   88.85        2961.25           1372         299.00      1273.81
   88.88        2961.50           1376         356.00      1522.30
   88.91        2961.75           1379         463.00      1988.78
   88.94        2962.00           1382         909.00      3933.33
   88.98        2962.25           1386        2336.00     10156.54
   89.01        2962.50           1389        3722.00     16203.17
   89.04        2962.75           1392        5136.00     22374.21
   89.07        2963.00           1396        7049.00     30726.66
   89.10        2963.25           1399        8484.00     36994.83
   89.13        2963.50           1402       10128.00     44178.83
   89.16        2963.75           1406       12154.00     53036.37
   89.19        2964.00           1409       13604.00     59378.57
   89.22        2964.25           1412       15285.00     66734.18
   89.25        2964.50           1416       17296.00     75538.03
   89.29        2964.75           1419       18864.00     82405.74
   89.32        2965.00           1422       20376.00     89030.85
   89.35        2965.25           1426       22348.00     97675.51
   89.38        2965.50           1429       23734.00    103754.00
   89.41        2965.75           1432       25338.00    110791.40
   89.44        2966.00           1436       27200.00    118964.40
   89.47        2966.25           1439       28570.00    124980.40
   89.50        2966.50           1442       30045.00    131459.90
   89.53        2966.75           1446       31622.00    138390.30
   89.56        2967.00           1449       31997.00    140038.70
   89.59        2967.25           1452       32371.00    141682.90
   89.63        2967.50           1456       32070.00    140359.60
   89.66        2967.75           1459       32145.00    140689.30
   89.69        2968.00           1462       32009.00    140091.50
   89.72        2968.25           1466       31199.00    136531.10
   89.75        2968.50           1469       30178.00    132044.30
   89.78        2968.75           1472       28896.00    126412.20
   89.81        2969.00           1476       27016.00    118156.50
   89.84        2969.25           1479       25511.00    111550.50
   89.87        2969.50           1482       24023.00    105021.70
   89.90        2969.75           1486       22065.00     96434.64
   89.93        2970.00           1489       20632.00     90152.82
   89.96        2970.25           1492       19065.00     83286.30
   90.00        2970.50           1496       17026.00     74355.75
   90.03        2970.75           1499       15438.00     67403.82
   90.06        2971.00           1502       14118.00     61627.35
   90.09        2971.25           1506       12192.00     53202.55
   90.12        2971.50           1509       10579.00     46150.17
   90.15        2971.75           1513        8852.00     38602.66
   90.18        2972.00           1516        7258.00     31639.44
   90.21        2972.25           1519        5795.00     25251.03
   90.24        2972.50           1523        3740.00     16281.71
   90.27        2972.75           1526        2343.00     10187.07
   90.30        2973.00           1529        1145.00      4962.38
   90.33        2973.25           1533         449.00      1927.75
   90.36        2973.50           1536         300.00      1278.17
   90.39        2973.75           1539         253.00      1073.27
   90.43        2974.00           1543         218.00       920.69
   90.46        2974.25           1546         181.00       759.39
   90.49        2974.50           1549         125.00       515.27
   90.52        2974.75           1553          85.00       340.89
   90.55        2975.00           1556          72.00       284.22
   90.58        2975.25           1559          61.00       236.27
   90.61        2975.50           1563          65.00       253.71
   90.64        2975.75           1566          52.00       197.04
   90.67        2976.00           1569          59.00       227.55
   90.70        2976.25           1573          56.00       214.47
   90.73        2976.50           1576          64.00       249.35
   90.76        2976.75           1579          50.00       188.32
   90.79        2977.00           1583          64.00       249.35
   90.83        2977.25           1586          59.00       227.55
   90.86        2977.50           1590          60.00       231.91
   90.89        2977.75           1593          59.00       227.55
   90.92        2978.00           1596          62.00       240.63
   90.95        2978.25           1600          54.00       205.76
   90.98        2978.50           1603          62.00       240.63
   91.01        2978.75           1606          55.00       210.11
   91.04        2979.00           1610          62.00       240.63
   91.07        2979.25           1613          54.00       205.76
   91.10        2979.50           1616          58.00       223.19
   91.13        2979.75           1620          54.00       205.76
   91.16        2980.00           1623          50.00       188.32
   91.19        2980.25           1626          53.00       201.40
   91.22        2980.50           1630          53.00       201.40
   91.26        2980.75           1633          61.00       236.27
   91.29        2981.00           1637          57.00       218.83
   91.32        2981.25           1640          61.00       236.27
   91.35        2981.50           1643          57.00       218.83
   91.38        2981.75           1647          57.00       218.83
   91.41        2982.00           1650          51.00       192.68
   91.44        2982.25           1653          60.00       231.91
   91.47        2982.50           1657          57.00       218.83
   91.50        2982.75           1660          61.00       236.27
   91.53        2983.00           1663          48.00       179.60
   91.56        2983.25           1667          56.00       214.47
   91.59        2983.50           1670          57.00       218.83
   91.62        2983.75           1673          56.00       214.47
   91.66        2984.00           1677          50.00       188.32
HS scan finished at 01:31:52
end
************************************************************
  HS Scan of (1) Internal mercury lamp
************************************************************
Integration time is 0.2294 seconds per sample
dh080418Manchester 53.47 2.23 2.804185pr1000
************************************************************
Dead Time -------------------------  3E-08 
Number of Cycles Used -------------  4 
Starting Wavelength (Angstroms) ---  2950 
Final Wavelength (Angstoms) -------  2984 
Wavelength Increment (Angstroms) --  .25 
Filter Wheel #1 Position ---------- (1) Ground quartz diffuser (ND=2.32)
Filter Wheel #2 Position ---------- (1) Neutral Density 0.494



************************************************************
HS scan start time = 19:42:00
Dark Count =  4.6 


Time (GMT)  Wavelength (Ang)  Step Number  Raw Counts  Counts/Second

 1182.37        2950.00           1222          66.00       267.66
 1182.44        2950.25           1226          53.00       210.99
 1182.47        2950.50           1229          63.00       254.58
 1182.50        2950.75           1232          58.00       232.78
 1182.53        2951.00           1236          54.00       215.35
 1182.56        2951.25           1239          64.00       258.94
 1182.59        2951.50           1242          59.00       237.14
 1182.62        2951.75           1246          71.00       289.45
 1182.65        2952.00           1249          70.00       285.09
 1182.68        2952.25           1252          57.00       228.42
 1182.71        2952.50           1256          64.00       258.94
 1182.74        2952.75           1259          54.00       215.35
 1182.77        2953.00           1262          60.00       241.50
 1182.80        2953.25           1266          63.00       254.58
 1182.83        2953.50           1269          56.00       224.06
 1182.87        2953.75           1272          56.00       224.06
 1182.90        2954.00           1276          58.00       232.78
 1182.93        2954.25           1279          62.00       250.22
 1182.96        2954.50           1282          62.00       250.22
 1182.99        2954.75           1286          55.00       219.71
 1183.02        2955.00           1289          53.00       210.99
 1183.05        2955.25           1292          60.00       241.50
 1183.08        2955.50           1296          63.00       254.58
 1183.11        2955.75           1299          58.00       232.78
 1183.14        2956.00           1302          59.00       237.14
 1183.18        2956.25           1306          56.00       224.06
 1183.21        2956.50           1309          62.00       250.22
 1183.24        2956.75           1312          65.00       263.30
 1183.27        2957.00           1316          65.00       263.30
 1183.30        2957.25           1319          57.00       228.42
 1183.33        2957.50           1322          56.00       224.06
 1183.36        2957.75           1326          57.00       228.42
 1183.39        2958.00           1329          59.00       237.14
 1183.42        2958.25           1332          59.00       237.14
 1183.45        2958.50           1336          62.00       250.22
 1183.48        2958.75           1339          58.00       232.78
 1183.51        2959.00           1342          60.00       241.50
 1183.54        2959.25           1346          66.00       267.66
 1183.57        2959.50           1349          66.00       267.66
 1183.60        2959.75           1352          72.00       293.81
 1183.63        2960.00           1356          87.00       359.20
 1183.67        2960.25           1359         127.00       533.57
 1183.70        2960.50           1362         147.00       620.76
 1183.73        2960.75           1366         205.00       873.61
 1183.76        2961.00           1369         241.00      1030.55
 1183.79        2961.25           1372         251.00      1074.14
 1183.82        2961.50           1376         343.00      1475.22
 1183.85        2961.75           1379         445.00      1919.90
 1183.88        2962.00           1382         968.00      4200.18
 1183.91        2962.25           1386        2651.00     11540.18
 1183.94        2962.50           1389        4056.00     17670.22
 1183.97        2962.75           1392        5369.00     23400.90
 1184.01        2963.00           1396        7089.00     30910.96
 1184.04        2963.25           1399        8756.00     38192.82
 1184.07        2963.50           1402       10221.00     44594.94
 1184.10        2963.75           1406       12016.00     52442.52
 1184.13        2964.00           1409       13659.00     59628.81
 1184.16        2964.25           1412       15247.00     66577.49
 1184.19        2964.50           1416       17192.00     75092.26
 1184.22        2964.75           1419       18675.00     81587.41
 1184.25        2965.00           1422       20177.00     88168.39
 1184.29        2965.25           1426       22043.00     96347.84
 1184.32        2965.50           1429       23571.00    103048.70
 1184.35        2965.75           1432       24934.00    109028.20
 1184.38        2966.00           1436       26927.00    117775.50
 1184.41        2966.25           1439       28218.00    123444.10
 1184.44        2966.50           1442       29433.00    128780.80
 1184.47        2966.75           1446       31126.00    136219.90
 1184.50        2967.00           1449       31850.00    139402.20
 1184.53        2967.25           1452       31874.00    139507.70
 1184.57        2967.50           1456       31959.00    139881.30
 1184.60        2967.75           1459       31731.00    138879.10
 1184.63        2968.00           1462       31790.00    139138.40
 1184.66        2968.25           1466       31093.00    136074.90
 1184.69        2968.50           1469       29725.00    130063.60
 1184.72        2968.75           1472       28477.00    124581.60
 1184.75        2969.00           1476       26568.00    116199.50
 1184.78        2969.25           1479       25028.00    109440.70
 1184.81        2969.50           1482       23627.00    103294.30
 1184.84        2969.75           1486       21832.00     95422.74
 1184.87        2970.00           1489       20325.00     88816.99
 1184.90        2970.25           1492       19000.00     83011.18
 1184.93        2970.50           1496       17203.00     75140.43
 1184.97        2970.75           1499       15490.00     67641.06
 1185.00        2971.00           1502       14040.00     61295.71
 1185.03        2971.25           1506       12023.00     52473.13
 1185.06        2971.50           1509       10387.00     45320.52
 1185.09        2971.75           1513        8555.00     37314.64
 1185.12        2972.00           1516        7051.00     30745.00
 1185.15        2972.25           1519        5604.00     24426.79
 1185.18        2972.50           1523        3746.00     16317.49
 1185.21        2972.75           1526        2419.00     10528.17
 1185.25        2973.00           1529        1201.00      5216.16
 1185.28        2973.25           1533         475.00      2050.69
 1185.31        2973.50           1536         322.00      1383.67
 1185.34        2973.75           1539         292.00      1252.88
 1185.37        2974.00           1543         229.00       978.23
 1185.40        2974.25           1546         178.00       755.90
 1185.43        2974.50           1549         142.00       598.96
 1185.46        2974.75           1553          97.00       402.79
 1185.49        2975.00           1556          80.00       328.69
 1185.52        2975.25           1559          67.00       272.02
 1185.55        2975.50           1563          60.00       241.50
 1185.58        2975.75           1566          56.00       224.06
 1185.62        2976.00           1569          58.00       232.78
 1185.65        2976.25           1573          52.00       206.63
 1185.68        2976.50           1576          60.00       241.50
 1185.71        2976.75           1579          59.00       237.14
 1185.74        2977.00           1583          60.00       241.50
 1185.77        2977.25           1586          56.00       224.06
 1185.80        2977.50           1590          53.00       210.99
 1185.83        2977.75           1593          49.00       193.55
 1185.86        2978.00           1596          58.00       232.78
 1185.89        2978.25           1600          59.00       237.14
 1185.92        2978.50           1603          47.00       184.83
 1185.95        2978.75           1606          53.00       210.99
 1185.99        2979.00           1610          50.00       197.91
 1186.02        2979.25           1613          66.00       267.66
 1186.05        2979.50           1616          55.00       219.71
 1186.08        2979.75           1620          53.00       210.99
 1186.11        2980.00           1623          53.00       210.99
 1186.14        2980.25           1626          54.00       215.35
 1186.17        2980.50           1630          54.00       215.35
 1186.20        2980.75           1633          56.00       224.06
 1186.23        2981.00           1637          58.00       232.78
 1186.26        2981.25           1640          50.00       197.91
 1186.29        2981.50           1643          50.00       197.91
 1186.32        2981.75           1647          49.00       193.55
 1186.35        2982.00           1650          55.00       219.71
 1186.39        2982.25           1653          57.00       228.42
 1186.42        2982.50           1657          52.00       206.63
 1186.45        2982.75           1660          48.00       189.19
 1186.48        2983.00           1663          50.00       197.91
 1186.51        2983.25           1667          60.00       241.50
 1186.54        2983.50           1670          53.00       210.99
 1186.57        2983.75           1673          48.00       189.19
 1186.60        2984.00           1677          58.00       232.78
HS scan finished at 19:46:49
end
