************************************************************
  HS Scan of (1) Internal mercury lamp
************************************************************
Integration time is 0.2294 seconds per sample
dh310319Manchester 53.47 2.23 2.804185pr1000
************************************************************
Dead Time -------------------------  3E-08 
Number of Cycles Used -------------  4 
Starting Wavelength (Angstroms) ---  2950 
Final Wavelength (Angstoms) -------  2984 
Wavelength Increment (Angstroms) --  .25 
Filter Wheel #1 Position ---------- (1) Ground quartz diffuser (ND=2.32)
Filter Wheel #2 Position ---------- (1) Neutral Density 0.494



************************************************************
HS scan start time = 02:09:13
Dark Count =  10.5 


Time (GMT)  Wavelength (Ang)  Step Number  Raw Counts  Counts/Second

  129.58        2950.00           1222          49.00       167.83
  129.65        2950.25           1226          61.00       220.14
  129.68        2950.50           1229          53.00       185.27
  129.71        2950.75           1232          66.00       241.94
  129.75        2951.00           1236          58.00       207.06
  129.78        2951.25           1239          58.00       207.06
  129.81        2951.50           1242          53.00       185.27
  129.84        2951.75           1246          56.00       198.34
  129.87        2952.00           1249          51.00       176.55
  129.90        2952.25           1252          60.00       215.78
  129.93        2952.50           1256          58.00       207.06
  129.96        2952.75           1259          52.00       180.91
  129.99        2953.00           1262          53.00       185.27
  130.03        2953.25           1266          54.00       189.63
  130.06        2953.50           1269          58.00       207.06
  130.09        2953.75           1272          54.00       189.63
  130.12        2954.00           1276          52.00       180.91
  130.15        2954.25           1279          48.00       163.47
  130.18        2954.50           1282          59.00       211.42
  130.21        2954.75           1286          51.00       176.55
  130.24        2955.00           1289          61.00       220.14
  130.27        2955.25           1292          49.00       167.83
  130.30        2955.50           1296          50.00       172.19
  130.33        2955.75           1299          57.00       202.70
  130.37        2956.00           1302          56.00       198.34
  130.40        2956.25           1306          57.00       202.70
  130.43        2956.50           1309          57.00       202.70
  130.46        2956.75           1312          50.00       172.19
  130.49        2957.00           1316          64.00       233.22
  130.52        2957.25           1319          55.00       193.99
  130.55        2957.50           1322          61.00       220.14
  130.58        2957.75           1326          55.00       193.99
  130.61        2958.00           1329          54.00       189.63
  130.64        2958.25           1332          55.00       193.99
  130.68        2958.50           1336          58.00       207.06
  130.71        2958.75           1339          58.00       207.06
  130.74        2959.00           1342          63.00       228.86
  130.77        2959.25           1346          57.00       202.70
  130.80        2959.50           1349          70.00       259.37
  130.83        2959.75           1352          74.00       276.81
  130.86        2960.00           1356         108.00       425.03
  130.89        2960.25           1359         135.00       542.73
  130.92        2960.50           1362         144.00       581.96
  130.95        2960.75           1366         201.00       830.45
  130.99        2961.00           1369         252.00      1052.78
  131.02        2961.25           1372         265.00      1109.45
  131.05        2961.50           1376         301.00      1266.40
  131.08        2961.75           1379         372.00      1575.92
  131.11        2962.00           1382         604.00      2587.38
  131.14        2962.25           1386        1726.00      7479.88
  131.17        2962.50           1389        2943.00     12788.25
  131.20        2962.75           1392        4089.00     17788.48
  131.23        2963.00           1396        5689.00     24772.11
  131.27        2963.25           1399        6905.00     30081.63
  131.30        2963.50           1402        8043.00     35052.10
  131.33        2963.75           1406        9662.00     42126.01
  131.36        2964.00           1409       11107.00     48442.19
  131.39        2964.25           1412       12226.00     53335.06
  131.42        2964.50           1416       13992.00     61059.88
  131.45        2964.75           1419       15279.00     66691.71
  131.48        2965.00           1422       16392.00     71563.68
  131.51        2965.25           1426       18159.00     79301.35
  131.55        2965.50           1429       19389.00     84689.62
  131.58        2965.75           1432       20552.00     89785.99
  131.61        2966.00           1436       22028.00     96256.21
  131.64        2966.25           1439       23089.00    100908.80
  131.67        2966.50           1442       24398.00    106650.60
  131.70        2966.75           1446       25733.00    112508.60
  131.73        2967.00           1449       26432.00    115576.60
  131.76        2967.25           1452       26451.00    115660.00
  131.79        2967.50           1456       26624.00    116419.40
  131.83        2967.75           1459       26582.00    116235.10
  131.86        2968.00           1462       26552.00    116103.40
  131.89        2968.25           1466       26038.00    113847.20
  131.92        2968.50           1469       25116.00    109800.90
  131.95        2968.75           1472       24100.00    105343.30
  131.98        2969.00           1476       22600.00     98764.31
  132.01        2969.25           1479       21311.00     93112.83
  132.04        2969.50           1482       20105.00     87827.02
  132.07        2969.75           1486       18497.00     80781.85
  132.11        2970.00           1489       17419.00     76060.46
  132.14        2970.25           1492       16196.00     70705.62
  132.17        2970.50           1496       14578.00     63623.94
  132.20        2970.75           1499       13410.00     58513.70
  132.23        2971.00           1502       12057.00     52596.01
  132.26        2971.25           1506       10392.00     45316.58
  132.29        2971.50           1509        9114.00     39731.29
  132.32        2971.75           1513        7490.00     32636.56
  132.35        2972.00           1516        6340.00     27614.41
  132.39        2972.25           1519        5080.00     22113.62
  132.42        2972.50           1523        3544.00     15410.35
  132.45        2972.75           1526        2413.00     10476.27
  132.48        2973.00           1529        1234.00      5334.33
  132.51        2973.25           1533         397.00      1684.92
  132.54        2973.50           1536         267.00      1118.17
  132.57        2973.75           1539         218.00       904.56
  132.60        2974.00           1543         182.00       747.62
  132.63        2974.25           1546         143.00       577.60
  132.67        2974.50           1549         115.00       455.54
  132.70        2974.75           1553          91.00       350.92
  132.73        2975.00           1556          68.00       250.66
  132.76        2975.25           1559          60.00       215.78
  132.79        2975.50           1563          50.00       172.19
  132.82        2975.75           1566          55.00       193.99
  132.85        2976.00           1569          55.00       193.99
  132.88        2976.25           1573          48.00       163.47
  132.91        2976.50           1576          53.00       185.27
  132.94        2976.75           1579          55.00       193.99
  132.98        2977.00           1583          55.00       193.99
  133.01        2977.25           1586          57.00       202.70
  133.04        2977.50           1590          57.00       202.70
  133.07        2977.75           1593          56.00       198.34
  133.10        2978.00           1596          46.00       154.75
  133.13        2978.25           1600          47.00       159.11
  133.16        2978.50           1603          63.00       228.86
  133.19        2978.75           1606          47.00       159.11
  133.22        2979.00           1610          54.00       189.63
  133.25        2979.25           1613          61.00       220.14
  133.29        2979.50           1616          54.00       189.63
  133.32        2979.75           1620          48.00       163.47
  133.35        2980.00           1623          50.00       172.19
  133.38        2980.25           1626          51.00       176.55
  133.41        2980.50           1630          48.00       163.47
  133.44        2980.75           1633          51.00       176.55
  133.47        2981.00           1637          52.00       180.91
  133.50        2981.25           1640          49.00       167.83
  133.53        2981.50           1643          50.00       172.19
  133.56        2981.75           1647          55.00       193.99
  133.59        2982.00           1650          49.00       167.83
  133.62        2982.25           1653          49.00       167.83
  133.66        2982.50           1657          41.00       132.96
  133.69        2982.75           1660          53.00       185.27
  133.72        2983.00           1663          53.00       185.27
  133.75        2983.25           1667          49.00       167.83
  133.78        2983.50           1670          50.00       172.19
  133.81        2983.75           1673          51.00       176.55
  133.84        2984.00           1677          49.00       167.83
HS scan finished at 02:14:04
end
************************************************************
  HS Scan of (1) Internal mercury lamp
************************************************************
Integration time is 0.2294 seconds per sample
dh310319Manchester 53.47 2.23 2.804185pr1000
************************************************************
Dead Time -------------------------  3E-08 
Number of Cycles Used -------------  4 
Starting Wavelength (Angstroms) ---  2950 
Final Wavelength (Angstoms) -------  2984 
Wavelength Increment (Angstroms) --  .25 
Filter Wheel #1 Position ---------- (1) Ground quartz diffuser (ND=2.32)
Filter Wheel #2 Position ---------- (1) Neutral Density 0.494



************************************************************
HS scan start time = 19:42:07
Dark Count =  4 


Time (GMT)  Wavelength (Ang)  Step Number  Raw Counts  Counts/Second

 1182.49        2950.00           1222          62.00       252.84
 1182.55        2950.25           1226          56.00       226.68
 1182.59        2950.50           1229          54.00       217.96
 1182.62        2950.75           1232          63.00       257.19
 1182.65        2951.00           1236          55.00       222.32
 1182.68        2951.25           1239          58.00       235.40
 1182.71        2951.50           1242          51.00       204.88
 1182.74        2951.75           1246          64.00       261.55
 1182.77        2952.00           1249          54.00       217.96
 1182.80        2952.25           1252          56.00       226.68
 1182.83        2952.50           1256          52.00       209.24
 1182.86        2952.75           1259          52.00       209.24
 1182.89        2953.00           1262          53.00       213.60
 1182.92        2953.25           1266          62.00       252.84
 1182.95        2953.50           1269          72.00       296.43
 1182.98        2953.75           1272          52.00       209.24
 1183.02        2954.00           1276          54.00       217.96
 1183.05        2954.25           1279          57.00       231.04
 1183.08        2954.50           1282          61.00       248.48
 1183.11        2954.75           1286          59.00       239.76
 1183.14        2955.00           1289          56.00       226.68
 1183.17        2955.25           1292          59.00       239.76
 1183.20        2955.50           1296          51.00       204.88
 1183.23        2955.75           1299          53.00       213.60
 1183.26        2956.00           1302          49.00       196.17
 1183.29        2956.25           1306          59.00       239.76
 1183.33        2956.50           1309          57.00       231.04
 1183.36        2956.75           1312          59.00       239.76
 1183.39        2957.00           1316          51.00       204.88
 1183.42        2957.25           1319          62.00       252.84
 1183.45        2957.50           1322          60.00       244.12
 1183.48        2957.75           1326          54.00       217.96
 1183.51        2958.00           1329          48.00       191.81
 1183.54        2958.25           1332          49.00       196.17
 1183.57        2958.50           1336          52.00       209.24
 1183.60        2958.75           1339          55.00       222.32
 1183.63        2959.00           1342          54.00       217.96
 1183.66        2959.25           1346          63.00       257.19
 1183.69        2959.50           1349          61.00       248.48
 1183.73        2959.75           1352          82.00       340.02
 1183.76        2960.00           1356         108.00       453.36
 1183.79        2960.25           1359         132.00       557.99
 1183.82        2960.50           1362         173.00       736.72
 1183.85        2960.75           1366         212.00       906.74
 1183.88        2961.00           1369         231.00       989.57
 1183.91        2961.25           1372         257.00      1102.91
 1183.94        2961.50           1376         324.00      1395.00
 1183.97        2961.75           1379         422.00      1822.24
 1184.00        2962.00           1382         948.00      4115.59
 1184.03        2962.25           1386        2295.00      9989.92
 1184.06        2962.50           1389        3393.00     14779.87
 1184.10        2962.75           1392        4574.00     19933.45
 1184.13        2963.00           1396        6210.00     27075.17
 1184.16        2963.25           1399        7374.00     32158.30
 1184.19        2963.50           1402        8667.00     37806.59
 1184.22        2963.75           1406       10304.00     44960.34
 1184.25        2964.00           1409       11572.00     50503.66
 1184.28        2964.25           1412       12725.00     55545.84
 1184.31        2964.50           1416       14230.00     62129.65
 1184.34        2964.75           1419       15487.00     67630.54
 1184.38        2965.00           1422       16748.00     73150.77
 1184.41        2965.25           1426       18379.00     80293.45
 1184.44        2965.50           1429       19597.00     85629.46
 1184.47        2965.75           1432       20928.00     91462.48
 1184.50        2966.00           1436       22434.00     98064.89
 1184.53        2966.25           1439       23624.00    103283.80
 1184.56        2966.50           1442       24703.00    108017.30
 1184.59        2966.75           1446       25987.00    113651.90
 1184.62        2967.00           1449       26484.00    115833.40
 1184.66        2967.25           1452       26520.00    115991.40
 1184.69        2967.50           1456       26468.00    115763.20
 1184.72        2967.75           1459       26295.00    115003.80
 1184.75        2968.00           1462       26382.00    115385.70
 1184.78        2968.25           1466       25672.00    112269.40
 1184.81        2968.50           1469       24741.00    108184.00
 1184.84        2968.75           1472       23548.00    102950.40
 1184.87        2969.00           1476       22087.00     96543.38
 1184.90        2969.25           1479       20634.00     90173.87
 1184.93        2969.50           1482       19612.00     85695.19
 1184.97        2969.75           1486       18005.00     78655.31
 1185.00        2970.00           1489       16829.00     73505.43
 1185.03        2970.25           1492       15577.00     68024.46
 1185.06        2970.50           1496       14044.00     61315.83
 1185.09        2970.75           1499       12723.00     55537.10
 1185.12        2971.00           1502       11519.00     50271.93
 1185.15        2971.25           1506        9838.00     42923.59
 1185.18        2971.50           1509        8716.00     38020.68
 1185.21        2971.75           1513        7042.00     30708.32
 1185.25        2972.00           1516        5679.00     24756.83
 1185.28        2972.25           1519        4484.00     19540.66
 1185.31        2972.50           1523        2886.00     12567.95
 1185.34        2972.75           1526        1687.00      7338.15
 1185.37        2973.00           1529         814.00      3531.32
 1185.40        2973.25           1533         344.00      1482.19
 1185.43        2973.50           1536         245.00      1050.60
 1185.46        2973.75           1539         196.00       836.99
 1185.49        2974.00           1543         169.00       719.28
 1185.53        2974.25           1546         124.00       523.11
 1185.56        2974.50           1549          88.00       366.18
 1185.59        2974.75           1553          72.00       296.43
 1185.62        2975.00           1556          59.00       239.76
 1185.65        2975.25           1559          57.00       231.04
 1185.68        2975.50           1563          50.00       200.52
 1185.71        2975.75           1566          59.00       239.76
 1185.74        2976.00           1569          49.00       196.17
 1185.78        2976.25           1573          56.00       226.68
 1185.81        2976.50           1576          55.00       222.32
 1185.84        2976.75           1579          57.00       231.04
 1185.87        2977.00           1583          47.00       187.45
 1185.90        2977.25           1586          60.00       244.12
 1185.93        2977.50           1590          52.00       209.24
 1185.96        2977.75           1593          53.00       213.60
 1185.99        2978.00           1596          49.00       196.17
 1186.02        2978.25           1600          52.00       209.24
 1186.05        2978.50           1603          55.00       222.32
 1186.09        2978.75           1606          54.00       217.96
 1186.12        2979.00           1610          55.00       222.32
 1186.15        2979.25           1613          50.00       200.52
 1186.18        2979.50           1616          54.00       217.96
 1186.21        2979.75           1620          39.00       152.57
 1186.24        2980.00           1623          55.00       222.32
 1186.27        2980.25           1626          60.00       244.12
 1186.30        2980.50           1630          51.00       204.88
 1186.33        2980.75           1633          48.00       191.81
 1186.37        2981.00           1637          48.00       191.81
 1186.40        2981.25           1640          56.00       226.68
 1186.43        2981.50           1643          50.00       200.52
 1186.46        2981.75           1647          49.00       196.17
 1186.49        2982.00           1650          57.00       231.04
 1186.52        2982.25           1653          50.00       200.52
 1186.55        2982.50           1657          50.00       200.52
 1186.58        2982.75           1660          53.00       213.60
 1186.61        2983.00           1663          52.00       209.24
 1186.64        2983.25           1667          50.00       200.52
 1186.67        2983.50           1670          53.00       213.60
 1186.71        2983.75           1673          47.00       187.45
 1186.74        2984.00           1677          46.00       183.09
HS scan finished at 19:46:57
end
