************************************************************
  HS Scan of (1) Internal mercury lamp
************************************************************
Integration time is 0.2294 seconds per sample
dh020419Manchester 53.47 2.23 2.804185pr1000
************************************************************
Dead Time -------------------------  3E-08 
Number of Cycles Used -------------  4 
Starting Wavelength (Angstroms) ---  2950 
Final Wavelength (Angstoms) -------  2984 
Wavelength Increment (Angstroms) --  .25 
Filter Wheel #1 Position ---------- (1) Ground quartz diffuser (ND=2.32)
Filter Wheel #2 Position ---------- (1) Neutral Density 0.494



************************************************************
HS scan start time = 01:56:17
Dark Count =  7.5 


Time (GMT)  Wavelength (Ang)  Step Number  Raw Counts  Counts/Second

  116.66        2950.00           1222          51.00       189.63
  116.73        2950.25           1226          60.00       228.86
  116.76        2950.50           1229          57.00       215.78
  116.79        2950.75           1232          56.00       211.42
  116.82        2951.00           1236          54.00       202.70
  116.85        2951.25           1239          57.00       215.78
  116.88        2951.50           1242          55.00       207.06
  116.91        2951.75           1246          57.00       215.78
  116.94        2952.00           1249          65.00       250.66
  116.97        2952.25           1252          57.00       215.78
  117.00        2952.50           1256          49.00       180.91
  117.04        2952.75           1259          58.00       220.14
  117.07        2953.00           1262          57.00       215.78
  117.10        2953.25           1266          57.00       215.78
  117.13        2953.50           1269          57.00       215.78
  117.16        2953.75           1272          56.00       211.42
  117.19        2954.00           1276          57.00       215.78
  117.22        2954.25           1279          56.00       211.42
  117.25        2954.50           1282          56.00       211.42
  117.28        2954.75           1286          62.00       237.58
  117.31        2955.00           1289          55.00       207.06
  117.34        2955.25           1292          62.00       237.58
  117.37        2955.50           1296          50.00       185.27
  117.40        2955.75           1299          49.00       180.91
  117.44        2956.00           1302          54.00       202.70
  117.47        2956.25           1306          53.00       198.34
  117.50        2956.50           1309          48.00       176.55
  117.53        2956.75           1312          61.00       233.22
  117.56        2957.00           1316          58.00       220.14
  117.59        2957.25           1319          56.00       211.42
  117.62        2957.50           1322          59.00       224.50
  117.65        2957.75           1326          53.00       198.34
  117.68        2958.00           1329          55.00       207.06
  117.71        2958.25           1332          51.00       189.63
  117.75        2958.50           1336          57.00       215.78
  117.78        2958.75           1339          56.00       211.42
  117.81        2959.00           1342          51.00       189.63
  117.84        2959.25           1346          62.00       237.58
  117.87        2959.50           1349          73.00       285.53
  117.90        2959.75           1352          66.00       255.02
  117.93        2960.00           1356          93.00       372.72
  117.96        2960.25           1359         123.00       503.50
  117.99        2960.50           1362         160.00       664.79
  118.02        2960.75           1366         195.00       817.37
  118.06        2961.00           1369         238.00      1004.83
  118.09        2961.25           1372         247.00      1044.06
  118.12        2961.50           1376         326.00      1388.46
  118.15        2961.75           1379         512.00      2199.36
  118.18        2962.00           1382        1204.00      5216.60
  118.21        2962.25           1386        2666.00     11592.96
  118.24        2962.50           1389        3830.00     16671.37
  118.27        2962.75           1392        5112.00     22266.39
  118.30        2963.00           1396        6584.00     28692.95
  118.33        2963.25           1399        7735.00     33719.80
  118.37        2963.50           1402        9073.00     39565.24
  118.40        2963.75           1406       10707.00     46706.64
  118.43        2964.00           1409       11870.00     51791.40
  118.46        2964.25           1412       13194.00     57581.95
  118.49        2964.50           1416       15013.00     65540.69
  118.52        2964.75           1419       16141.00     70477.99
  118.55        2965.00           1422       17447.00     76196.21
  118.58        2965.25           1426       19118.00     83515.44
  118.61        2965.50           1429       20425.00     89242.53
  118.65        2965.75           1432       21702.00     94840.08
  118.68        2966.00           1436       23142.00    101154.40
  118.71        2966.25           1439       24355.00    106475.10
  118.74        2966.50           1442       25428.00    111183.20
  118.77        2966.75           1446       26281.00    114927.00
  118.80        2967.00           1449       26447.00    115655.60
  118.83        2967.25           1452       26409.00    115488.80
  118.86        2967.50           1456       26467.00    115743.40
  118.89        2967.75           1459       26439.00    115620.50
  118.93        2968.00           1462       26121.00    114224.70
  118.96        2968.25           1466       25094.00    109717.60
  118.99        2968.50           1469       23969.00    104781.80
  119.02        2968.75           1472       22913.00    100150.10
  119.05        2969.00           1476       21251.00     92862.97
  119.08        2969.25           1479       20284.00     88624.60
  119.11        2969.50           1482       18897.00     82547.24
  119.14        2969.75           1486       17415.00     76056.08
  119.18        2970.00           1489       16220.00     70823.82
  119.21        2970.25           1492       15049.00     65698.24
  119.24        2970.50           1496       13362.00     58316.85
  119.27        2970.75           1499       12115.00     52862.76
  119.30        2971.00           1502       10843.00     47301.17
  119.33        2971.25           1506        9189.00     40072.12
  119.36        2971.50           1509        8064.00     35156.94
  119.39        2971.75           1513        6405.00     27911.33
  119.42        2972.00           1516        5070.00     22083.07
  119.46        2972.25           1519        3966.00     17264.82
  119.49        2972.50           1523        2476.00     10764.16
  119.52        2972.75           1526        1328.00      5757.32
  119.55        2973.00           1529         638.00      2748.70
  119.58        2973.25           1533         335.00      1427.70
  119.61        2973.50           1536         262.00      1109.45
  119.64        2973.75           1539         228.00       961.23
  119.67        2974.00           1543         192.00       804.29
  119.70        2974.25           1546         154.00       638.63
  119.73        2974.50           1549         119.00       486.06
  119.77        2974.75           1553          83.00       329.12
  119.80        2975.00           1556          65.00       250.66
  119.83        2975.25           1559          55.00       207.06
  119.86        2975.50           1563          57.00       215.78
  119.89        2975.75           1566          53.00       198.34
  119.92        2976.00           1569          49.00       180.91
  119.95        2976.25           1573          53.00       198.34
  119.98        2976.50           1576          55.00       207.06
  120.01        2976.75           1579          58.00       220.14
  120.04        2977.00           1583          56.00       211.42
  120.07        2977.25           1586          55.00       207.06
  120.10        2977.50           1590          46.00       167.83
  120.13        2977.75           1593          51.00       189.63
  120.17        2978.00           1596          45.00       163.47
  120.20        2978.25           1600          53.00       198.34
  120.23        2978.50           1603          55.00       207.06
  120.26        2978.75           1606          58.00       220.14
  120.29        2979.00           1610          53.00       198.34
  120.32        2979.25           1613          49.00       180.91
  120.35        2979.50           1616          47.00       172.19
  120.38        2979.75           1620          53.00       198.34
  120.41        2980.00           1623          46.00       167.83
  120.44        2980.25           1626          55.00       207.06
  120.47        2980.50           1630          54.00       202.70
  120.51        2980.75           1633          52.00       193.99
  120.54        2981.00           1637          51.00       189.63
  120.57        2981.25           1640          52.00       193.99
  120.60        2981.50           1643          43.00       154.75
  120.63        2981.75           1647          47.00       172.19
  120.66        2982.00           1650          51.00       189.63
  120.69        2982.25           1653          48.00       176.55
  120.72        2982.50           1657          53.00       198.34
  120.75        2982.75           1660          48.00       176.55
  120.78        2983.00           1663          50.00       185.27
  120.81        2983.25           1667          50.00       185.27
  120.84        2983.50           1670          48.00       176.55
  120.88        2983.75           1673          54.00       202.70
  120.91        2984.00           1677          44.00       159.11
HS scan finished at 02:01:07
end
************************************************************
  HS Scan of (1) Internal mercury lamp
************************************************************
Integration time is 0.2294 seconds per sample
dh020419Manchester 53.47 2.23 2.804185pr1000
************************************************************
Dead Time -------------------------  3E-08 
Number of Cycles Used -------------  4 
Starting Wavelength (Angstroms) ---  2950 
Final Wavelength (Angstoms) -------  2984 
Wavelength Increment (Angstroms) --  .25 
Filter Wheel #1 Position ---------- (1) Ground quartz diffuser (ND=2.32)
Filter Wheel #2 Position ---------- (1) Neutral Density 0.494



************************************************************
HS scan start time = 19:42:20
Dark Count =  6.5 


Time (GMT)  Wavelength (Ang)  Step Number  Raw Counts  Counts/Second

 1182.71        2950.00           1222          57.00       220.14
 1182.77        2950.25           1226          62.00       241.94
 1182.80        2950.50           1229          53.00       202.70
 1182.84        2950.75           1232          59.00       228.86
 1182.87        2951.00           1236          54.00       207.06
 1182.90        2951.25           1239          55.00       211.42
 1182.93        2951.50           1242          60.00       233.22
 1182.96        2951.75           1246          51.00       193.99
 1182.99        2952.00           1249          57.00       220.14
 1183.02        2952.25           1252          57.00       220.14
 1183.05        2952.50           1256          58.00       224.50
 1183.08        2952.75           1259          52.00       198.34
 1183.12        2953.00           1262          53.00       202.70
 1183.15        2953.25           1266          50.00       189.63
 1183.18        2953.50           1269          60.00       233.22
 1183.21        2953.75           1272          51.00       193.99
 1183.24        2954.00           1276          57.00       220.14
 1183.27        2954.25           1279          68.00       268.09
 1183.30        2954.50           1282          53.00       202.70
 1183.33        2954.75           1286          48.00       180.91
 1183.36        2955.00           1289          55.00       211.42
 1183.39        2955.25           1292          46.00       172.19
 1183.42        2955.50           1296          57.00       220.14
 1183.45        2955.75           1299          52.00       198.34
 1183.49        2956.00           1302          53.00       202.70
 1183.52        2956.25           1306          54.00       207.06
 1183.55        2956.50           1309          54.00       207.06
 1183.58        2956.75           1312          58.00       224.50
 1183.61        2957.00           1316          59.00       228.86
 1183.64        2957.25           1319          54.00       207.06
 1183.67        2957.50           1322          53.00       202.70
 1183.70        2957.75           1326          58.00       224.50
 1183.73        2958.00           1329          50.00       189.63
 1183.76        2958.25           1332          48.00       180.91
 1183.79        2958.50           1336          56.00       215.78
 1183.83        2958.75           1339          53.00       202.70
 1183.86        2959.00           1342          58.00       224.50
 1183.89        2959.25           1346          54.00       207.06
 1183.92        2959.50           1349          73.00       289.89
 1183.95        2959.75           1352          76.00       302.97
 1183.98        2960.00           1356          90.00       364.00
 1184.01        2960.25           1359         116.00       477.34
 1184.04        2960.50           1362         146.00       608.12
 1184.07        2960.75           1366         191.00       804.29
 1184.11        2961.00           1369         216.00       913.28
 1184.14        2961.25           1372         254.00      1078.94
 1184.17        2961.50           1376         334.00      1427.70
 1184.20        2961.75           1379         515.00      2216.80
 1184.23        2962.00           1382        1157.00      5016.01
 1184.26        2962.25           1386        2540.00     11047.69
 1184.29        2962.50           1389        3768.00     16405.20
 1184.32        2962.75           1392        5066.00     22069.97
 1184.35        2963.00           1396        6659.00     29024.83
 1184.39        2963.25           1399        7796.00     33990.61
 1184.42        2963.50           1402        9172.00     40002.21
 1184.45        2963.75           1406       10772.00     46995.16
 1184.48        2964.00           1409       11981.00     52281.15
 1184.51        2964.25           1412       13317.00     58124.37
 1184.54        2964.50           1416       14846.00     64814.23
 1184.57        2964.75           1419       15908.00     69462.40
 1184.60        2965.00           1422       17308.00     75591.90
 1184.63        2965.25           1426       19037.00     83164.96
 1184.66        2965.50           1429       20147.00     88028.59
 1184.70        2965.75           1432       21545.00     94156.18
 1184.73        2966.00           1436       23119.00    101057.90
 1184.76        2966.25           1439       24275.00    106128.60
 1184.79        2966.50           1442       25467.00    111358.80
 1184.82        2966.75           1446       26533.00    116037.50
 1184.85        2967.00           1449       26783.00    117135.00
 1184.88        2967.25           1452       26723.00    116871.60
 1184.91        2967.50           1456       26900.00    117648.60
 1184.94        2967.75           1459       26754.00    117007.70
 1184.98        2968.00           1462       26445.00    115651.20
 1185.01        2968.25           1466       25508.00    111538.70
 1185.04        2968.50           1469       24483.00    107041.10
 1185.07        2968.75           1472       23260.00    101676.30
 1185.10        2969.00           1476       21752.00     95063.66
 1185.13        2969.25           1479       20545.00     89772.84
 1185.16        2969.50           1482       19360.00     84580.08
 1185.19        2969.75           1486       17578.00     76774.28
 1185.23        2970.00           1489       16389.00     71568.06
 1185.26        2970.25           1492       15278.00     66704.85
 1185.29        2970.50           1496       13839.00     60407.98
 1185.32        2970.75           1499       12466.00     54402.15
 1185.35        2971.00           1502       11225.00     48975.57
 1185.38        2971.25           1506        9374.00     40884.90
 1185.41        2971.50           1509        8255.00     35995.70
 1185.44        2971.75           1513        6590.00     28723.52
 1185.47        2972.00           1516        5402.00     23536.67
 1185.50        2972.25           1519        4174.00     18176.87
 1185.54        2972.50           1523        2539.00     11043.33
 1185.57        2972.75           1526        1360.00      5901.22
 1185.60        2973.00           1529         600.00      2587.38
 1185.63        2973.25           1533         325.00      1388.46
 1185.66        2973.50           1536         249.00      1057.14
 1185.69        2973.75           1539         215.00       908.92
 1185.72        2974.00           1543         186.00       782.49
 1185.75        2974.25           1546         141.00       586.32
 1185.78        2974.50           1549         103.00       420.67
 1185.81        2974.75           1553          74.00       294.25
 1185.85        2975.00           1556          57.00       220.14
 1185.88        2975.25           1559          63.00       246.30
 1185.91        2975.50           1563          61.00       237.58
 1185.94        2975.75           1566          49.00       185.27
 1185.97        2976.00           1569          55.00       211.42
 1186.00        2976.25           1573          65.00       255.02
 1186.03        2976.50           1576          53.00       202.70
 1186.06        2976.75           1579          57.00       220.14
 1186.09        2977.00           1583          55.00       211.42
 1186.12        2977.25           1586          50.00       189.63
 1186.15        2977.50           1590          53.00       202.70
 1186.19        2977.75           1593          51.00       193.99
 1186.22        2978.00           1596          49.00       185.27
 1186.25        2978.25           1600          50.00       189.63
 1186.28        2978.50           1603          57.00       220.14
 1186.31        2978.75           1606          52.00       198.34
 1186.34        2979.00           1610          51.00       193.99
 1186.37        2979.25           1613          53.00       202.70
 1186.40        2979.50           1616          52.00       198.34
 1186.43        2979.75           1620          52.00       198.34
 1186.46        2980.00           1623          63.00       246.30
 1186.50        2980.25           1626          44.00       163.47
 1186.53        2980.50           1630          53.00       202.70
 1186.56        2980.75           1633          51.00       193.99
 1186.59        2981.00           1637          47.00       176.55
 1186.62        2981.25           1640          51.00       193.99
 1186.65        2981.50           1643          49.00       185.27
 1186.68        2981.75           1647          52.00       198.34
 1186.71        2982.00           1650          53.00       202.70
 1186.74        2982.25           1653          49.00       185.27
 1186.77        2982.50           1657          50.00       189.63
 1186.80        2982.75           1660          48.00       180.91
 1186.83        2983.00           1663          50.00       189.63
 1186.86        2983.25           1667          48.00       180.91
 1186.90        2983.50           1670          51.00       193.99
 1186.93        2983.75           1673          49.00       185.27
 1186.96        2984.00           1677          49.00       185.27
HS scan finished at 19:47:11
end
