************************************************************
  HS Scan of (1) Internal mercury lamp
************************************************************
Integration time is 0.2294 seconds per sample
dh010417Manchester 53.47 2.23 2.804185pr1000
************************************************************
Dead Time -------------------------  3E-08 
Number of Cycles Used -------------  4 
Starting Wavelength (Angstroms) ---  2950 
Final Wavelength (Angstoms) -------  2984 
Wavelength Increment (Angstroms) --  .25 
Filter Wheel #1 Position ---------- (1) Ground quartz diffuser (ND=2.32)
Filter Wheel #2 Position ---------- (1) Neutral Density 0.494



************************************************************
HS scan start time = 01:58:46
Dark Count =  9 


Time (GMT)  Wavelength (Ang)  Step Number  Raw Counts  Counts/Second

  119.13        2950.00           1222          52.00       187.45
  119.20        2950.25           1226          46.00       161.29
  119.23        2950.50           1229          43.00       148.21
  119.26        2950.75           1232          44.00       152.57
  119.29        2951.00           1236          42.00       143.85
  119.33        2951.25           1239          45.00       156.93
  119.36        2951.50           1242          46.00       161.29
  119.39        2951.75           1246          44.00       152.57
  119.42        2952.00           1249          41.00       139.49
  119.45        2952.25           1252          52.00       187.45
  119.48        2952.50           1256          49.00       174.37
  119.51        2952.75           1259          52.00       187.45
  119.54        2953.00           1262          54.00       196.17
  119.57        2953.25           1266          46.00       161.29
  119.60        2953.50           1269          43.00       148.21
  119.63        2953.75           1272          47.00       165.65
  119.66        2954.00           1276          48.00       170.01
  119.69        2954.25           1279          51.00       183.09
  119.73        2954.50           1282          52.00       187.45
  119.76        2954.75           1286          51.00       183.09
  119.79        2955.00           1289          45.00       156.93
  119.82        2955.25           1292          52.00       187.45
  119.85        2955.50           1296          49.00       174.37
  119.88        2955.75           1299          42.00       143.85
  119.91        2956.00           1302          49.00       174.37
  119.94        2956.25           1306          46.00       161.29
  119.97        2956.50           1309          42.00       143.85
  120.00        2956.75           1312          46.00       161.29
  120.03        2957.00           1316          44.00       152.57
  120.06        2957.25           1319          47.00       165.65
  120.10        2957.50           1322          50.00       178.73
  120.13        2957.75           1326          58.00       213.60
  120.16        2958.00           1329          46.00       161.29
  120.19        2958.25           1332          51.00       183.09
  120.22        2958.50           1336          49.00       174.37
  120.25        2958.75           1339          43.00       148.21
  120.28        2959.00           1342          45.00       156.93
  120.31        2959.25           1346          49.00       174.37
  120.34        2959.50           1349          63.00       235.40
  120.37        2959.75           1352          73.00       278.99
  120.40        2960.00           1356         103.00       409.77
  120.43        2960.25           1359         146.00       597.22
  120.47        2960.50           1362         186.00       771.60
  120.50        2960.75           1366         247.00      1037.52
  120.53        2961.00           1369         289.00      1220.62
  120.56        2961.25           1372         334.00      1416.80
  120.59        2961.50           1376         453.00      1935.60
  120.62        2961.75           1379         625.00      2685.48
  120.65        2962.00           1382        1366.00      5916.48
  120.68        2962.25           1386        3202.00     13924.74
  120.71        2962.50           1389        4784.00     20828.18
  120.74        2962.75           1392        6421.00     27974.65
  120.77        2963.00           1396        8635.00     37644.93
  120.80        2963.25           1399       10247.00     44689.35
  120.84        2963.50           1402       11906.00     51942.26
  120.87        2963.75           1406       14168.00     61836.49
  120.90        2964.00           1409       15833.00     69123.15
  120.93        2964.25           1412       17633.00     77004.19
  120.96        2964.50           1416       19803.00     86510.19
  120.99        2964.75           1419       21553.00     94180.29
  121.02        2965.00           1422       23317.00    101915.30
  121.05        2965.25           1426       25463.00    111330.20
  121.08        2965.50           1429       27457.00    120083.10
  121.11        2965.75           1432       29082.00    127219.60
  121.15        2966.00           1436       31414.00    137466.40
  121.18        2966.25           1439       32830.00    143691.30
  121.21        2966.50           1442       34310.00    150200.10
  121.24        2966.75           1446       35847.00    156962.30
  121.27        2967.00           1449       36246.00    158718.20
  121.30        2967.25           1452       36454.00    159633.60
  121.33        2967.50           1456       36396.00    159378.40
  121.36        2967.75           1459       36215.00    158581.80
  121.39        2968.00           1462       36205.00    158537.80
  121.43        2968.25           1466       35088.00    153622.70
  121.46        2968.50           1469       33881.00    148313.20
  121.49        2968.75           1472       32257.00    141172.00
  121.52        2969.00           1476       29723.00    130035.50
  121.55        2969.25           1479       28341.00    123965.00
  121.58        2969.50           1482       26621.00    116412.80
  121.61        2969.75           1486       24339.00    106398.40
  121.64        2970.00           1489       22791.00     99608.46
  121.67        2970.25           1492       21168.00     92492.56
  121.71        2970.50           1496       19031.00     83127.71
  121.74        2970.75           1499       17410.00     76027.62
  121.77        2971.00           1502       15635.00     68256.46
  121.80        2971.25           1506       13372.00     58354.03
  121.83        2971.50           1509       11603.00     50617.35
  121.86        2971.75           1513        9327.00     40668.60
  121.89        2972.00           1516        7671.00     33433.69
  121.92        2972.25           1519        6062.00     26407.14
  121.95        2972.50           1523        3814.00     16595.01
  121.98        2972.75           1526        2325.00     10098.96
  122.02        2973.00           1529        1051.00      4542.90
  122.05        2973.25           1533         427.00      1822.24
  122.08        2973.50           1536         356.00      1512.71
  122.11        2973.75           1539         287.00      1211.90
  122.14        2974.00           1543         238.00       998.29
  122.17        2974.25           1546         179.00       741.08
  122.20        2974.50           1549         126.00       510.03
  122.23        2974.75           1553          90.00       353.10
  122.26        2975.00           1556          77.00       296.43
  122.29        2975.25           1559          55.00       200.52
  122.32        2975.50           1563          51.00       183.09
  122.36        2975.75           1566          55.00       200.52
  122.39        2976.00           1569          44.00       152.57
  122.42        2976.25           1573          48.00       170.01
  122.45        2976.50           1576          50.00       178.73
  122.48        2976.75           1579          45.00       156.93
  122.51        2977.00           1583          49.00       174.37
  122.54        2977.25           1586          60.00       222.32
  122.57        2977.50           1590          49.00       174.37
  122.60        2977.75           1593          45.00       156.93
  122.63        2978.00           1596          44.00       152.57
  122.67        2978.25           1600          49.00       174.37
  122.70        2978.50           1603          44.00       152.57
  122.73        2978.75           1606          38.00       126.42
  122.76        2979.00           1610          52.00       187.45
  122.79        2979.25           1613          46.00       161.29
  122.82        2979.50           1616          47.00       165.65
  122.85        2979.75           1620          46.00       161.29
  122.88        2980.00           1623          44.00       152.57
  122.91        2980.25           1626          46.00       161.29
  122.94        2980.50           1630          45.00       156.93
  122.97        2980.75           1633          44.00       152.57
  123.01        2981.00           1637          39.00       130.78
  123.04        2981.25           1640          49.00       174.37
  123.07        2981.50           1643          45.00       156.93
  123.10        2981.75           1647          50.00       178.73
  123.13        2982.00           1650          44.00       152.57
  123.16        2982.25           1653          42.00       143.85
  123.19        2982.50           1657          45.00       156.93
  123.22        2982.75           1660          42.00       143.85
  123.25        2983.00           1663          50.00       178.73
  123.28        2983.25           1667          50.00       178.73
  123.31        2983.50           1670          57.00       209.24
  123.34        2983.75           1673          49.00       174.37
  123.38        2984.00           1677          45.00       156.93
HS scan finished at 02:03:35
end
************************************************************
  HS Scan of (1) Internal mercury lamp
************************************************************
Integration time is 0.2294 seconds per sample
dh010417Manchester 53.47 2.23 2.804185pr1000
************************************************************
Dead Time -------------------------  3E-08 
Number of Cycles Used -------------  4 
Starting Wavelength (Angstroms) ---  2950 
Final Wavelength (Angstoms) -------  2984 
Wavelength Increment (Angstroms) --  .25 
Filter Wheel #1 Position ---------- (1) Ground quartz diffuser (ND=2.32)
Filter Wheel #2 Position ---------- (1) Neutral Density 0.494



************************************************************
HS scan start time = 19:42:02
Dark Count =  6.6 


Time (GMT)  Wavelength (Ang)  Step Number  Raw Counts  Counts/Second

 1182.40        2950.00           1222          45.00       167.39
 1182.47        2950.25           1226          42.00       154.32
 1182.50        2950.50           1229          43.00       158.68
 1182.53        2950.75           1232          46.00       171.75
 1182.56        2951.00           1236          48.00       180.47
 1182.59        2951.25           1239          46.00       171.75
 1182.62        2951.50           1242          44.00       163.03
 1182.65        2951.75           1246          42.00       154.32
 1182.69        2952.00           1249          44.00       163.03
 1182.72        2952.25           1252          50.00       189.19
 1182.75        2952.50           1256          44.00       163.03
 1182.78        2952.75           1259          48.00       180.47
 1182.81        2953.00           1262          46.00       171.75
 1182.84        2953.25           1266          47.00       176.11
 1182.87        2953.50           1269          46.00       171.75
 1182.90        2953.75           1272          47.00       176.11
 1182.93        2954.00           1276          56.00       215.35
 1182.96        2954.25           1279          44.00       163.03
 1182.99        2954.50           1282          44.00       163.03
 1183.02        2954.75           1286          44.00       163.03
 1183.05        2955.00           1289          47.00       176.11
 1183.09        2955.25           1292          47.00       176.11
 1183.12        2955.50           1296          48.00       180.47
 1183.15        2955.75           1299          40.00       145.60
 1183.18        2956.00           1302          48.00       180.47
 1183.21        2956.25           1306          43.00       158.68
 1183.24        2956.50           1309          46.00       171.75
 1183.27        2956.75           1312          45.00       167.39
 1183.30        2957.00           1316          52.00       197.91
 1183.33        2957.25           1319          46.00       171.75
 1183.36        2957.50           1322          44.00       163.03
 1183.40        2957.75           1326          56.00       215.35
 1183.43        2958.00           1329          48.00       180.47
 1183.46        2958.25           1332          42.00       154.32
 1183.49        2958.50           1336          42.00       154.32
 1183.52        2958.75           1339          47.00       176.11
 1183.55        2959.00           1342          55.00       210.99
 1183.58        2959.25           1346          59.00       228.42
 1183.61        2959.50           1349          80.00       319.97
 1183.64        2959.75           1352          98.00       398.44
 1183.67        2960.00           1356         143.00       594.61
 1183.70        2960.25           1359         176.00       738.46
 1183.74        2960.50           1362         214.00       904.12
 1183.77        2960.75           1366         278.00      1183.13
 1183.80        2961.00           1369         338.00      1444.70
 1183.83        2961.25           1372         374.00      1601.65
 1183.86        2961.50           1376         400.00      1715.00
 1183.89        2961.75           1379         571.00      2460.51
 1183.92        2962.00           1382         957.00      4143.50
 1183.95        2962.25           1386        2294.00      9974.21
 1183.98        2962.50           1389        3932.00     17120.39
 1184.01        2962.75           1392        5454.00     23763.23
 1184.04        2963.00           1396        7657.00     33383.02
 1184.08        2963.25           1399        9340.00     40735.90
 1184.11        2963.50           1402       10965.00     47838.45
 1184.14        2963.75           1406       13273.00     57931.47
 1184.17        2964.00           1409       14961.00     65317.06
 1184.20        2964.25           1412       16640.00     72666.53
 1184.23        2964.50           1416       18862.00     82397.85
 1184.26        2964.75           1419       20607.00     90044.14
 1184.29        2965.00           1422       22315.00     97531.69
 1184.32        2965.25           1426       24686.00    107931.30
 1184.35        2965.50           1429       26240.00    114751.00
 1184.38        2965.75           1432       28161.00    123185.00
 1184.41        2966.00           1436       30201.00    132146.20
 1184.44        2966.25           1439       31582.00    138215.30
 1184.48        2966.50           1442       33264.00    145610.30
 1184.51        2966.75           1446       35032.00    153386.90
 1184.54        2967.00           1449       35758.00    156581.20
 1184.57        2967.25           1452       36162.00    158359.10
 1184.60        2967.50           1456       36123.00    158187.50
 1184.63        2967.75           1459       36036.00    157804.60
 1184.66        2968.00           1462       35840.00    156942.10
 1184.69        2968.25           1466       35110.00    153730.00
 1184.72        2968.50           1469       34125.00    149396.90
 1184.75        2968.75           1472       32566.00    142541.10
 1184.79        2969.00           1476       30257.00    132392.30
 1184.82        2969.25           1479       28734.00    125701.60
 1184.85        2969.50           1482       27082.00    118447.20
 1184.88        2969.75           1486       24977.00    109208.10
 1184.91        2970.00           1489       23411.00    102338.10
 1184.94        2970.25           1492       21698.00     94826.49
 1184.97        2970.50           1496       19772.00     86384.88
 1185.00        2970.75           1499       17786.00     77684.77
 1185.03        2971.00           1502       16200.00     70740.21
 1185.06        2971.25           1506       13971.00     60985.06
 1185.10        2971.50           1509       12179.00     53146.57
 1185.13        2971.75           1513        9960.00     43445.44
 1185.16        2972.00           1516        8328.00     36314.17
 1185.19        2972.25           1519        6592.00     28731.82
 1185.22        2972.50           1523        4490.00     19555.50
 1185.25        2972.75           1526        2936.00     12774.73
 1185.28        2973.00           1529        1612.00      6999.73
 1185.31        2973.25           1533         507.00      2181.49
 1185.34        2973.50           1536         298.00      1270.32
 1185.37        2973.75           1539         230.00       973.87
 1185.41        2974.00           1543         179.00       751.54
 1185.44        2974.25           1546         111.00       455.11
 1185.47        2974.50           1549          91.00       367.92
 1185.50        2974.75           1553          63.00       245.86
 1185.53        2975.00           1556          46.00       171.75
 1185.56        2975.25           1559          50.00       189.19
 1185.59        2975.50           1563          53.00       202.27
 1185.62        2975.75           1566          37.00       132.52
 1185.65        2976.00           1569          42.00       154.32
 1185.68        2976.25           1573          51.00       193.55
 1185.71        2976.50           1576          46.00       171.75
 1185.74        2976.75           1579          46.00       171.75
 1185.77        2977.00           1583          52.00       197.91
 1185.80        2977.25           1586          49.00       184.83
 1185.83        2977.50           1590          49.00       184.83
 1185.87        2977.75           1593          41.00       149.96
 1185.90        2978.00           1596          42.00       154.32
 1185.93        2978.25           1600          44.00       163.03
 1185.96        2978.50           1603          45.00       167.39
 1185.99        2978.75           1606          46.00       171.75
 1186.02        2979.00           1610          46.00       171.75
 1186.05        2979.25           1613          47.00       176.11
 1186.08        2979.50           1616          44.00       163.03
 1186.11        2979.75           1620          45.00       167.39
 1186.15        2980.00           1623          48.00       180.47
 1186.18        2980.25           1626          42.00       154.32
 1186.21        2980.50           1630          45.00       167.39
 1186.24        2980.75           1633          45.00       167.39
 1186.27        2981.00           1637          42.00       154.32
 1186.30        2981.25           1640          43.00       158.68
 1186.33        2981.50           1643          42.00       154.32
 1186.36        2981.75           1647          45.00       167.39
 1186.39        2982.00           1650          40.00       145.60
 1186.42        2982.25           1653          48.00       180.47
 1186.45        2982.50           1657          50.00       189.19
 1186.48        2982.75           1660          46.00       171.75
 1186.52        2983.00           1663          43.00       158.68
 1186.55        2983.25           1667          39.00       141.24
 1186.58        2983.50           1670          52.00       197.91
 1186.61        2983.75           1673          45.00       167.39
 1186.64        2984.00           1677          46.00       171.75
HS scan finished at 19:46:51
end
