************************************************************
  HS Scan of (1) Internal mercury lamp
************************************************************
Integration time is 0.2294 seconds per sample
dh070418Manchester 53.47 2.23 2.804185pr1000
************************************************************
Dead Time -------------------------  3E-08 
Number of Cycles Used -------------  4 
Starting Wavelength (Angstroms) ---  2950 
Final Wavelength (Angstoms) -------  2984 
Wavelength Increment (Angstroms) --  .25 
Filter Wheel #1 Position ---------- (1) Ground quartz diffuser (ND=2.32)
Filter Wheel #2 Position ---------- (1) Neutral Density 0.494



************************************************************
HS scan start time = 01:25:16
Dark Count =  4.6 


Time (GMT)  Wavelength (Ang)  Step Number  Raw Counts  Counts/Second

   85.64        2950.00           1222          52.00       206.63
   85.71        2950.25           1226          61.00       245.86
   85.74        2950.50           1229          60.00       241.50
   85.77        2950.75           1232          59.00       237.14
   85.80        2951.00           1236          57.00       228.42
   85.83        2951.25           1239          62.00       250.22
   85.86        2951.50           1242          58.00       232.78
   85.89        2951.75           1246          75.00       306.89
   85.92        2952.00           1249          54.00       215.35
   85.95        2952.25           1252          62.00       250.22
   85.98        2952.50           1256          55.00       219.71
   86.01        2952.75           1259          55.00       219.71
   86.04        2953.00           1262          54.00       215.35
   86.08        2953.25           1266          64.00       258.94
   86.11        2953.50           1269          55.00       219.71
   86.14        2953.75           1272          61.00       245.86
   86.17        2954.00           1276          61.00       245.86
   86.20        2954.25           1279          63.00       254.58
   86.23        2954.50           1282          58.00       232.78
   86.26        2954.75           1286          61.00       245.86
   86.29        2955.00           1289          50.00       197.91
   86.32        2955.25           1292          61.00       245.86
   86.35        2955.50           1296          60.00       241.50
   86.38        2955.75           1299          63.00       254.58
   86.41        2956.00           1302          53.00       210.99
   86.44        2956.25           1306          60.00       241.50
   86.47        2956.50           1309          63.00       254.58
   86.51        2956.75           1312          53.00       210.99
   86.54        2957.00           1316          55.00       219.71
   86.57        2957.25           1319          51.00       202.27
   86.60        2957.50           1322          64.00       258.94
   86.63        2957.75           1326          51.00       202.27
   86.66        2958.00           1329          54.00       215.35
   86.69        2958.25           1332          56.00       224.06
   86.72        2958.50           1336          56.00       224.06
   86.75        2958.75           1339          62.00       250.22
   86.78        2959.00           1342          63.00       254.58
   86.81        2959.25           1346          64.00       258.94
   86.84        2959.50           1349          69.00       280.73
   86.87        2959.75           1352          87.00       359.20
   86.91        2960.00           1356         117.00       489.98
   86.94        2960.25           1359         140.00       590.25
   86.97        2960.50           1362         194.00       825.65
   87.00        2960.75           1366         236.00      1008.75
   87.03        2961.00           1369         281.00      1204.93
   87.06        2961.25           1372         306.00      1313.91
   87.09        2961.50           1376         391.00      1684.48
   87.12        2961.75           1379         473.00      2041.97
   87.15        2962.00           1382         944.00      4095.53
   87.18        2962.25           1386        2371.00     10318.80
   87.21        2962.50           1389        3834.00     16701.48
   87.24        2962.75           1392        5243.00     22850.88
   87.27        2963.00           1396        7125.00     31068.18
   87.30        2963.25           1399        8435.00     36790.37
   87.34        2963.50           1402       10007.00     43659.59
   87.37        2963.75           1406       12051.00     52595.57
   87.40        2964.00           1409       13629.00     59497.57
   87.43        2964.25           1412       15197.00     66358.65
   87.46        2964.50           1416       17301.00     75569.56
   87.49        2964.75           1419       18728.00     81819.60
   87.52        2965.00           1422       20323.00     88808.22
   87.55        2965.25           1426       22291.00     97435.22
   87.58        2965.50           1429       23816.00    104123.30
   87.62        2965.75           1432       25313.00    110691.30
   87.65        2966.00           1436       27140.00    118710.60
   87.68        2966.25           1439       28628.00    125244.80
   87.71        2966.50           1442       29873.00    130713.90
   87.74        2966.75           1446       31566.00    138153.80
   87.77        2967.00           1449       32168.00    140800.10
   87.80        2967.25           1452       32162.00    140773.70
   87.83        2967.50           1456       32202.00    140949.60
   87.86        2967.75           1459       32268.00    141239.80
   87.89        2968.00           1462       32229.00    141068.30
   87.92        2968.25           1466       31219.00    136628.60
   87.95        2968.50           1469       30167.00    132005.60
   87.99        2968.75           1472       28570.00    124990.00
   88.02        2969.00           1476       26782.00    117138.90
   88.05        2969.25           1479       25384.00    111002.90
   88.08        2969.50           1482       24010.00    104974.40
   88.11        2969.75           1486       21811.00     95330.66
   88.14        2970.00           1489       20493.00     89553.26
   88.17        2970.25           1492       19038.00     83177.65
   88.20        2970.50           1496       16785.00     73310.13
   88.23        2970.75           1499       15380.00     67159.59
   88.26        2971.00           1502       13821.00     60337.55
   88.29        2971.25           1506       11846.00     51699.14
   88.32        2971.50           1509       10407.00     45407.94
   88.35        2971.75           1513        8569.00     37375.80
   88.39        2972.00           1516        7114.00     31020.14
   88.42        2972.25           1519        5707.00     24876.45
   88.45        2972.50           1523        3707.00     16147.32
   88.48        2972.75           1526        2247.00      9777.93
   88.51        2973.00           1529        1014.00      4400.76
   88.54        2973.25           1533         425.00      1832.71
   88.57        2973.50           1536         330.00      1418.54
   88.60        2973.75           1539         260.00      1113.38
   88.63        2974.00           1543         215.00       917.20
   88.66        2974.25           1546         157.00       664.36
   88.70        2974.50           1549         132.00       555.37
   88.73        2974.75           1553          97.00       402.79
   88.76        2975.00           1556          66.00       267.66
   88.79        2975.25           1559          61.00       245.86
   88.82        2975.50           1563          59.00       237.14
   88.85        2975.75           1566          55.00       219.71
   88.88        2976.00           1569          59.00       237.14
   88.91        2976.25           1573          69.00       280.73
   88.94        2976.50           1576          53.00       210.99
   88.97        2976.75           1579          58.00       232.78
   89.00        2977.00           1583          55.00       219.71
   89.04        2977.25           1586          60.00       241.50
   89.07        2977.50           1590          54.00       215.35
   89.10        2977.75           1593          58.00       232.78
   89.13        2978.00           1596          54.00       215.35
   89.16        2978.25           1600          50.00       197.91
   89.19        2978.50           1603          44.00       171.75
   89.22        2978.75           1606          52.00       206.63
   89.25        2979.00           1610          58.00       232.78
   89.28        2979.25           1613          61.00       245.86
   89.31        2979.50           1616          52.00       206.63
   89.34        2979.75           1620          57.00       228.42
   89.37        2980.00           1623          56.00       224.06
   89.40        2980.25           1626          57.00       228.42
   89.43        2980.50           1630          52.00       206.63
   89.46        2980.75           1633          56.00       224.06
   89.49        2981.00           1637          57.00       228.42
   89.52        2981.25           1640          51.00       202.27
   89.56        2981.50           1643          59.00       237.14
   89.59        2981.75           1647          56.00       224.06
   89.62        2982.00           1650          51.00       202.27
   89.65        2982.25           1653          54.00       215.35
   89.68        2982.50           1657          42.00       163.03
   89.71        2982.75           1660          52.00       206.63
   89.74        2983.00           1663          55.00       219.71
   89.77        2983.25           1667          51.00       202.27
   89.80        2983.50           1670          60.00       241.50
   89.83        2983.75           1673          55.00       219.71
   89.86        2984.00           1677          48.00       189.19
HS scan finished at 01:30:05
end
************************************************************
  HS Scan of (1) Internal mercury lamp
************************************************************
Integration time is 0.2294 seconds per sample
dh070418Manchester 53.47 2.23 2.804185pr1000
************************************************************
Dead Time -------------------------  3E-08 
Number of Cycles Used -------------  4 
Starting Wavelength (Angstroms) ---  2950 
Final Wavelength (Angstoms) -------  2984 
Wavelength Increment (Angstroms) --  .25 
Filter Wheel #1 Position ---------- (1) Ground quartz diffuser (ND=2.32)
Filter Wheel #2 Position ---------- (1) Neutral Density 0.494



************************************************************
HS scan start time = 19:42:00
Dark Count =  8 


Time (GMT)  Wavelength (Ang)  Step Number  Raw Counts  Counts/Second

 1182.37        2950.00           1222          60.00       226.68
 1182.44        2950.25           1226          56.00       209.24
 1182.47        2950.50           1229          67.00       257.19
 1182.50        2950.75           1232          55.00       204.88
 1182.53        2951.00           1236          58.00       217.96
 1182.56        2951.25           1239          60.00       226.68
 1182.59        2951.50           1242          57.00       213.60
 1182.62        2951.75           1246          59.00       222.32
 1182.66        2952.00           1249          54.00       200.52
 1182.69        2952.25           1252          56.00       209.24
 1182.72        2952.50           1256          61.00       231.04
 1182.75        2952.75           1259          67.00       257.19
 1182.78        2953.00           1262          59.00       222.32
 1182.81        2953.25           1266          62.00       235.40
 1182.84        2953.50           1269          52.00       191.81
 1182.87        2953.75           1272          62.00       235.40
 1182.90        2954.00           1276          64.00       244.12
 1182.93        2954.25           1279          64.00       244.12
 1182.96        2954.50           1282          64.00       244.12
 1182.99        2954.75           1286          55.00       204.88
 1183.02        2955.00           1289          58.00       217.96
 1183.05        2955.25           1292          55.00       204.88
 1183.09        2955.50           1296          62.00       235.40
 1183.12        2955.75           1299          55.00       204.88
 1183.15        2956.00           1302          64.00       244.12
 1183.18        2956.25           1306          61.00       231.04
 1183.21        2956.50           1309          62.00       235.40
 1183.24        2956.75           1312          60.00       226.68
 1183.27        2957.00           1316          56.00       209.24
 1183.30        2957.25           1319          54.00       200.52
 1183.33        2957.50           1322          59.00       222.32
 1183.36        2957.75           1326          59.00       222.32
 1183.39        2958.00           1329          71.00       274.63
 1183.43        2958.25           1332          61.00       231.04
 1183.46        2958.50           1336          62.00       235.40
 1183.49        2958.75           1339          58.00       217.96
 1183.52        2959.00           1342          61.00       231.04
 1183.55        2959.25           1346          69.00       265.91
 1183.58        2959.50           1349          69.00       265.91
 1183.61        2959.75           1352          89.00       353.10
 1183.64        2960.00           1356         125.00       510.03
 1183.67        2960.25           1359         148.00       610.30
 1183.70        2960.50           1362         175.00       728.00
 1183.73        2960.75           1366         248.00      1046.24
 1183.77        2961.00           1369         301.00      1277.29
 1183.80        2961.25           1372         311.00      1320.89
 1183.83        2961.50           1376         429.00      1835.32
 1183.86        2961.75           1379         723.00      3117.12
 1183.89        2962.00           1382        1677.00      7277.09
 1183.92        2962.25           1386        3580.00     15578.33
 1183.95        2962.50           1389        4953.00     21570.19
 1183.98        2962.75           1392        6385.00     27821.82
 1184.01        2963.00           1396        8263.00     36024.10
 1184.04        2963.25           1399        9694.00     42276.78
 1184.07        2963.50           1402       11275.00     49187.62
 1184.11        2963.75           1406       13352.00     58270.91
 1184.14        2964.00           1409       14797.00     64593.23
 1184.17        2964.25           1412       16471.00     71920.49
 1184.20        2964.50           1416       18373.00     80249.65
 1184.23        2964.75           1419       19698.00     86054.49
 1184.26        2965.00           1422       21096.00     92181.33
 1184.29        2965.25           1426       22988.00    100476.80
 1184.32        2965.50           1429       24577.00    107446.90
 1184.35        2965.75           1432       26101.00    114134.70
 1184.38        2966.00           1436       28032.00    122612.40
 1184.42        2966.25           1439       29423.00    128721.90
 1184.45        2966.50           1442       30787.00    134715.10
 1184.48        2966.75           1446       31829.00    139294.90
 1184.51        2967.00           1449       32146.00    140688.50
 1184.54        2967.25           1452       32115.00    140552.20
 1184.57        2967.50           1456       32033.00    140191.70
 1184.60        2967.75           1459       32051.00    140270.80
 1184.63        2968.00           1462       31548.00    138059.80
 1184.66        2968.25           1466       30507.00    133484.70
 1184.69        2968.50           1469       29010.00    126907.70
 1184.72        2968.75           1472       27882.00    121953.70
 1184.76        2969.00           1476       25689.00    112326.50
 1184.79        2969.25           1479       24352.00    106459.80
 1184.82        2969.50           1482       22632.00     98915.59
 1184.85        2969.75           1486       20653.00     90239.60
 1184.88        2970.00           1489       19210.00     83916.31
 1184.91        2970.25           1492       17807.00     77770.60
 1184.94        2970.50           1496       15766.00     68834.25
 1184.97        2970.75           1499       14385.00     62790.37
 1185.00        2971.00           1502       12801.00     55860.76
 1185.03        2971.25           1506       10982.00     47906.65
 1185.06        2971.50           1509        9581.00     41782.95
 1185.09        2971.75           1513        7489.00     32643.11
 1185.13        2972.00           1516        6038.00     26306.72
 1185.16        2972.25           1519        4613.00     20086.21
 1185.19        2972.50           1523        2687.00     11682.38
 1185.22        2972.75           1526        1386.00      6008.06
 1185.25        2973.00           1529         607.00      2611.36
 1185.28        2973.25           1533         369.00      1573.74
 1185.31        2973.50           1536         315.00      1338.33
 1185.34        2973.75           1539         268.00      1133.43
 1185.37        2974.00           1543         227.00       954.69
 1185.41        2974.25           1546         161.00       666.97
 1185.44        2974.50           1549         150.00       619.02
 1185.47        2974.75           1553          91.00       361.82
 1185.50        2975.00           1556          67.00       257.19
 1185.53        2975.25           1559          65.00       248.48
 1185.56        2975.50           1563          57.00       213.60
 1185.59        2975.75           1566          63.00       239.76
 1185.62        2976.00           1569          60.00       226.68
 1185.65        2976.25           1573          59.00       222.32
 1185.68        2976.50           1576          63.00       239.76
 1185.71        2976.75           1579          65.00       248.48
 1185.74        2977.00           1583          63.00       239.76
 1185.77        2977.25           1586          58.00       217.96
 1185.81        2977.50           1590          52.00       191.81
 1185.84        2977.75           1593          57.00       213.60
 1185.87        2978.00           1596          63.00       239.76
 1185.90        2978.25           1600          66.00       252.84
 1185.93        2978.50           1603          57.00       213.60
 1185.96        2978.75           1606          54.00       200.52
 1185.99        2979.00           1610          56.00       209.24
 1186.02        2979.25           1613          51.00       187.45
 1186.05        2979.50           1616          62.00       235.40
 1186.08        2979.75           1620          54.00       200.52
 1186.11        2980.00           1623          65.00       248.48
 1186.14        2980.25           1626          50.00       183.09
 1186.17        2980.50           1630          55.00       204.88
 1186.20        2980.75           1633          49.00       178.73
 1186.23        2981.00           1637          51.00       187.45
 1186.27        2981.25           1640          54.00       200.52
 1186.30        2981.50           1643          54.00       200.52
 1186.33        2981.75           1647          58.00       217.96
 1186.36        2982.00           1650          54.00       200.52
 1186.39        2982.25           1653          57.00       213.60
 1186.42        2982.50           1657          55.00       204.88
 1186.45        2982.75           1660          55.00       204.88
 1186.48        2983.00           1663          54.00       200.52
 1186.51        2983.25           1667          52.00       191.81
 1186.54        2983.50           1670          51.00       187.45
 1186.58        2983.75           1673          54.00       200.52
 1186.61        2984.00           1677          55.00       204.88
HS scan finished at 19:46:49
end
