************************************************************
  HS Scan of (1) Internal mercury lamp
************************************************************
Integration time is 0.2294 seconds per sample
dh090417Manchester 53.47 2.23 2.804185pr1000
************************************************************
Dead Time -------------------------  3E-08 
Number of Cycles Used -------------  4 
Starting Wavelength (Angstroms) ---  2950 
Final Wavelength (Angstoms) -------  2984 
Wavelength Increment (Angstroms) --  .25 
Filter Wheel #1 Position ---------- (1) Ground quartz diffuser (ND=2.32)
Filter Wheel #2 Position ---------- (1) Neutral Density 0.494



************************************************************
HS scan start time = 01:37:27
Dark Count =  7.2 


Time (GMT)  Wavelength (Ang)  Step Number  Raw Counts  Counts/Second

   97.81        2950.00           1222          44.00       160.42
   97.88        2950.25           1226          57.00       217.09
   97.91        2950.50           1229          51.00       190.93
   97.94        2950.75           1232          50.00       186.57
   97.98        2951.00           1236          47.00       173.50
   98.01        2951.25           1239          41.00       147.34
   98.04        2951.50           1242          51.00       190.93
   98.07        2951.75           1246          41.00       147.34
   98.10        2952.00           1249          49.00       182.22
   98.13        2952.25           1252          53.00       199.65
   98.16        2952.50           1256          48.00       177.86
   98.19        2952.75           1259          46.00       169.14
   98.22        2953.00           1262          44.00       160.42
   98.25        2953.25           1266          46.00       169.14
   98.28        2953.50           1269          45.00       164.78
   98.31        2953.75           1272          46.00       169.14
   98.34        2954.00           1276          50.00       186.57
   98.38        2954.25           1279          53.00       199.65
   98.41        2954.50           1282          47.00       173.50
   98.44        2954.75           1286          51.00       190.93
   98.47        2955.00           1289          42.00       151.70
   98.50        2955.25           1292          43.00       156.06
   98.53        2955.50           1296          54.00       204.01
   98.56        2955.75           1299          47.00       173.50
   98.59        2956.00           1302          42.00       151.70
   98.62        2956.25           1306          45.00       164.78
   98.65        2956.50           1309          47.00       173.50
   98.69        2956.75           1312          60.00       230.17
   98.72        2957.00           1316          42.00       151.70
   98.75        2957.25           1319          45.00       164.78
   98.78        2957.50           1322          46.00       169.14
   98.81        2957.75           1326          54.00       204.01
   98.84        2958.00           1329          42.00       151.70
   98.87        2958.25           1332          52.00       195.29
   98.90        2958.50           1336          42.00       151.70
   98.93        2958.75           1339          42.00       151.70
   98.96        2959.00           1342          39.00       138.62
   98.99        2959.25           1346          49.00       182.22
   99.02        2959.50           1349          61.00       234.53
   99.06        2959.75           1352          72.00       282.48
   99.09        2960.00           1356          97.00       391.46
   99.12        2960.25           1359         134.00       552.76
   99.15        2960.50           1362         170.00       709.69
   99.18        2960.75           1366         234.00       988.70
   99.21        2961.00           1369         293.00      1245.91
   99.24        2961.25           1372         326.00      1389.77
   99.27        2961.50           1376         475.00      2039.36
   99.30        2961.75           1379         860.00      3717.94
   99.33        2962.00           1382        1737.00      7542.25
   99.37        2962.25           1386        3758.00     16358.51
   99.40        2962.50           1389        5329.00     23214.94
   99.43        2962.75           1392        7047.00     30716.18
   99.46        2963.00           1396        9150.00     39903.01
   99.49        2963.25           1399       10771.00     46987.73
   99.52        2963.50           1402       12639.00     55155.71
   99.55        2963.75           1406       14790.00     64566.10
   99.58        2964.00           1409       16367.00     71468.68
   99.61        2964.25           1412       18233.00     79639.93
   99.64        2964.50           1416       20365.00     88980.90
   99.67        2964.75           1419       22101.00     96590.74
   99.70        2965.00           1422       23713.00    103660.20
   99.74        2965.25           1426       25743.00    112567.00
   99.77        2965.50           1429       27476.00    120174.40
   99.80        2965.75           1432       29327.00    128303.70
   99.83        2966.00           1436       31517.00    137927.00
   99.86        2966.25           1439       32918.00    144086.20
   99.89        2966.50           1442       34532.00    151184.60
   99.92        2966.75           1446       35810.00    156807.40
   99.95        2967.00           1449       35780.00    156675.40
   99.98        2967.25           1452       35977.00    157542.30
  100.02        2967.50           1456       35983.00    157568.70
  100.05        2967.75           1459       35799.00    156759.00
  100.08        2968.00           1462       35553.00    155676.60
  100.11        2968.25           1466       34159.00    149543.90
  100.14        2968.50           1469       32553.00    142481.30
  100.17        2968.75           1472       30821.00    134868.00
  100.20        2969.00           1476       28812.00    126041.50
  100.23        2969.25           1479       27019.00    118168.00
  100.26        2969.50           1482       25572.00    111816.50
  100.30        2969.75           1486       23409.00    102326.70
  100.33        2970.00           1489       21803.00     95284.19
  100.36        2970.25           1492       20025.00     87490.90
  100.39        2970.50           1496       17883.00     78106.96
  100.42        2970.75           1499       16361.00     71442.41
  100.45        2971.00           1502       14723.00     64272.90
  100.48        2971.25           1506       12368.00     53970.49
  100.51        2971.50           1509       10673.00     46559.32
  100.54        2971.75           1513        8527.00     37180.95
  100.57        2972.00           1516        6895.00     30052.36
  100.60        2972.25           1519        5209.00     22691.12
  100.64        2972.50           1523        2989.00     13003.33
  100.67        2972.75           1526        1611.00      6992.75
  100.70        2973.00           1529         715.00      3085.73
  100.73        2973.25           1533         422.00      1808.29
  100.76        2973.50           1536         339.00      1446.44
  100.79        2973.75           1539         281.00      1193.59
  100.82        2974.00           1543         240.00      1014.85
  100.85        2974.25           1546         176.00       735.85
  100.88        2974.50           1549         138.00       570.19
  100.92        2974.75           1553          92.00       369.66
  100.95        2975.00           1556          68.00       265.04
  100.98        2975.25           1559          64.00       247.60
  101.01        2975.50           1563          52.00       195.29
  101.04        2975.75           1566          50.00       186.57
  101.07        2976.00           1569          50.00       186.57
  101.10        2976.25           1573          58.00       221.45
  101.13        2976.50           1576          44.00       160.42
  101.16        2976.75           1579          47.00       173.50
  101.19        2977.00           1583          49.00       182.22
  101.22        2977.25           1586          49.00       182.22
  101.26        2977.50           1590          47.00       173.50
  101.29        2977.75           1593          56.00       212.73
  101.32        2978.00           1596          40.00       142.98
  101.35        2978.25           1600          45.00       164.78
  101.38        2978.50           1603          49.00       182.22
  101.41        2978.75           1606          44.00       160.42
  101.44        2979.00           1610          51.00       190.93
  101.47        2979.25           1613          51.00       190.93
  101.50        2979.50           1616          45.00       164.78
  101.53        2979.75           1620          51.00       190.93
  101.56        2980.00           1623          48.00       177.86
  101.59        2980.25           1626          51.00       190.93
  101.62        2980.50           1630          46.00       169.14
  101.66        2980.75           1633          45.00       164.78
  101.69        2981.00           1637          46.00       169.14
  101.72        2981.25           1640          45.00       164.78
  101.75        2981.50           1643          43.00       156.06
  101.78        2981.75           1647          45.00       164.78
  101.81        2982.00           1650          46.00       169.14
  101.84        2982.25           1653          43.00       156.06
  101.87        2982.50           1657          55.00       208.37
  101.90        2982.75           1660          41.00       147.34
  101.93        2983.00           1663          47.00       173.50
  101.96        2983.25           1667          42.00       151.70
  101.99        2983.50           1670          46.00       169.14
  102.02        2983.75           1673          38.00       134.26
  102.05        2984.00           1677          44.00       160.42
HS scan finished at 01:42:16
end
************************************************************
  HS Scan of (1) Internal mercury lamp
************************************************************
Integration time is 0.2294 seconds per sample
dh090417Manchester 53.47 2.23 2.804185pr1000
************************************************************
Dead Time -------------------------  3E-08 
Number of Cycles Used -------------  4 
Starting Wavelength (Angstroms) ---  2950 
Final Wavelength (Angstoms) -------  2984 
Wavelength Increment (Angstroms) --  .25 
Filter Wheel #1 Position ---------- (1) Ground quartz diffuser (ND=2.32)
Filter Wheel #2 Position ---------- (1) Neutral Density 0.494



************************************************************
HS scan start time = 20:12:03
Dark Count =  7.3 


Time (GMT)  Wavelength (Ang)  Step Number  Raw Counts  Counts/Second

 1212.43        2950.00           1222          54.00       203.58
 1212.49        2950.25           1226          48.00       177.42
 1212.53        2950.50           1229          46.00       168.70
 1212.56        2950.75           1232          47.00       173.06
 1212.59        2951.00           1236          44.00       159.98
 1212.62        2951.25           1239          43.00       155.62
 1212.65        2951.50           1242          51.00       190.50
 1212.68        2951.75           1246          45.00       164.34
 1212.71        2952.00           1249          47.00       173.06
 1212.74        2952.25           1252          45.00       164.34
 1212.77        2952.50           1256          45.00       164.34
 1212.80        2952.75           1259          40.00       142.55
 1212.83        2953.00           1262          44.00       159.98
 1212.86        2953.25           1266          49.00       181.78
 1212.89        2953.50           1269          49.00       181.78
 1212.92        2953.75           1272          48.00       177.42
 1212.96        2954.00           1276          44.00       159.98
 1212.99        2954.25           1279          41.00       146.91
 1213.02        2954.50           1282          46.00       168.70
 1213.05        2954.75           1286          50.00       186.14
 1213.08        2955.00           1289          47.00       173.06
 1213.11        2955.25           1292          47.00       173.06
 1213.14        2955.50           1296          43.00       155.62
 1213.17        2955.75           1299          48.00       177.42
 1213.20        2956.00           1302          44.00       159.98
 1213.23        2956.25           1306          47.00       173.06
 1213.26        2956.50           1309          49.00       181.78
 1213.30        2956.75           1312          49.00       181.78
 1213.33        2957.00           1316          52.00       194.86
 1213.36        2957.25           1319          44.00       159.98
 1213.39        2957.50           1322          51.00       190.50
 1213.42        2957.75           1326          48.00       177.42
 1213.45        2958.00           1329          52.00       194.86
 1213.48        2958.25           1332          42.00       151.26
 1213.51        2958.50           1336          50.00       186.14
 1213.54        2958.75           1339          45.00       164.34
 1213.57        2959.00           1342          50.00       186.14
 1213.60        2959.25           1346          49.00       181.78
 1213.63        2959.50           1349          63.00       242.81
 1213.67        2959.75           1352          80.00       316.92
 1213.70        2960.00           1356         109.00       443.34
 1213.73        2960.25           1359         146.00       604.63
 1213.76        2960.50           1362         183.00       765.93
 1213.79        2960.75           1366         240.00      1014.42
 1213.82        2961.00           1369         276.00      1171.36
 1213.85        2961.25           1372         339.00      1446.01
 1213.88        2961.50           1376         450.00      1929.93
 1213.91        2961.75           1379         691.00      2980.65
 1213.94        2962.00           1382        1415.00      6137.57
 1213.97        2962.25           1386        3195.00     13901.61
 1214.01        2962.50           1389        4793.00     20874.88
 1214.04        2962.75           1392        6312.00     27506.13
 1214.07        2963.00           1396        8406.00     36651.88
 1214.10        2963.25           1399       10033.00     43761.43
 1214.13        2963.50           1402       11487.00     50117.58
 1214.16        2963.75           1406       13919.00     60754.49
 1214.19        2964.00           1409       15595.00     68088.82
 1214.22        2964.25           1412       17323.00     75654.08
 1214.25        2964.50           1416       19781.00     86421.24
 1214.28        2964.75           1419       21502.00     93964.15
 1214.32        2965.00           1422       23366.00    102137.70
 1214.35        2965.25           1426       25411.00    111109.50
 1214.38        2965.50           1429       27038.00    118250.90
 1214.41        2965.75           1432       28574.00    124995.70
 1214.44        2966.00           1436       30903.00    135228.00
 1214.47        2966.25           1439       32411.00    141856.60
 1214.50        2966.50           1442       33874.00    148289.90
 1214.53        2966.75           1446       35328.00    154686.10
 1214.57        2967.00           1449       35700.00    156322.90
 1214.60        2967.25           1452       35778.00    156666.20
 1214.63        2967.50           1456       35873.00    157084.20
 1214.66        2967.75           1459       35740.00    156498.90
 1214.69        2968.00           1462       35400.00    155002.90
 1214.72        2968.25           1466       34264.00    150005.30
 1214.75        2968.50           1469       33166.00    145176.30
 1214.78        2968.75           1472       31642.00    138476.00
 1214.81        2969.00           1476       29534.00    129212.60
 1214.85        2969.25           1479       27921.00    122128.00
 1214.88        2969.50           1482       26450.00    115669.70
 1214.91        2969.75           1486       24205.00    105818.00
 1214.94        2970.00           1489       22706.00     99243.16
 1214.97        2970.25           1492       20899.00     91320.90
 1215.00        2970.50           1496       18649.00     81461.71
 1215.03        2970.75           1499       16956.00     74047.04
 1215.06        2971.00           1502       15363.00     67073.38
 1215.09        2971.25           1506       13061.00     57001.06
 1215.13        2971.50           1509       11284.00     49230.03
 1215.16        2971.75           1513        9206.00     40147.28
 1215.19        2972.00           1516        7595.00     33109.16
 1215.22        2972.25           1519        6006.00     26170.06
 1215.25        2972.50           1523        3881.00     16894.79
 1215.28        2972.75           1526        2424.00     10538.20
 1215.31        2973.00           1529        1172.00      5077.93
 1215.34        2973.25           1533         427.00      1829.66
 1215.37        2973.50           1536         334.00      1424.21
 1215.40        2973.75           1539         284.00      1206.23
 1215.43        2974.00           1543         238.00      1005.70
 1215.47        2974.25           1546         165.00       687.46
 1215.50        2974.50           1549         125.00       513.09
 1215.53        2974.75           1553          87.00       347.43
 1215.56        2975.00           1556          54.00       203.58
 1215.59        2975.25           1559          51.00       190.50
 1215.62        2975.50           1563          52.00       194.86
 1215.65        2975.75           1566          49.00       181.78
 1215.68        2976.00           1569          44.00       159.98
 1215.71        2976.25           1573          47.00       173.06
 1215.74        2976.50           1576          42.00       151.26
 1215.77        2976.75           1579          42.00       151.26
 1215.80        2977.00           1583          42.00       151.26
 1215.84        2977.25           1586          52.00       194.86
 1215.87        2977.50           1590          47.00       173.06
 1215.90        2977.75           1593          52.00       194.86
 1215.93        2978.00           1596          49.00       181.78
 1215.96        2978.25           1600          55.00       207.94
 1215.99        2978.50           1603          50.00       186.14
 1216.02        2978.75           1606          50.00       186.14
 1216.05        2979.00           1610          47.00       173.06
 1216.08        2979.25           1613          47.00       173.06
 1216.11        2979.50           1616          44.00       159.98
 1216.14        2979.75           1620          43.00       155.62
 1216.17        2980.00           1623          46.00       168.70
 1216.21        2980.25           1626          42.00       151.26
 1216.24        2980.50           1630          50.00       186.14
 1216.27        2980.75           1633          40.00       142.55
 1216.30        2981.00           1637          48.00       177.42
 1216.33        2981.25           1640          41.00       146.91
 1216.36        2981.50           1643          55.00       207.94
 1216.39        2981.75           1647          40.00       142.55
 1216.42        2982.00           1650          47.00       173.06
 1216.45        2982.25           1653          45.00       164.34
 1216.48        2982.50           1657          44.00       159.98
 1216.51        2982.75           1660          43.00       155.62
 1216.55        2983.00           1663          44.00       159.98
 1216.58        2983.25           1667          44.00       159.98
 1216.61        2983.50           1670          48.00       177.42
 1216.64        2983.75           1673          40.00       142.55
 1216.67        2984.00           1677          46.00       168.70
HS scan finished at 20:16:53
end
