************************************************************
  HS Scan of (1) Internal mercury lamp
************************************************************
Integration time is 0.2294 seconds per sample
dh060417Manchester 53.47 2.23 2.804185pr1000
************************************************************
Dead Time -------------------------  3E-08 
Number of Cycles Used -------------  4 
Starting Wavelength (Angstroms) ---  2950 
Final Wavelength (Angstoms) -------  2984 
Wavelength Increment (Angstroms) --  .25 
Filter Wheel #1 Position ---------- (1) Ground quartz diffuser (ND=2.32)
Filter Wheel #2 Position ---------- (1) Neutral Density 0.494



************************************************************
HS scan start time = 01:35:12
Dark Count =  3.9 


Time (GMT)  Wavelength (Ang)  Step Number  Raw Counts  Counts/Second

   95.57        2950.00           1222          50.00       200.96
   95.63        2950.25           1226          46.00       183.52
   95.67        2950.50           1229          45.00       179.16
   95.70        2950.75           1232          41.00       161.73
   95.73        2951.00           1236          43.00       170.45
   95.76        2951.25           1239          47.00       187.88
   95.79        2951.50           1242          48.00       192.24
   95.82        2951.75           1246          54.00       218.40
   95.85        2952.00           1249          44.00       174.80
   95.88        2952.25           1252          56.00       227.12
   95.91        2952.50           1256          51.00       205.32
   95.94        2952.75           1259          51.00       205.32
   95.97        2953.00           1262          50.00       200.96
   96.01        2953.25           1266          45.00       179.16
   96.04        2953.50           1269          50.00       200.96
   96.07        2953.75           1272          43.00       170.45
   96.10        2954.00           1276          47.00       187.88
   96.13        2954.25           1279          53.00       214.04
   96.16        2954.50           1282          51.00       205.32
   96.19        2954.75           1286          42.00       166.09
   96.22        2955.00           1289          49.00       196.60
   96.25        2955.25           1292          47.00       187.88
   96.28        2955.50           1296          50.00       200.96
   96.31        2955.75           1299          55.00       222.76
   96.34        2956.00           1302          50.00       200.96
   96.37        2956.25           1306          38.00       148.65
   96.41        2956.50           1309          49.00       196.60
   96.44        2956.75           1312          49.00       196.60
   96.47        2957.00           1316          45.00       179.16
   96.50        2957.25           1319          53.00       214.04
   96.53        2957.50           1322          46.00       183.52
   96.56        2957.75           1326          45.00       179.16
   96.59        2958.00           1329          47.00       187.88
   96.62        2958.25           1332          45.00       179.16
   96.65        2958.50           1336          40.00       157.37
   96.68        2958.75           1339          56.00       227.12
   96.72        2959.00           1342          43.00       170.45
   96.75        2959.25           1346          60.00       244.55
   96.78        2959.50           1349          51.00       205.32
   96.81        2959.75           1352          64.00       261.99
   96.84        2960.00           1356         103.00       432.00
   96.87        2960.25           1359         129.00       545.34
   96.90        2960.50           1362         170.00       724.08
   96.93        2960.75           1366         230.00       985.64
   96.96        2961.00           1369         269.00      1155.66
   96.99        2961.25           1372         332.00      1430.31
   97.03        2961.50           1376         435.00      1879.36
   97.06        2961.75           1379         662.00      2869.04
   97.09        2962.00           1382        1378.00      5991.05
   97.12        2962.25           1386        3151.00     13724.48
   97.15        2962.50           1389        4783.00     20846.08
   97.18        2962.75           1392        6421.00     27996.92
   97.21        2963.00           1396        8756.00     38195.88
   97.24        2963.25           1399       10261.00     44772.83
   97.27        2963.50           1402       11933.00     52082.62
   97.30        2963.75           1406       14277.00     62335.73
   97.33        2964.00           1409       15856.00     69246.13
   97.37        2964.25           1412       17555.00     76684.94
   97.40        2964.50           1416       19854.00     86756.02
   97.43        2964.75           1419       21429.00     93659.04
   97.46        2965.00           1422       23308.00    101898.20
   97.49        2965.25           1426       25317.00    110711.90
   97.52        2965.50           1429       27307.00    119446.90
   97.55        2965.75           1432       28896.00    126425.00
   97.58        2966.00           1436       31389.00    137378.90
   97.61        2966.25           1439       32763.00    143419.10
   97.65        2966.50           1442       34626.00    151612.60
   97.68        2966.75           1446       35712.00    156390.70
   97.71        2967.00           1449       36114.00    158159.70
   97.74        2967.25           1452       35973.00    157539.20
   97.77        2967.50           1456       36186.00    158476.60
   97.80        2967.75           1459       35975.00    157548.00
   97.83        2968.00           1462       35757.00    156588.70
   97.86        2968.25           1466       34372.00    150495.30
   97.89        2968.50           1469       32950.00    144241.40
   97.92        2968.75           1472       31320.00    137075.60
   97.95        2969.00           1476       29329.00    128327.00
   97.99        2969.25           1479       27583.00    120658.70
   98.02        2969.50           1482       25974.00    113595.30
   98.05        2969.75           1486       23600.00    103179.00
   98.08        2970.00           1489       21942.00     95908.08
   98.11        2970.25           1492       20249.00     88486.99
   98.14        2970.50           1496       18205.00     79531.74
   98.17        2970.75           1499       16606.00     72529.49
   98.20        2971.00           1502       14967.00     65355.13
   98.23        2971.25           1506       12865.00     56158.62
   98.27        2971.50           1509       11055.00     48243.71
   98.30        2971.75           1513        8750.00     38169.67
   98.33        2972.00           1516        7159.00     31219.72
   98.36        2972.25           1519        5547.00     24181.01
   98.39        2972.50           1523        3483.00     15172.99
   98.42        2972.75           1526        2129.00      9266.31
   98.45        2973.00           1529         993.00      4312.24
   98.48        2973.25           1533         455.00      1966.55
   98.51        2973.50           1536         338.00      1456.47
   98.55        2973.75           1539         302.00      1299.53
   98.58        2974.00           1543         230.00       985.64
   98.61        2974.25           1546         188.00       802.55
   98.64        2974.50           1549         151.00       641.25
   98.67        2974.75           1553         103.00       432.00
   98.70        2975.00           1556          72.00       296.86
   98.73        2975.25           1559          54.00       218.40
   98.76        2975.50           1563          64.00       261.99
   98.79        2975.75           1566          42.00       166.09
   98.82        2976.00           1569          50.00       200.96
   98.85        2976.25           1573          44.00       174.80
   98.88        2976.50           1576          45.00       179.16
   98.91        2976.75           1579          51.00       205.32
   98.95        2977.00           1583          44.00       174.80
   98.98        2977.25           1586          48.00       192.24
   99.01        2977.50           1590          44.00       174.80
   99.04        2977.75           1593          49.00       196.60
   99.07        2978.00           1596          46.00       183.52
   99.10        2978.25           1600          42.00       166.09
   99.13        2978.50           1603          48.00       192.24
   99.16        2978.75           1606          44.00       174.80
   99.19        2979.00           1610          43.00       170.45
   99.22        2979.25           1613          51.00       205.32
   99.25        2979.50           1616          50.00       200.96
   99.29        2979.75           1620          52.00       209.68
   99.32        2980.00           1623          45.00       179.16
   99.35        2980.25           1626          44.00       174.80
   99.38        2980.50           1630          47.00       187.88
   99.41        2980.75           1633          47.00       187.88
   99.44        2981.00           1637          43.00       170.45
   99.47        2981.25           1640          43.00       170.45
   99.50        2981.50           1643          46.00       183.52
   99.53        2981.75           1647          53.00       214.04
   99.56        2982.00           1650          44.00       174.80
   99.59        2982.25           1653          53.00       214.04
   99.62        2982.50           1657          49.00       196.60
   99.66        2982.75           1660          39.00       153.01
   99.69        2983.00           1663          36.00       139.93
   99.72        2983.25           1667          44.00       174.80
   99.75        2983.50           1670          47.00       187.88
   99.78        2983.75           1673          50.00       200.96
   99.81        2984.00           1677          48.00       192.24
HS scan finished at 01:40:02
end
************************************************************
  HS Scan of (1) Internal mercury lamp
************************************************************
Integration time is 0.2294 seconds per sample
dh060417Manchester 53.47 2.23 2.804185pr1000
************************************************************
Dead Time -------------------------  3E-08 
Number of Cycles Used -------------  4 
Starting Wavelength (Angstroms) ---  2950 
Final Wavelength (Angstoms) -------  2984 
Wavelength Increment (Angstroms) --  .25 
Filter Wheel #1 Position ---------- (1) Ground quartz diffuser (ND=2.32)
Filter Wheel #2 Position ---------- (1) Neutral Density 0.494



************************************************************
HS scan start time = 19:42:04
Dark Count =  7.8 


Time (GMT)  Wavelength (Ang)  Step Number  Raw Counts  Counts/Second

 1182.43        2950.00           1222          47.00       170.88
 1182.50        2950.25           1226          44.00       157.80
 1182.53        2950.50           1229          47.00       170.88
 1182.56        2950.75           1232          52.00       192.68
 1182.59        2951.00           1236          50.00       183.96
 1182.62        2951.25           1239          51.00       188.32
 1182.65        2951.50           1242          52.00       192.68
 1182.68        2951.75           1246          56.00       210.11
 1182.71        2952.00           1249          46.00       166.52
 1182.74        2952.25           1252          49.00       179.60
 1182.77        2952.50           1256          52.00       192.68
 1182.80        2952.75           1259          46.00       166.52
 1182.83        2953.00           1262          47.00       170.88
 1182.86        2953.25           1266          47.00       170.88
 1182.90        2953.50           1269          43.00       153.44
 1182.93        2953.75           1272          53.00       197.04
 1182.96        2954.00           1276          56.00       210.11
 1182.99        2954.25           1279          47.00       170.88
 1183.02        2954.50           1282          48.00       175.24
 1183.05        2954.75           1286          47.00       170.88
 1183.08        2955.00           1289          46.00       166.52
 1183.11        2955.25           1292          47.00       170.88
 1183.14        2955.50           1296          47.00       170.88
 1183.17        2955.75           1299          49.00       179.60
 1183.20        2956.00           1302          42.00       149.09
 1183.24        2956.25           1306          46.00       166.52
 1183.27        2956.50           1309          44.00       157.80
 1183.30        2956.75           1312          45.00       162.16
 1183.33        2957.00           1316          46.00       166.52
 1183.36        2957.25           1319          49.00       179.60
 1183.39        2957.50           1322          50.00       183.96
 1183.42        2957.75           1326          46.00       166.52
 1183.45        2958.00           1329          45.00       162.16
 1183.48        2958.25           1332          42.00       149.09
 1183.51        2958.50           1336          45.00       162.16
 1183.54        2958.75           1339          46.00       166.52
 1183.58        2959.00           1342          45.00       162.16
 1183.61        2959.25           1346          54.00       201.40
 1183.64        2959.50           1349          57.00       214.47
 1183.67        2959.75           1352          74.00       288.58
 1183.70        2960.00           1356         118.00       480.39
 1183.73        2960.25           1359         155.00       641.69
 1183.76        2960.50           1362         190.00       794.26
 1183.79        2960.75           1366         238.00      1003.52
 1183.82        2961.00           1369         281.00      1190.98
 1183.85        2961.25           1372         340.00      1448.19
 1183.88        2961.50           1376         389.00      1661.81
 1183.91        2961.75           1379         570.00      2450.92
 1183.94        2962.00           1382        1032.00      4465.29
 1183.97        2962.25           1386        2580.00     11216.50
 1184.01        2962.50           1389        4129.00     17974.82
 1184.04        2962.75           1392        5642.00     24578.71
 1184.07        2963.00           1396        7769.00     33867.00
 1184.10        2963.25           1399        9462.00     41263.78
 1184.13        2963.50           1402       10983.00     47911.89
 1184.16        2963.75           1406       13414.00     58543.01
 1184.19        2964.00           1409       15112.00     65972.65
 1184.22        2964.25           1412       17189.00     75065.10
 1184.25        2964.50           1416       19080.00     83347.63
 1184.28        2964.75           1419       20630.00     90139.68
 1184.32        2965.00           1422       22296.00     97443.11
 1184.35        2965.25           1426       24550.00    107329.30
 1184.38        2965.50           1429       26208.00    114605.20
 1184.41        2965.75           1432       28070.00    122780.10
 1184.44        2966.00           1436       30105.00    131719.10
 1184.47        2966.25           1439       31581.00    138205.70
 1184.50        2966.50           1442       33391.00    146163.50
 1184.53        2966.75           1446       35119.00    153764.30
 1184.56        2967.00           1449       35518.00    155519.90
 1184.60        2967.25           1452       35770.00    156628.80
 1184.63        2967.50           1456       35711.00    156369.10
 1184.66        2967.75           1459       35849.00    156976.40
 1184.69        2968.00           1462       35427.00    155119.50
 1184.72        2968.25           1466       34797.00    152347.70
 1184.75        2968.50           1469       33790.00    147918.30
 1184.78        2968.75           1472       32328.00    141489.50
 1184.81        2969.00           1476       30223.00    132237.60
 1184.84        2969.25           1479       28573.00    124989.20
 1184.87        2969.50           1482       26827.00    117322.40
 1184.91        2969.75           1486       24511.00    107158.20
 1184.94        2970.00           1489       22999.00    100525.90
 1184.97        2970.25           1492       21360.00     93339.47
 1185.00        2970.50           1496       19163.00     83711.27
 1185.03        2970.75           1499       17581.00     76781.71
 1185.06        2971.00           1502       16017.00     69933.85
 1185.09        2971.25           1506       13993.00     61076.07
 1185.12        2971.50           1509       12304.00     53687.98
 1185.15        2971.75           1513       10230.00     44620.29
 1185.19        2972.00           1516        8573.00     37379.29
 1185.22        2972.25           1519        6929.00     30198.23
 1185.25        2972.50           1523        4716.00     20536.63
 1185.28        2972.75           1526        3114.00     13546.05
 1185.31        2973.00           1529        1681.00      7295.41
 1185.34        2973.25           1533         542.00      2328.85
 1185.37        2973.50           1536         337.00      1435.11
 1185.40        2973.75           1539         268.00      1134.30
 1185.43        2974.00           1543         203.00       850.94
 1185.46        2974.25           1546         150.00       619.89
 1185.50        2974.50           1549         110.00       445.52
 1185.53        2974.75           1553          74.00       288.58
 1185.56        2975.00           1556          68.00       262.43
 1185.59        2975.25           1559          55.00       205.76
 1185.62        2975.50           1563          49.00       179.60
 1185.65        2975.75           1566          40.00       140.37
 1185.68        2976.00           1569          50.00       183.96
 1185.71        2976.25           1573          51.00       188.32
 1185.74        2976.50           1576          47.00       170.88
 1185.78        2976.75           1579          49.00       179.60
 1185.81        2977.00           1583          43.00       153.44
 1185.84        2977.25           1586          48.00       175.24
 1185.87        2977.50           1590          55.00       205.76
 1185.90        2977.75           1593          51.00       188.32
 1185.93        2978.00           1596          42.00       149.09
 1185.96        2978.25           1600          38.00       131.65
 1185.99        2978.50           1603          47.00       170.88
 1186.02        2978.75           1606          44.00       157.80
 1186.05        2979.00           1610          51.00       188.32
 1186.09        2979.25           1613          46.00       166.52
 1186.12        2979.50           1616          45.00       162.16
 1186.15        2979.75           1620          37.00       127.29
 1186.18        2980.00           1623          50.00       183.96
 1186.21        2980.25           1626          43.00       153.44
 1186.24        2980.50           1630          47.00       170.88
 1186.27        2980.75           1633          43.00       153.44
 1186.30        2981.00           1637          43.00       153.44
 1186.33        2981.25           1640          48.00       175.24
 1186.36        2981.50           1643          49.00       179.60
 1186.39        2981.75           1647          50.00       183.96
 1186.42        2982.00           1650          53.00       197.04
 1186.45        2982.25           1653          40.00       140.37
 1186.48        2982.50           1657          43.00       153.44
 1186.52        2982.75           1660          47.00       170.88
 1186.55        2983.00           1663          51.00       188.32
 1186.58        2983.25           1667          41.00       144.73
 1186.61        2983.50           1670          39.00       136.01
 1186.64        2983.75           1673          41.00       144.73
 1186.67        2984.00           1677          49.00       179.60
HS scan finished at 19:46:53
end
