************************************************************
  HS Scan of (1) Internal mercury lamp
************************************************************
Integration time is 0.2294 seconds per sample
dh070417Manchester 53.47 2.23 2.804185pr1000
************************************************************
Dead Time -------------------------  3E-08 
Number of Cycles Used -------------  4 
Starting Wavelength (Angstroms) ---  2950 
Final Wavelength (Angstoms) -------  2984 
Wavelength Increment (Angstroms) --  .25 
Filter Wheel #1 Position ---------- (1) Ground quartz diffuser (ND=2.32)
Filter Wheel #2 Position ---------- (1) Neutral Density 0.494



************************************************************
HS scan start time = 01:25:13
Dark Count =  4.4 


Time (GMT)  Wavelength (Ang)  Step Number  Raw Counts  Counts/Second

   85.58        2950.00           1222          51.00       203.14
   85.65        2950.25           1226          45.00       176.98
   85.68        2950.50           1229          48.00       190.06
   85.71        2950.75           1232          43.00       168.27
   85.74        2951.00           1236          46.00       181.34
   85.77        2951.25           1239          50.00       198.78
   85.80        2951.50           1242          42.00       163.91
   85.83        2951.75           1246          38.00       146.47
   85.86        2952.00           1249          45.00       176.98
   85.90        2952.25           1252          45.00       176.98
   85.93        2952.50           1256          44.00       172.63
   85.96        2952.75           1259          49.00       194.42
   85.99        2953.00           1262          53.00       211.86
   86.02        2953.25           1266          49.00       194.42
   86.05        2953.50           1269          50.00       198.78
   86.08        2953.75           1272          42.00       163.91
   86.11        2954.00           1276          47.00       185.70
   86.14        2954.25           1279          47.00       185.70
   86.17        2954.50           1282          45.00       176.98
   86.21        2954.75           1286          51.00       203.14
   86.24        2955.00           1289          54.00       216.22
   86.27        2955.25           1292          42.00       163.91
   86.30        2955.50           1296          47.00       185.70
   86.33        2955.75           1299          45.00       176.98
   86.36        2956.00           1302          52.00       207.50
   86.39        2956.25           1306          43.00       168.27
   86.42        2956.50           1309          43.00       168.27
   86.45        2956.75           1312          54.00       216.22
   86.48        2957.00           1316          48.00       190.06
   86.51        2957.25           1319          44.00       172.63
   86.54        2957.50           1322          42.00       163.91
   86.58        2957.75           1326          52.00       207.50
   86.61        2958.00           1329          46.00       181.34
   86.64        2958.25           1332          56.00       224.94
   86.67        2958.50           1336          45.00       176.98
   86.70        2958.75           1339          43.00       168.27
   86.73        2959.00           1342          46.00       181.34
   86.76        2959.25           1346          47.00       185.70
   86.79        2959.50           1349          58.00       233.65
   86.82        2959.75           1352          61.00       246.73
   86.85        2960.00           1356          96.00       399.31
   86.88        2960.25           1359         134.00       564.96
   86.91        2960.50           1362         167.00       708.82
   86.94        2960.75           1366         225.00       961.67
   86.98        2961.00           1369         277.00      1188.36
   87.01        2961.25           1372         330.00      1419.42
   87.04        2961.50           1376         433.00      1868.46
   87.07        2961.75           1379         733.00      3176.41
   87.10        2962.00           1382        1498.00      6512.17
   87.13        2962.25           1386        3384.00     14738.86
   87.16        2962.50           1389        5024.00     21895.81
   87.19        2962.75           1392        6613.00     28833.13
   87.22        2963.00           1396        8815.00     38451.48
   87.26        2963.25           1399       10428.00     45500.60
   87.29        2963.50           1402       12162.00     53081.85
   87.32        2963.75           1406       14442.00     63055.52
   87.35        2964.00           1409       16176.00     70644.77
   87.38        2964.25           1412       17988.00     78579.09
   87.41        2964.50           1416       20161.00     88099.14
   87.44        2964.75           1419       21756.00     95090.41
   87.47        2965.00           1422       23347.00    102067.10
   87.50        2965.25           1426       25632.00    112092.10
   87.53        2965.50           1429       27271.00    119286.60
   87.56        2965.75           1432       28800.00    126001.10
   87.60        2966.00           1436       31394.00    137398.70
   87.63        2966.25           1439       32754.00    143377.40
   87.66        2966.50           1442       34220.00    149824.50
   87.69        2966.75           1446       35766.00    156626.10
   87.72        2967.00           1449       35922.00    157312.60
   87.75        2967.25           1452       36009.00    157695.50
   87.78        2967.50           1456       36299.00    158971.70
   87.81        2967.75           1459       36172.00    158412.80
   87.84        2968.00           1462       35773.00    156656.90
   87.88        2968.25           1466       34573.00    151377.30
   87.91        2968.50           1469       33220.00    145426.50
   87.94        2968.75           1472       31562.00    138137.10
   87.97        2969.00           1476       29270.00    128065.60
   88.00        2969.25           1479       27527.00    120410.60
   88.03        2969.50           1482       25850.00    113048.80
   88.06        2969.75           1486       23531.00    102874.10
   88.09        2970.00           1489       21879.00     95629.68
   88.12        2970.25           1492       20526.00     89698.78
   88.15        2970.50           1496       18285.00     79879.96
   88.19        2970.75           1499       16741.00     73118.36
   88.22        2971.00           1502       15064.00     65777.45
   88.25        2971.25           1506       12894.00     56283.27
   88.28        2971.50           1509       11027.00     48119.11
   88.31        2971.75           1513        8895.00     38801.02
   88.34        2972.00           1516        7232.00     31536.36
   88.37        2972.25           1519        5610.00     24453.85
   88.40        2972.50           1523        3464.00     15087.91
   88.43        2972.75           1526        1912.00      8317.68
   88.46        2973.00           1529         845.00      3664.74
   88.49        2973.25           1533         420.00      1811.78
   88.53        2973.50           1536         333.00      1432.49
   88.56        2973.75           1539         258.00      1105.53
   88.59        2974.00           1543         244.00      1044.50
   88.62        2974.25           1546         167.00       708.82
   88.65        2974.50           1549         125.00       525.73
   88.68        2974.75           1553          84.00       347.00
   88.71        2975.00           1556          63.00       255.45
   88.74        2975.25           1559          61.00       246.73
   88.77        2975.50           1563          44.00       172.63
   88.81        2975.75           1566          45.00       176.98
   88.84        2976.00           1569          53.00       211.86
   88.87        2976.25           1573          49.00       194.42
   88.90        2976.50           1576          49.00       194.42
   88.93        2976.75           1579          43.00       168.27
   88.96        2977.00           1583          56.00       224.94
   88.99        2977.25           1586          50.00       198.78
   89.02        2977.50           1590          46.00       181.34
   89.05        2977.75           1593          46.00       181.34
   89.08        2978.00           1596          47.00       185.70
   89.11        2978.25           1600          39.00       150.83
   89.14        2978.50           1603          43.00       168.27
   89.18        2978.75           1606          44.00       172.63
   89.21        2979.00           1610          43.00       168.27
   89.24        2979.25           1613          46.00       181.34
   89.27        2979.50           1616          44.00       172.63
   89.30        2979.75           1620          46.00       181.34
   89.33        2980.00           1623          50.00       198.78
   89.36        2980.25           1626          43.00       168.27
   89.39        2980.50           1630          45.00       176.98
   89.42        2980.75           1633          53.00       211.86
   89.45        2981.00           1637          44.00       172.63
   89.48        2981.25           1640          45.00       176.98
   89.51        2981.50           1643          42.00       163.91
   89.54        2981.75           1647          49.00       194.42
   89.58        2982.00           1650          42.00       163.91
   89.61        2982.25           1653          46.00       181.34
   89.64        2982.50           1657          44.00       172.63
   89.67        2982.75           1660          40.00       155.19
   89.70        2983.00           1663          45.00       176.98
   89.73        2983.25           1667          45.00       176.98
   89.76        2983.50           1670          40.00       155.19
   89.79        2983.75           1673          43.00       168.27
   89.82        2984.00           1677          47.00       185.70
HS scan finished at 01:30:02
end
************************************************************
  HS Scan of (1) Internal mercury lamp
************************************************************
Integration time is 0.2294 seconds per sample
dh070417Manchester 53.47 2.23 2.804185pr1000
************************************************************
Dead Time -------------------------  3E-08 
Number of Cycles Used -------------  4 
Starting Wavelength (Angstroms) ---  2950 
Final Wavelength (Angstoms) -------  2984 
Wavelength Increment (Angstroms) --  .25 
Filter Wheel #1 Position ---------- (1) Ground quartz diffuser (ND=2.32)
Filter Wheel #2 Position ---------- (1) Neutral Density 0.494



************************************************************
HS scan start time = 19:42:01
Dark Count =  6.9 


Time (GMT)  Wavelength (Ang)  Step Number  Raw Counts  Counts/Second

 1182.39        2950.00           1222          45.00       166.09
 1182.45        2950.25           1226          43.00       157.37
 1182.48        2950.50           1229          50.00       187.88
 1182.52        2950.75           1232          49.00       183.52
 1182.55        2951.00           1236          46.00       170.45
 1182.58        2951.25           1239          40.00       144.29
 1182.61        2951.50           1242          47.00       174.80
 1182.64        2951.75           1246          52.00       196.60
 1182.67        2952.00           1249          45.00       166.09
 1182.70        2952.25           1252          38.00       135.57
 1182.73        2952.50           1256          43.00       157.37
 1182.76        2952.75           1259          50.00       187.88
 1182.79        2953.00           1262          45.00       166.09
 1182.82        2953.25           1266          45.00       166.09
 1182.85        2953.50           1269          49.00       183.52
 1182.89        2953.75           1272          54.00       205.32
 1182.92        2954.00           1276          46.00       170.45
 1182.95        2954.25           1279          46.00       170.45
 1182.98        2954.50           1282          43.00       157.37
 1183.01        2954.75           1286          50.00       187.88
 1183.04        2955.00           1289          47.00       174.80
 1183.07        2955.25           1292          44.00       161.73
 1183.10        2955.50           1296          41.00       148.65
 1183.13        2955.75           1299          46.00       170.45
 1183.16        2956.00           1302          48.00       179.16
 1183.19        2956.25           1306          46.00       170.45
 1183.22        2956.50           1309          46.00       170.45
 1183.25        2956.75           1312          42.00       153.01
 1183.29        2957.00           1316          51.00       192.24
 1183.32        2957.25           1319          48.00       179.16
 1183.35        2957.50           1322          51.00       192.24
 1183.38        2957.75           1326          46.00       170.45
 1183.41        2958.00           1329          47.00       174.80
 1183.44        2958.25           1332          48.00       179.16
 1183.47        2958.50           1336          50.00       187.88
 1183.50        2958.75           1339          43.00       157.37
 1183.53        2959.00           1342          48.00       179.16
 1183.56        2959.25           1346          52.00       196.60
 1183.59        2959.50           1349          50.00       187.88
 1183.62        2959.75           1352          63.00       244.55
 1183.66        2960.00           1356         100.00       405.85
 1183.69        2960.25           1359         132.00       545.34
 1183.72        2960.50           1362         172.00       719.72
 1183.75        2960.75           1366         215.00       907.17
 1183.78        2961.00           1369         262.00      1112.07
 1183.81        2961.25           1372         301.00      1282.09
 1183.84        2961.50           1376         370.00      1582.90
 1183.87        2961.75           1379         498.00      2140.94
 1183.90        2962.00           1382         887.00      3836.97
 1183.93        2962.25           1386        2194.00      9536.73
 1183.96        2962.50           1389        3643.00     15858.02
 1183.99        2962.75           1392        5252.00     22880.13
 1184.03        2963.00           1396        7441.00     32438.27
 1184.06        2963.25           1399        9260.00     40384.99
 1184.09        2963.50           1402       10909.00     47592.32
 1184.12        2963.75           1406       13015.00     56801.60
 1184.15        2964.00           1409       14934.00     65197.59
 1184.18        2964.25           1412       16421.00     71706.40
 1184.21        2964.50           1416       18806.00     82151.22
 1184.24        2964.75           1419       20398.00     89126.84
 1184.27        2965.00           1422       21948.00     95921.22
 1184.31        2965.25           1426       24293.00    106205.80
 1184.34        2965.50           1429       25770.00    112686.80
 1184.37        2965.75           1432       27504.00    120298.70
 1184.40        2966.00           1436       30169.00    132004.30
 1184.43        2966.25           1439       31435.00    137567.90
 1184.46        2966.50           1442       33062.00    144720.70
 1184.49        2966.75           1446       34690.00    151881.00
 1184.52        2967.00           1449       35767.00    156619.50
 1184.55        2967.25           1452       35776.00    156659.10
 1184.59        2967.50           1456       35823.00    156866.00
 1184.62        2967.75           1459       35739.00    156496.30
 1184.65        2968.00           1462       35748.00    156535.90
 1184.68        2968.25           1466       35262.00    154397.50
 1184.71        2968.50           1469       34101.00    149290.10
 1184.74        2968.75           1472       32344.00    141563.80
 1184.77        2969.00           1476       30334.00    132729.30
 1184.80        2969.25           1479       28778.00    125893.50
 1184.84        2969.50           1482       27005.00    118107.80
 1184.87        2969.75           1486       24695.00    107969.50
 1184.90        2970.00           1489       23224.00    101516.60
 1184.93        2970.25           1492       21529.00     94084.28
 1184.96        2970.50           1496       19268.00     84175.24
 1184.99        2970.75           1499       17690.00     77263.01
 1185.02        2971.00           1502       16068.00     70161.03
 1185.05        2971.25           1506       14183.00     61911.31
 1185.08        2971.50           1509       12482.00     54470.37
 1185.11        2971.75           1513       10183.00     44418.79
 1185.15        2972.00           1516        8596.00     37483.71
 1185.18        2972.25           1519        6836.00     29796.02
 1185.21        2972.50           1523        4699.00     20466.36
 1185.24        2972.75           1526        3107.00     13519.43
 1185.27        2973.00           1529        1672.00      7260.08
 1185.30        2973.25           1533         589.00      2537.68
 1185.33        2973.50           1536         357.00      1526.23
 1185.36        2973.75           1539         300.00      1277.73
 1185.39        2974.00           1543         254.00      1077.19
 1185.42        2974.25           1546         171.00       715.36
 1185.45        2974.50           1549         136.00       562.78
 1185.49        2974.75           1553          84.00       336.10
 1185.52        2975.00           1556          69.00       270.71
 1185.55        2975.25           1559          61.00       235.83
 1185.58        2975.50           1563          52.00       196.60
 1185.61        2975.75           1566          53.00       200.96
 1185.64        2976.00           1569          45.00       166.09
 1185.67        2976.25           1573          44.00       161.73
 1185.70        2976.50           1576          58.00       222.76
 1185.73        2976.75           1579          58.00       222.76
 1185.76        2977.00           1583          50.00       187.88
 1185.80        2977.25           1586          44.00       161.73
 1185.83        2977.50           1590          46.00       170.45
 1185.86        2977.75           1593          42.00       153.01
 1185.89        2978.00           1596          49.00       183.52
 1185.92        2978.25           1600          45.00       166.09
 1185.95        2978.50           1603          45.00       166.09
 1185.98        2978.75           1606          48.00       179.16
 1186.01        2979.00           1610          44.00       161.73
 1186.04        2979.25           1613          47.00       174.80
 1186.07        2979.50           1616          48.00       179.16
 1186.10        2979.75           1620          45.00       166.09
 1186.13        2980.00           1623          47.00       174.80
 1186.16        2980.25           1626          43.00       157.37
 1186.20        2980.50           1630          41.00       148.65
 1186.23        2980.75           1633          47.00       174.80
 1186.26        2981.00           1637          51.00       192.24
 1186.29        2981.25           1640          48.00       179.16
 1186.32        2981.50           1643          45.00       166.09
 1186.35        2981.75           1647          42.00       153.01
 1186.38        2982.00           1650          43.00       157.37
 1186.41        2982.25           1653          41.00       148.65
 1186.44        2982.50           1657          44.00       161.73
 1186.47        2982.75           1660          47.00       174.80
 1186.50        2983.00           1663          44.00       161.73
 1186.53        2983.25           1667          46.00       170.45
 1186.57        2983.50           1670          43.00       157.37
 1186.60        2983.75           1673          46.00       170.45
 1186.63        2984.00           1677          44.00       161.73
HS scan finished at 19:46:51
end
