************************************************************
  HS Scan of (1) Internal mercury lamp
************************************************************
Integration time is 0.2294 seconds per sample
dh190418Manchester 53.47 2.23 2.911481pr1000
************************************************************
Dead Time -------------------------  3E-08 
Number of Cycles Used -------------  4 
Starting Wavelength (Angstroms) ---  2950 
Final Wavelength (Angstoms) -------  2984 
Wavelength Increment (Angstroms) --  .25 
Filter Wheel #1 Position ---------- (1) Ground quartz diffuser (ND=2.32)
Filter Wheel #2 Position ---------- (1) Neutral Density 0.494



************************************************************
HS scan start time = 02:13:47
Dark Count =  6.1 


Time (GMT)  Wavelength (Ang)  Step Number  Raw Counts  Counts/Second

  134.16        2950.00           1222          61.00       239.32
  134.23        2950.25           1226          62.00       243.68
  134.26        2950.50           1229          65.00       256.76
  134.29        2950.75           1232          49.00       187.01
  134.32        2951.00           1236          52.00       200.09
  134.35        2951.25           1239          52.00       200.09
  134.38        2951.50           1242          67.00       265.48
  134.41        2951.75           1246          65.00       256.76
  134.44        2952.00           1249          69.00       274.20
  134.47        2952.25           1252          58.00       226.24
  134.50        2952.50           1256          53.00       204.45
  134.53        2952.75           1259          62.00       243.68
  134.56        2953.00           1262          52.00       200.09
  134.60        2953.25           1266          61.00       239.32
  134.63        2953.50           1269          49.00       187.01
  134.66        2953.75           1272          57.00       221.88
  134.69        2954.00           1276          54.00       208.81
  134.72        2954.25           1279          61.00       239.32
  134.75        2954.50           1282          61.00       239.32
  134.78        2954.75           1286          58.00       226.24
  134.81        2955.00           1289          69.00       274.20
  134.84        2955.25           1292          59.00       230.60
  134.87        2955.50           1296          56.00       217.53
  134.90        2955.75           1299          58.00       226.24
  134.93        2956.00           1302          51.00       195.73
  134.97        2956.25           1306          60.00       234.96
  135.00        2956.50           1309          62.00       243.68
  135.03        2956.75           1312          54.00       208.81
  135.06        2957.00           1316          62.00       243.68
  135.09        2957.25           1319          48.00       182.65
  135.12        2957.50           1322          56.00       217.53
  135.15        2957.75           1326          58.00       226.24
  135.18        2958.00           1329          60.00       234.96
  135.21        2958.25           1332          55.00       213.17
  135.24        2958.50           1336          64.00       252.40
  135.27        2958.75           1339          55.00       213.17
  135.30        2959.00           1342          55.00       213.17
  135.34        2959.25           1346          60.00       234.96
  135.37        2959.50           1349          64.00       252.40
  135.40        2959.75           1352          83.00       335.23
  135.43        2960.00           1356         110.00       452.93
  135.46        2960.25           1359         123.00       509.60
  135.49        2960.50           1362         169.00       710.13
  135.52        2960.75           1366         230.00       976.05
  135.55        2961.00           1369         256.00      1089.40
  135.58        2961.25           1372         310.00      1324.81
  135.61        2961.50           1376         389.00      1669.22
  135.64        2961.75           1379         592.00      2554.25
  135.67        2962.00           1382        1343.00      5828.83
  135.70        2962.25           1386        3021.00     13147.73
  135.73        2962.50           1389        4495.00     19579.50
  135.76        2962.75           1392        6021.00     26240.79
  135.79        2963.00           1396        7918.00     34525.28
  135.83        2963.25           1399        9389.00     40952.20
  135.86        2963.50           1402       10857.00     47368.49
  135.89        2963.75           1406       13066.00     57028.18
  135.92        2964.00           1409       14886.00     64991.02
  135.95        2964.25           1412       16441.00     71797.47
  135.98        2964.50           1416       18320.00     80025.81
  136.01        2964.75           1419       19921.00     87039.98
  136.04        2965.00           1422       21404.00     93539.81
  136.08        2965.25           1426       23656.00    103414.90
  136.11        2965.50           1429       25145.00    109947.50
  136.14        2965.75           1432       26725.00    116882.10
  136.17        2966.00           1436       28803.00    126006.80
  136.20        2966.25           1439       30221.00    132236.30
  136.23        2966.50           1442       31470.00    137725.20
  136.26        2966.75           1446       32606.00    142719.20
  136.29        2967.00           1449       33001.00    144456.00
  136.32        2967.25           1452       33034.00    144601.10
  136.35        2967.50           1456       33029.00    144579.10
  136.38        2967.75           1459       32860.00    143836.00
  136.41        2968.00           1462       32748.00    143343.50
  136.45        2968.25           1466       31539.00    138028.50
  136.48        2968.50           1469       29988.00    131212.50
  136.51        2968.75           1472       28658.00    125370.00
  136.54        2969.00           1476       26727.00    116890.90
  136.57        2969.25           1479       25181.00    110105.50
  136.60        2969.50           1482       23685.00    103542.20
  136.63        2969.75           1486       21541.00     94140.40
  136.66        2970.00           1489       20040.00     87561.46
  136.69        2970.25           1492       18630.00     81383.74
  136.72        2970.50           1496       16689.00     72883.25
  136.76        2970.75           1499       15123.00     66028.23
  136.79        2971.00           1502       13686.00     59740.37
  136.82        2971.25           1506       11723.00     51154.73
  136.85        2971.50           1509       10206.00     44522.82
  136.88        2971.75           1513        8190.00     35713.49
  136.91        2972.00           1516        6745.00     29402.12
  136.94        2972.25           1519        5298.00     23084.42
  136.97        2972.50           1523        3267.00     14220.98
  137.00        2972.75           1526        1847.00      8026.78
  137.03        2973.00           1529         803.00      3474.21
  137.07        2973.25           1533         412.00      1769.49
  137.10        2973.50           1536         327.00      1398.93
  137.13        2973.75           1539         283.00      1207.11
  137.16        2974.00           1543         232.00       984.77
  137.19        2974.25           1546         177.00       745.00
  137.22        2974.50           1549         126.00       522.68
  137.25        2974.75           1553          94.00       383.18
  137.28        2975.00           1556          73.00       291.63
  137.31        2975.25           1559          65.00       256.76
  137.35        2975.50           1563          57.00       221.88
  137.38        2975.75           1566          53.00       204.45
  137.41        2976.00           1569          61.00       239.32
  137.44        2976.25           1573          60.00       234.96
  137.47        2976.50           1576          56.00       217.53
  137.50        2976.75           1579          61.00       239.32
  137.53        2977.00           1583          56.00       217.53
  137.56        2977.25           1586          61.00       239.32
  137.59        2977.50           1590          64.00       252.40
  137.62        2977.75           1593          53.00       204.45
  137.65        2978.00           1596          47.00       178.29
  137.68        2978.25           1600          56.00       217.53
  137.71        2978.50           1603          57.00       221.88
  137.75        2978.75           1606          56.00       217.53
  137.78        2979.00           1610          54.00       208.81
  137.81        2979.25           1613          51.00       195.73
  137.84        2979.50           1616          56.00       217.53
  137.87        2979.75           1620          50.00       191.37
  137.90        2980.00           1623          54.00       208.81
  137.93        2980.25           1626          57.00       221.88
  137.96        2980.50           1630          55.00       213.17
  137.99        2980.75           1633          58.00       226.24
  138.02        2981.00           1637          48.00       182.65
  138.05        2981.25           1640          60.00       234.96
  138.08        2981.50           1643          52.00       200.09
  138.11        2981.75           1647          54.00       208.81
  138.15        2982.00           1650          59.00       230.60
  138.18        2982.25           1653          59.00       230.60
  138.21        2982.50           1657          63.00       248.04
  138.24        2982.75           1660          61.00       239.32
  138.27        2983.00           1663          49.00       187.01
  138.30        2983.25           1667          57.00       221.88
  138.33        2983.50           1670          52.00       200.09
  138.36        2983.75           1673          51.00       195.73
  138.39        2984.00           1677          60.00       234.96
HS scan finished at 02:18:36
end
************************************************************
  HS Scan of (1) Internal mercury lamp
************************************************************
Integration time is 0.2294 seconds per sample
dh190418Manchester 53.47 2.23 2.857833pr1000
************************************************************
Dead Time -------------------------  3E-08 
Number of Cycles Used -------------  4 
Starting Wavelength (Angstroms) ---  2950 
Final Wavelength (Angstoms) -------  2984 
Wavelength Increment (Angstroms) --  .25 
Filter Wheel #1 Position ---------- (1) Ground quartz diffuser (ND=2.32)
Filter Wheel #2 Position ---------- (1) Neutral Density 0.494



************************************************************
HS scan start time = 20:12:05
Dark Count =  5.2 


Time (GMT)  Wavelength (Ang)  Step Number  Raw Counts  Counts/Second

 1212.45        2950.00           1222          65.00       260.68
 1212.52        2950.25           1226          56.00       221.45
 1212.55        2950.50           1229          57.00       225.81
 1212.58        2950.75           1232          64.00       256.32
 1212.61        2951.00           1236          56.00       221.45
 1212.64        2951.25           1239          58.00       230.17
 1212.67        2951.50           1242          64.00       256.32
 1212.70        2951.75           1246          60.00       238.89
 1212.73        2952.00           1249          55.00       217.09
 1212.76        2952.25           1252          63.00       251.96
 1212.79        2952.50           1256          57.00       225.81
 1212.82        2952.75           1259          53.00       208.37
 1212.86        2953.00           1262          63.00       251.96
 1212.89        2953.25           1266          63.00       251.96
 1212.92        2953.50           1269          55.00       217.09
 1212.95        2953.75           1272          58.00       230.17
 1212.98        2954.00           1276          60.00       238.89
 1213.01        2954.25           1279          66.00       265.04
 1213.04        2954.50           1282          62.00       247.60
 1213.07        2954.75           1286          62.00       247.60
 1213.10        2955.00           1289          58.00       230.17
 1213.13        2955.25           1292          56.00       221.45
 1213.16        2955.50           1296          63.00       251.96
 1213.19        2955.75           1299          57.00       225.81
 1213.22        2956.00           1302          53.00       208.37
 1213.26        2956.25           1306          64.00       256.32
 1213.29        2956.50           1309          58.00       230.17
 1213.32        2956.75           1312          55.00       217.09
 1213.35        2957.00           1316          62.00       247.60
 1213.38        2957.25           1319          64.00       256.32
 1213.41        2957.50           1322          61.00       243.25
 1213.44        2957.75           1326          60.00       238.89
 1213.47        2958.00           1329          62.00       247.60
 1213.50        2958.25           1332          61.00       243.25
 1213.53        2958.50           1336          62.00       247.60
 1213.56        2958.75           1339          60.00       238.89
 1213.60        2959.00           1342          52.00       204.01
 1213.63        2959.25           1346          56.00       221.45
 1213.66        2959.50           1349          66.00       265.04
 1213.69        2959.75           1352          76.00       308.63
 1213.72        2960.00           1356         109.00       452.49
 1213.75        2960.25           1359         131.00       548.40
 1213.78        2960.50           1362         177.00       748.93
 1213.81        2960.75           1366         222.00       945.10
 1213.84        2961.00           1369         258.00      1102.04
 1213.87        2961.25           1372         313.00      1341.82
 1213.90        2961.50           1376         367.00      1577.23
 1213.93        2961.75           1379         504.00      2174.51
 1213.97        2962.00           1382        1094.00      4746.97
 1214.00        2962.25           1386        2611.00     11363.07
 1214.03        2962.50           1389        4057.00     17671.97
 1214.06        2962.75           1392        5417.00     23607.82
 1214.09        2963.00           1396        7417.00     32340.87
 1214.12        2963.25           1399        8832.00     38522.26
 1214.15        2963.50           1402       10144.00     44255.76
 1214.18        2963.75           1406       12268.00     53541.91
 1214.21        2964.00           1409       13846.00     60444.30
 1214.24        2964.25           1412       15267.00     66662.40
 1214.27        2964.50           1416       17793.00     77721.56
 1214.31        2964.75           1419       19164.00     83727.05
 1214.34        2965.00           1422       20570.00     89888.11
 1214.37        2965.25           1426       22672.00     99103.28
 1214.40        2965.50           1429       23992.00    104892.80
 1214.43        2965.75           1432       25670.00    112255.40
 1214.46        2966.00           1436       27615.00    120793.50
 1214.49        2966.25           1439       29144.00    127508.60
 1214.52        2966.50           1442       30271.00    132460.00
 1214.55        2966.75           1446       31746.00    138942.40
 1214.58        2967.00           1449       32190.00    140894.20
 1214.62        2967.25           1452       32265.00    141223.90
 1214.65        2967.50           1456       32253.00    141171.20
 1214.68        2967.75           1459       32150.00    140718.40
 1214.71        2968.00           1462       32105.00    140520.50
 1214.74        2968.25           1466       31301.00    136986.40
 1214.77        2968.50           1469       29904.00    130847.40
 1214.80        2968.75           1472       28739.00    125729.70
 1214.83        2969.00           1476       26782.00    117136.30
 1214.86        2969.25           1479       25510.00    111553.20
 1214.89        2969.50           1482       23995.00    104905.90
 1214.93        2969.75           1486       21950.00     95937.46
 1214.96        2970.00           1489       20590.00     89975.78
 1214.99        2970.25           1492       19057.00     83258.28
 1215.02        2970.50           1496       17124.00     74791.87
 1215.05        2970.75           1499       15564.00     67962.32
 1215.08        2971.00           1502       13975.00     61008.68
 1215.11        2971.25           1506       12043.00     52557.96
 1215.14        2971.50           1509       10465.00     45658.84
 1215.17        2971.75           1513        8515.00     37137.26
 1215.21        2972.00           1516        7086.00     30895.23
 1215.24        2972.25           1519        5637.00     24568.23
 1215.27        2972.50           1523        3778.00     16454.50
 1215.30        2972.75           1526        2343.00     10194.05
 1215.33        2973.00           1529        1056.00      4581.28
 1215.36        2973.25           1533         425.00      1830.09
 1215.39        2973.50           1536         326.00      1398.49
 1215.42        2973.75           1539         272.00      1163.07
 1215.45        2974.00           1543         228.00       971.26
 1215.48        2974.25           1546         171.00       722.77
 1215.51        2974.50           1549         136.00       570.19
 1215.55        2974.75           1553         111.00       461.21
 1215.58        2975.00           1556          85.00       347.87
 1215.61        2975.25           1559          66.00       265.04
 1215.64        2975.50           1563          64.00       256.32
 1215.67        2975.75           1566          58.00       230.17
 1215.70        2976.00           1569          63.00       251.96
 1215.73        2976.25           1573          66.00       265.04
 1215.76        2976.50           1576          49.00       190.93
 1215.79        2976.75           1579          57.00       225.81
 1215.82        2977.00           1583          62.00       247.60
 1215.85        2977.25           1586          58.00       230.17
 1215.89        2977.50           1590          53.00       208.37
 1215.92        2977.75           1593          58.00       230.17
 1215.95        2978.00           1596          53.00       208.37
 1215.98        2978.25           1600          49.00       190.93
 1216.01        2978.50           1603          61.00       243.25
 1216.04        2978.75           1606          54.00       212.73
 1216.07        2979.00           1610          60.00       238.89
 1216.10        2979.25           1613          56.00       221.45
 1216.13        2979.50           1616          58.00       230.17
 1216.16        2979.75           1620          60.00       238.89
 1216.19        2980.00           1623          56.00       221.45
 1216.23        2980.25           1626          60.00       238.89
 1216.26        2980.50           1630          54.00       212.73
 1216.29        2980.75           1633          52.00       204.01
 1216.32        2981.00           1637          58.00       230.17
 1216.35        2981.25           1640          51.00       199.65
 1216.38        2981.50           1643          51.00       199.65
 1216.41        2981.75           1647          53.00       208.37
 1216.44        2982.00           1650          58.00       230.17
 1216.49        2982.25           1653          63.00       251.96
 1216.52        2982.50           1657          53.00       208.37
 1216.55        2982.75           1660          47.00       182.22
 1216.58        2983.00           1663          53.00       208.37
 1216.61        2983.25           1667          59.00       234.53
 1216.64        2983.50           1670          53.00       208.37
 1216.67        2983.75           1673          47.00       182.22
 1216.70        2984.00           1677          53.00       208.37
HS scan finished at 20:16:55
end
