************************************************************
  HS Scan of (1) Internal mercury lamp
************************************************************
Integration time is 0.2294 seconds per sample
dh190419Manchester 53.47 2.23 2.804185pr1000
************************************************************
Dead Time -------------------------  3E-08 
Number of Cycles Used -------------  4 
Starting Wavelength (Angstroms) ---  2950 
Final Wavelength (Angstoms) -------  2984 
Wavelength Increment (Angstroms) --  .25 
Filter Wheel #1 Position ---------- (1) Ground quartz diffuser (ND=2.32)
Filter Wheel #2 Position ---------- (1) Neutral Density 0.494



************************************************************
HS scan start time = 02:13:06
Dark Count =  7.4 


Time (GMT)  Wavelength (Ang)  Step Number  Raw Counts  Counts/Second

  133.48        2950.00           1222          61.00       233.65
  133.54        2950.25           1226          50.00       185.70
  133.57        2950.50           1229          55.00       207.50
  133.61        2950.75           1232          57.00       216.22
  133.64        2951.00           1236          57.00       216.22
  133.67        2951.25           1239          58.00       220.58
  133.70        2951.50           1242          63.00       242.37
  133.73        2951.75           1246          54.00       203.14
  133.76        2952.00           1249          51.00       190.06
  133.79        2952.25           1252          57.00       216.22
  133.82        2952.50           1256          52.00       194.42
  133.85        2952.75           1259          51.00       190.06
  133.89        2953.00           1262          58.00       220.58
  133.92        2953.25           1266          60.00       229.30
  133.95        2953.50           1269          54.00       203.14
  133.98        2953.75           1272          58.00       220.58
  134.01        2954.00           1276          54.00       203.14
  134.04        2954.25           1279          56.00       211.86
  134.07        2954.50           1282          58.00       220.58
  134.10        2954.75           1286          60.00       229.30
  134.13        2955.00           1289          52.00       194.42
  134.17        2955.25           1292          63.00       242.37
  134.20        2955.50           1296          56.00       211.86
  134.23        2955.75           1299          54.00       203.14
  134.26        2956.00           1302          56.00       211.86
  134.29        2956.25           1306          54.00       203.14
  134.32        2956.50           1309          55.00       207.50
  134.35        2956.75           1312          54.00       203.14
  134.38        2957.00           1316          56.00       211.86
  134.41        2957.25           1319          51.00       190.06
  134.45        2957.50           1322          56.00       211.86
  134.48        2957.75           1326          52.00       194.42
  134.51        2958.00           1329          53.00       198.78
  134.54        2958.25           1332          60.00       229.30
  134.57        2958.50           1336          56.00       211.86
  134.60        2958.75           1339          52.00       194.42
  134.63        2959.00           1342          52.00       194.42
  134.66        2959.25           1346          57.00       216.22
  134.69        2959.50           1349          73.00       285.97
  134.72        2959.75           1352          78.00       307.76
  134.76        2960.00           1356         107.00       434.18
  134.79        2960.25           1359         124.00       508.29
  134.82        2960.50           1362         153.00       634.71
  134.85        2960.75           1366         207.00       870.12
  134.88        2961.00           1369         235.00       992.18
  134.91        2961.25           1372         281.00      1192.72
  134.94        2961.50           1376         338.00      1441.21
  134.97        2961.75           1379         485.00      2082.08
  135.00        2962.00           1382        1087.00      4706.85
  135.03        2962.25           1386        2550.00     11087.39
  135.07        2962.50           1389        3840.00     16715.44
  135.10        2962.75           1392        5107.00     22245.01
  135.13        2963.00           1396        6689.00     29151.90
  135.16        2963.25           1399        8006.00     34904.01
  135.19        2963.50           1402        9291.00     40518.27
  135.22        2963.75           1406       10882.00     47472.09
  135.25        2964.00           1409       12232.00     53374.85
  135.28        2964.25           1412       13435.00     58636.62
  135.31        2964.50           1416       14938.00     65212.90
  135.35        2964.75           1419       16265.00     71021.25
  135.38        2965.00           1422       17405.00     76012.72
  135.41        2965.25           1426       19272.00     84190.58
  135.44        2965.50           1429       20497.00     89558.52
  135.47        2965.75           1432       21703.00     94844.89
  135.50        2966.00           1436       23114.00    101032.00
  135.53        2966.25           1439       24287.00    106177.30
  135.56        2966.50           1442       25503.00    111512.80
  135.59        2966.75           1446       26740.00    116942.20
  135.63        2967.00           1449       26930.00    117776.40
  135.66        2967.25           1452       27130.00    118654.40
  135.69        2967.50           1456       26941.00    117824.60
  135.72        2967.75           1459       27030.00    118215.40
  135.75        2968.00           1462       26626.00    116441.80
  135.78        2968.25           1466       25963.00    113531.60
  135.81        2968.50           1469       24630.00    107682.10
  135.84        2968.75           1472       23561.00    102992.50
  135.87        2969.00           1476       22076.00     96480.24
  135.91        2969.25           1479       20669.00     90312.37
  135.94        2969.50           1482       19529.00     85316.60
  135.97        2969.75           1486       17845.00     77939.66
  136.00        2970.00           1489       16592.00     72452.87
  136.03        2970.25           1492       15483.00     67598.15
  136.06        2970.50           1496       13932.00     60810.93
  136.09        2970.75           1499       12628.00     55106.73
  136.12        2971.00           1502       11298.00     49290.80
  136.15        2971.25           1506        9660.00     42130.81
  136.18        2971.50           1509        8357.00     36437.37
  136.22        2971.75           1513        6766.00     29488.15
  136.25        2972.00           1516        5534.00     24108.98
  136.28        2972.25           1519        4319.00     18805.73
  136.31        2972.50           1523        2645.00     11501.79
  136.34        2972.75           1526        1577.00      6843.60
  136.37        2973.00           1529         637.00      2744.78
  136.40        2973.25           1533         321.00      1367.10
  136.43        2973.50           1536         251.00      1061.93
  136.46        2973.75           1539         205.00       861.40
  136.49        2974.00           1543         175.00       730.62
  136.52        2974.25           1546         137.00       564.96
  136.56        2974.50           1549         101.00       408.03
  136.59        2974.75           1553          71.00       277.25
  136.62        2975.00           1556          63.00       242.37
  136.65        2975.25           1559          58.00       220.58
  136.68        2975.50           1563          58.00       220.58
  136.71        2975.75           1566          55.00       207.50
  136.74        2976.00           1569          56.00       211.86
  136.77        2976.25           1573          57.00       216.22
  136.80        2976.50           1576          46.00       168.27
  136.84        2976.75           1579          54.00       203.14
  136.87        2977.00           1583          48.00       176.98
  136.90        2977.25           1586          51.00       190.06
  136.93        2977.50           1590          51.00       190.06
  136.96        2977.75           1593          50.00       185.70
  136.99        2978.00           1596          47.00       172.63
  137.02        2978.25           1600          49.00       181.34
  137.05        2978.50           1603          46.00       168.27
  137.08        2978.75           1606          56.00       211.86
  137.11        2979.00           1610          51.00       190.06
  137.14        2979.25           1613          52.00       194.42
  137.18        2979.50           1616          61.00       233.65
  137.21        2979.75           1620          56.00       211.86
  137.24        2980.00           1623          51.00       190.06
  137.27        2980.25           1626          50.00       185.70
  137.30        2980.50           1630          45.00       163.91
  137.33        2980.75           1633          49.00       181.34
  137.36        2981.00           1637          49.00       181.34
  137.39        2981.25           1640          51.00       190.06
  137.42        2981.50           1643          51.00       190.06
  137.46        2981.75           1647          56.00       211.86
  137.49        2982.00           1650          48.00       176.98
  137.52        2982.25           1653          63.00       242.37
  137.55        2982.50           1657          61.00       233.65
  137.58        2982.75           1660          47.00       172.63
  137.61        2983.00           1663          46.00       168.27
  137.64        2983.25           1667          45.00       163.91
  137.67        2983.50           1670          55.00       207.50
  137.70        2983.75           1673          46.00       168.27
  137.74        2984.00           1677          50.00       185.70
HS scan finished at 02:17:57
end
************************************************************
  HS Scan of (1) Internal mercury lamp
************************************************************
Integration time is 0.2294 seconds per sample
dh190419Manchester 53.47 2.23 3.018777pr1000
************************************************************
Dead Time -------------------------  3E-08 
Number of Cycles Used -------------  4 
Starting Wavelength (Angstroms) ---  2950 
Final Wavelength (Angstoms) -------  2984 
Wavelength Increment (Angstroms) --  .25 
Filter Wheel #1 Position ---------- (1) Ground quartz diffuser (ND=2.32)
Filter Wheel #2 Position ---------- (1) Neutral Density 0.494



************************************************************
HS scan start time = 20:12:19
Dark Count =  5.9 


Time (GMT)  Wavelength (Ang)  Step Number  Raw Counts  Counts/Second

 1212.69        2950.00           1222          58.00       227.12
 1212.76        2950.25           1226          59.00       231.48
 1212.79        2950.50           1229          60.00       235.83
 1212.82        2950.75           1232          53.00       205.32
 1212.85        2951.00           1236          55.00       214.04
 1212.88        2951.25           1239          64.00       253.27
 1212.91        2951.50           1242          57.00       222.76
 1212.94        2951.75           1246          59.00       231.48
 1212.97        2952.00           1249          50.00       192.24
 1213.00        2952.25           1252          47.00       179.16
 1213.04        2952.50           1256          51.00       196.60
 1213.07        2952.75           1259          56.00       218.40
 1213.10        2953.00           1262          59.00       231.48
 1213.13        2953.25           1266          51.00       196.60
 1213.16        2953.50           1269          51.00       196.60
 1213.19        2953.75           1272          61.00       240.19
 1213.22        2954.00           1276          60.00       235.83
 1213.25        2954.25           1279          62.00       244.55
 1213.28        2954.50           1282          52.00       200.96
 1213.32        2954.75           1286          56.00       218.40
 1213.35        2955.00           1289          56.00       218.40
 1213.38        2955.25           1292          58.00       227.12
 1213.41        2955.50           1296          49.00       187.88
 1213.44        2955.75           1299          59.00       231.48
 1213.47        2956.00           1302          58.00       227.12
 1213.50        2956.25           1306          53.00       205.32
 1213.53        2956.50           1309          48.00       183.52
 1213.56        2956.75           1312          58.00       227.12
 1213.59        2957.00           1316          59.00       231.48
 1213.63        2957.25           1319          53.00       205.32
 1213.66        2957.50           1322          53.00       205.32
 1213.69        2957.75           1326          57.00       222.76
 1213.72        2958.00           1329          64.00       253.27
 1213.75        2958.25           1332          51.00       196.60
 1213.78        2958.50           1336          52.00       200.96
 1213.81        2958.75           1339          47.00       179.16
 1213.84        2959.00           1342          57.00       222.76
 1213.87        2959.25           1346          60.00       235.83
 1213.90        2959.50           1349          59.00       231.48
 1213.94        2959.75           1352          67.00       266.35
 1213.97        2960.00           1356          88.00       357.89
 1214.00        2960.25           1359         111.00       458.16
 1214.03        2960.50           1362         140.00       584.58
 1214.06        2960.75           1366         201.00       850.50
 1214.09        2961.00           1369         221.00       937.69
 1214.12        2961.25           1372         262.00      1116.43
 1214.15        2961.50           1376         321.00      1373.64
 1214.18        2961.75           1379         456.00      1962.19
 1214.21        2962.00           1382        1010.00      4377.65
 1214.25        2962.25           1386        2619.00     11394.92
 1214.28        2962.50           1389        4055.00     17660.19
 1214.31        2962.75           1392        5260.00     22919.42
 1214.34        2963.00           1396        7036.00     30673.81
 1214.37        2963.25           1399        8285.00     36129.37
 1214.40        2963.50           1402        9635.00     42028.11
 1214.43        2963.75           1406       11403.00     49756.43
 1214.46        2964.00           1409       12770.00     55734.35
 1214.49        2964.25           1412       14004.00     61132.51
 1214.52        2964.50           1416       15924.00     69535.05
 1214.56        2964.75           1419       17313.00     75616.43
 1214.59        2965.00           1422       18776.00     82024.16
 1214.62        2965.25           1426       20562.00     89849.98
 1214.65        2965.50           1429       21993.00     96122.91
 1214.68        2965.75           1432       23437.00    102455.20
 1214.71        2966.00           1436       25090.00    109707.00
 1214.74        2966.25           1439       26274.00    114903.30
 1214.77        2966.50           1442       27671.00    121036.40
 1214.81        2966.75           1446       29032.00    127013.60
 1214.84        2967.00           1449       29337.00    128353.40
 1214.87        2967.25           1452       29394.00    128603.80
 1214.90        2967.50           1456       29419.00    128713.60
 1214.93        2967.75           1459       29202.00    127760.30
 1214.96        2968.00           1462       29169.00    127615.40
 1214.99        2968.25           1466       28265.00    123644.80
 1215.02        2968.50           1469       27049.00    118305.40
 1215.05        2968.75           1472       25735.00    112537.60
 1215.09        2969.00           1476       24017.00    104999.40
 1215.12        2969.25           1479       22689.00     99174.75
 1215.15        2969.50           1482       21385.00     93457.38
 1215.18        2969.75           1486       19625.00     85743.81
 1215.21        2970.00           1489       18324.00     80044.21
 1215.24        2970.25           1492       17046.00     74447.26
 1215.27        2970.50           1496       15234.00     66514.90
 1215.30        2970.75           1499       13922.00     60773.74
 1215.33        2971.00           1502       12483.00     54479.12
 1215.37        2971.25           1506       10798.00     47111.44
 1215.40        2971.50           1509        9291.00     40524.83
 1215.43        2971.75           1513        7571.00     33010.44
 1215.46        2972.00           1516        6144.00     26778.70
 1215.49        2972.25           1519        4718.00     20553.65
 1215.52        2972.50           1523        3009.00     13096.25
 1215.55        2972.75           1526        1801.00      7827.03
 1215.58        2973.00           1529         817.00      3536.12
 1215.62        2973.25           1533         375.00      1609.06
 1215.65        2973.50           1536         312.00      1334.40
 1215.68        2973.75           1539         260.00      1107.71
 1215.71        2974.00           1543         215.00       911.53
 1215.74        2974.25           1546         170.00       715.36
 1215.77        2974.50           1549         129.00       536.63
 1215.80        2974.75           1553          89.00       362.25
 1215.83        2975.00           1556          76.00       305.58
 1215.86        2975.25           1559          58.00       227.12
 1215.89        2975.50           1563          51.00       196.60
 1215.92        2975.75           1566          59.00       231.48
 1215.95        2976.00           1569          47.00       179.16
 1215.99        2976.25           1573          51.00       196.60
 1216.02        2976.50           1576          58.00       227.12
 1216.05        2976.75           1579          58.00       227.12
 1216.08        2977.00           1583          58.00       227.12
 1216.11        2977.25           1586          49.00       187.88
 1216.14        2977.50           1590          53.00       205.32
 1216.17        2977.75           1593          57.00       222.76
 1216.20        2978.00           1596          44.00       166.09
 1216.23        2978.25           1600          44.00       166.09
 1216.26        2978.50           1603          50.00       192.24
 1216.29        2978.75           1606          58.00       227.12
 1216.33        2979.00           1610          52.00       200.96
 1216.36        2979.25           1613          48.00       183.52
 1216.39        2979.50           1616          47.00       179.16
 1216.42        2979.75           1620          54.00       209.68
 1216.45        2980.00           1623          62.00       244.55
 1216.48        2980.25           1626          55.00       214.04
 1216.51        2980.50           1630          45.00       170.45
 1216.54        2980.75           1633          53.00       205.32
 1216.57        2981.00           1637          42.00       157.37
 1216.60        2981.25           1640          51.00       196.60
 1216.64        2981.50           1643          52.00       200.96
 1216.67        2981.75           1647          40.00       148.65
 1216.70        2982.00           1650          53.00       205.32
 1216.73        2982.25           1653          51.00       196.60
 1216.76        2982.50           1657          56.00       218.40
 1216.79        2982.75           1660          50.00       192.24
 1216.82        2983.00           1663          52.00       200.96
 1216.85        2983.25           1667          54.00       209.68
 1216.89        2983.50           1670          46.00       174.80
 1216.92        2983.75           1673          41.00       153.01
 1216.95        2984.00           1677          49.00       187.88
HS scan finished at 20:17:10
end
