************************************************************
  HS Scan of (1) Internal mercury lamp
************************************************************
Integration time is 0.2294 seconds per sample
dh160418Manchester 53.47 2.23 2.804185pr1000
************************************************************
Dead Time -------------------------  3E-08 
Number of Cycles Used -------------  4 
Starting Wavelength (Angstroms) ---  2950 
Final Wavelength (Angstoms) -------  2984 
Wavelength Increment (Angstroms) --  .25 
Filter Wheel #1 Position ---------- (1) Ground quartz diffuser (ND=2.32)
Filter Wheel #2 Position ---------- (1) Neutral Density 0.494



************************************************************
HS scan start time = 01:36:41
Dark Count =  5.8 


Time (GMT)  Wavelength (Ang)  Step Number  Raw Counts  Counts/Second

   97.06        2950.00           1222          56.00       218.83
   97.12        2950.25           1226          56.00       218.83
   97.15        2950.50           1229          62.00       244.99
   97.18        2950.75           1232          60.00       236.27
   97.21        2951.00           1236          64.00       253.71
   97.25        2951.25           1239          60.00       236.27
   97.28        2951.50           1242          51.00       197.04
   97.31        2951.75           1246          65.00       258.07
   97.34        2952.00           1249          60.00       236.27
   97.37        2952.25           1252          55.00       214.47
   97.40        2952.50           1256          61.00       240.63
   97.43        2952.75           1259          61.00       240.63
   97.46        2953.00           1262          53.00       205.76
   97.49        2953.25           1266          59.00       231.91
   97.52        2953.50           1269          60.00       236.27
   97.55        2953.75           1272          61.00       240.63
   97.58        2954.00           1276          63.00       249.35
   97.61        2954.25           1279          60.00       236.27
   97.64        2954.50           1282          52.00       201.40
   97.67        2954.75           1286          60.00       236.27
   97.70        2955.00           1289          65.00       258.07
   97.74        2955.25           1292          53.00       205.76
   97.77        2955.50           1296          55.00       214.47
   97.80        2955.75           1299          62.00       244.99
   97.83        2956.00           1302          59.00       231.91
   97.86        2956.25           1306          65.00       258.07
   97.89        2956.50           1309          57.00       223.19
   97.92        2956.75           1312          63.00       249.35
   97.95        2957.00           1316          55.00       214.47
   97.98        2957.25           1319          60.00       236.27
   98.01        2957.50           1322          63.00       249.35
   98.05        2957.75           1326          57.00       223.19
   98.08        2958.00           1329          59.00       231.91
   98.11        2958.25           1332          58.00       227.55
   98.14        2958.50           1336          53.00       205.76
   98.17        2958.75           1339          61.00       240.63
   98.20        2959.00           1342          62.00       244.99
   98.23        2959.25           1346          60.00       236.27
   98.26        2959.50           1349          70.00       279.86
   98.29        2959.75           1352          89.00       362.69
   98.32        2960.00           1356         117.00       484.75
   98.35        2960.25           1359         151.00       632.97
   98.38        2960.50           1362         187.00       789.91
   98.41        2960.75           1366         244.00      1038.39
   98.44        2961.00           1369         277.00      1182.26
   98.48        2961.25           1372         311.00      1330.48
   98.51        2961.50           1376         392.00      1683.61
   98.54        2961.75           1379         514.00      2215.49
   98.57        2962.00           1382        1195.00      5184.76
   98.60        2962.25           1386        2756.00     11992.98
   98.63        2962.50           1389        4194.00     18267.20
   98.66        2962.75           1392        5637.00     24565.61
   98.69        2963.00           1396        7412.00     32316.41
   98.72        2963.25           1399        9047.00     39459.07
   98.75        2963.50           1402       10488.00     45756.76
   98.79        2963.75           1406       12503.00     54567.02
   98.82        2964.00           1409       14095.00     61531.09
   98.85        2964.25           1412       15655.00     68358.01
   98.88        2964.50           1416       17653.00     77105.79
   98.91        2964.75           1419       19243.00     84070.53
   98.94        2965.00           1422       20733.00     90599.88
   98.97        2965.25           1426       22717.00     99297.98
   99.00        2965.50           1429       24066.00    105214.80
   99.03        2965.75           1432       25394.00    111041.50
   99.07        2966.00           1436       27476.00    120180.60
   99.10        2966.25           1439       28879.00    126342.00
   99.13        2966.50           1442       30238.00    132312.30
   99.16        2966.75           1446       31547.00    138065.00
   99.19        2967.00           1449       31844.00    139370.50
   99.22        2967.25           1452       32101.00    140500.30
   99.25        2967.50           1456       32080.00    140408.00
   99.28        2967.75           1459       31833.00    139322.20
   99.31        2968.00           1462       31858.00    139432.10
   99.34        2968.25           1466       30630.00    134034.80
   99.37        2968.50           1469       29318.00    128270.30
   99.41        2968.75           1472       27951.00    122266.30
   99.44        2969.00           1476       26149.00    114355.00
   99.47        2969.25           1479       24707.00    108027.00
   99.50        2969.50           1482       23204.00    101433.80
   99.53        2969.75           1486       21405.00     93545.50
   99.56        2970.00           1489       19773.00     86392.76
   99.59        2970.25           1492       18352.00     80167.29
   99.62        2970.50           1496       16318.00     71260.28
   99.65        2970.75           1499       14844.00     64808.53
   99.68        2971.00           1502       13314.00     58114.31
   99.72        2971.25           1506       11478.00     50084.80
   99.75        2971.50           1509        9970.00     43492.64
   99.78        2971.75           1513        8091.00     35282.31
   99.81        2972.00           1516        6650.00     28988.58
   99.84        2972.25           1519        5160.00     22483.34
   99.87        2972.50           1523        3259.00     14187.38
   99.90        2972.75           1526        1873.00      8141.48
   99.93        2973.00           1529         807.00      3492.96
   99.96        2973.25           1533         413.00      1775.16
  100.00        2973.50           1536         325.00      1391.51
  100.03        2973.75           1539         269.00      1147.38
  100.06        2974.00           1543         226.00       959.92
  100.09        2974.25           1546         158.00       663.48
  100.12        2974.50           1549         139.00       580.66
  100.15        2974.75           1553          88.00       358.33
  100.18        2975.00           1556          69.00       275.50
  100.21        2975.25           1559          63.00       249.35
  100.24        2975.50           1563          62.00       244.99
  100.27        2975.75           1566          60.00       236.27
  100.30        2976.00           1569          67.00       266.79
  100.33        2976.25           1573          64.00       253.71
  100.36        2976.50           1576          59.00       231.91
  100.40        2976.75           1579          60.00       236.27
  100.43        2977.00           1583          59.00       231.91
  100.46        2977.25           1586          54.00       210.11
  100.49        2977.50           1590          60.00       236.27
  100.52        2977.75           1593          63.00       249.35
  100.55        2978.00           1596          52.00       201.40
  100.58        2978.25           1600          64.00       253.71
  100.61        2978.50           1603          55.00       214.47
  100.64        2978.75           1606          67.00       266.79
  100.67        2979.00           1610          54.00       210.11
  100.70        2979.25           1613          56.00       218.83
  100.73        2979.50           1616          50.00       192.68
  100.76        2979.75           1620          65.00       258.07
  100.80        2980.00           1623          58.00       227.55
  100.83        2980.25           1626          64.00       253.71
  100.86        2980.50           1630          50.00       192.68
  100.89        2980.75           1633          52.00       201.40
  100.92        2981.00           1637          41.00       153.44
  100.95        2981.25           1640          50.00       192.68
  100.98        2981.50           1643          54.00       210.11
  101.01        2981.75           1647          57.00       223.19
  101.04        2982.00           1650          56.00       218.83
  101.07        2982.25           1653          59.00       231.91
  101.10        2982.50           1657          59.00       231.91
  101.14        2982.75           1660          53.00       205.76
  101.17        2983.00           1663          61.00       240.63
  101.20        2983.25           1667          55.00       214.47
  101.23        2983.50           1670          52.00       201.40
  101.26        2983.75           1673          59.00       231.91
  101.29        2984.00           1677          45.00       170.88
HS scan finished at 01:41:30
end
************************************************************
  HS Scan of (1) Internal mercury lamp
************************************************************
Integration time is 0.2294 seconds per sample
dh160418Manchester 53.47 2.23 2.804185pr1000
************************************************************
Dead Time -------------------------  3E-08 
Number of Cycles Used -------------  4 
Starting Wavelength (Angstroms) ---  2950 
Final Wavelength (Angstoms) -------  2984 
Wavelength Increment (Angstroms) --  .25 
Filter Wheel #1 Position ---------- (1) Ground quartz diffuser (ND=2.32)
Filter Wheel #2 Position ---------- (1) Neutral Density 0.494



************************************************************
HS scan start time = 20:12:01
Dark Count =  8.100001 


Time (GMT)  Wavelength (Ang)  Step Number  Raw Counts  Counts/Second

 1212.38        2950.00           1222          58.00       217.53
 1212.45        2950.25           1226          57.00       213.17
 1212.48        2950.50           1229          59.00       221.88
 1212.51        2950.75           1232          60.00       226.24
 1212.54        2951.00           1236          61.00       230.60
 1212.57        2951.25           1239          57.00       213.17
 1212.61        2951.50           1242          59.00       221.88
 1212.64        2951.75           1246          60.00       226.24
 1212.67        2952.00           1249          59.00       221.88
 1212.70        2952.25           1252          53.00       195.73
 1212.73        2952.50           1256          55.00       204.45
 1212.76        2952.75           1259          57.00       213.17
 1212.79        2953.00           1262          56.00       208.81
 1212.82        2953.25           1266          59.00       221.88
 1212.85        2953.50           1269          56.00       208.81
 1212.88        2953.75           1272          61.00       230.60
 1212.91        2954.00           1276          59.00       221.88
 1212.94        2954.25           1279          64.00       243.68
 1212.97        2954.50           1282          60.00       226.24
 1213.00        2954.75           1286          58.00       217.53
 1213.03        2955.00           1289          60.00       226.24
 1213.06        2955.25           1292          58.00       217.53
 1213.09        2955.50           1296          63.00       239.32
 1213.12        2955.75           1299          63.00       239.32
 1213.15        2956.00           1302          65.00       248.04
 1213.19        2956.25           1306          65.00       248.04
 1213.22        2956.50           1309          55.00       204.45
 1213.25        2956.75           1312          59.00       221.88
 1213.28        2957.00           1316          64.00       243.68
 1213.31        2957.25           1319          61.00       230.60
 1213.34        2957.50           1322          56.00       208.81
 1213.37        2957.75           1326          52.00       191.37
 1213.40        2958.00           1329          60.00       226.24
 1213.43        2958.25           1332          54.00       200.09
 1213.46        2958.50           1336          63.00       239.32
 1213.49        2958.75           1339          61.00       230.60
 1213.52        2959.00           1342          62.00       234.96
 1213.55        2959.25           1346          62.00       234.96
 1213.59        2959.50           1349          62.00       234.96
 1213.62        2959.75           1352          86.00       339.59
 1213.65        2960.00           1356         107.00       431.13
 1213.68        2960.25           1359         117.00       474.72
 1213.71        2960.50           1362         164.00       679.61
 1213.74        2960.75           1366         209.00       875.79
 1213.77        2961.00           1369         239.00      1006.57
 1213.80        2961.25           1372         288.00      1220.18
 1213.83        2961.50           1376         384.00      1638.70
 1213.86        2961.75           1379         651.00      2802.76
 1213.89        2962.00           1382        1436.00      6225.66
 1213.92        2962.25           1386        3100.00     13483.66
 1213.95        2962.50           1389        4481.00     19509.67
 1213.98        2962.75           1392        5758.00     25083.82
 1214.02        2963.00           1396        7633.00     33271.64
 1214.05        2963.25           1399        9183.00     40043.28
 1214.08        2963.50           1402       10594.00     46210.05
 1214.11        2963.75           1406       12437.00     54268.32
 1214.14        2964.00           1409       14107.00     61573.54
 1214.17        2964.25           1412       15691.00     68505.52
 1214.20        2964.50           1416       17773.00     77621.27
 1214.23        2964.75           1419       19435.00     84901.68
 1214.26        2965.00           1422       20896.00     91304.24
 1214.30        2965.25           1426       22741.00     99393.13
 1214.33        2965.50           1429       24320.00    106319.00
 1214.36        2965.75           1432       25693.00    112343.60
 1214.39        2966.00           1436       27784.00    121522.90
 1214.42        2966.25           1439       29071.00    127175.20
 1214.45        2966.50           1442       30266.00    132425.20
 1214.48        2966.75           1446       31418.00    137487.90
 1214.51        2967.00           1449       31999.00    140041.80
 1214.54        2967.25           1452       31972.00    139923.10
 1214.57        2967.50           1456       31935.00    139760.50
 1214.60        2967.75           1459       31945.00    139804.40
 1214.64        2968.00           1462       31702.00    138736.20
 1214.67        2968.25           1466       30519.00    133537.00
 1214.70        2968.50           1469       29202.00    127750.70
 1214.73        2968.75           1472       27783.00    121518.50
 1214.76        2969.00           1476       26203.00    114582.00
 1214.79        2969.25           1479       24862.00    108696.90
 1214.82        2969.50           1482       23457.00    102533.30
 1214.85        2969.75           1486       21396.00     93495.97
 1214.88        2970.00           1489       19812.00     86553.58
 1214.92        2970.25           1492       18297.00     79916.31
 1214.95        2970.50           1496       16364.00     71451.61
 1214.98        2970.75           1499       14883.00     64969.15
 1215.01        2971.00           1502       13561.00     59184.78
 1215.04        2971.25           1506       11370.00     49602.53
 1215.07        2971.50           1509        9861.00     43006.19
 1215.10        2971.75           1513        7936.00     34595.17
 1215.13        2972.00           1516        6475.00     28214.37
 1215.16        2972.25           1519        5110.00     22255.05
 1215.19        2972.50           1523        3260.00     14181.71
 1215.22        2972.75           1526        1963.00      8523.97
 1215.25        2973.00           1529         869.00      3753.26
 1215.29        2973.25           1533         424.00      1813.09
 1215.32        2973.50           1536         325.00      1381.49
 1215.35        2973.75           1539         284.00      1202.75
 1215.38        2974.00           1543         238.00      1002.21
 1215.41        2974.25           1546         177.00       736.28
 1215.44        2974.50           1549         143.00       588.07
 1215.47        2974.75           1553          91.00       361.38
 1215.50        2975.00           1556          80.00       313.43
 1215.53        2975.25           1559          58.00       217.53
 1215.56        2975.50           1563          55.00       204.45
 1215.59        2975.75           1566          63.00       239.32
 1215.62        2976.00           1569          59.00       221.88
 1215.66        2976.25           1573          56.00       208.81
 1215.69        2976.50           1576          59.00       221.88
 1215.72        2976.75           1579          59.00       221.88
 1215.75        2977.00           1583          53.00       195.73
 1215.78        2977.25           1586          57.00       213.17
 1215.81        2977.50           1590          62.00       234.96
 1215.84        2977.75           1593          55.00       204.45
 1215.87        2978.00           1596          56.00       208.81
 1215.90        2978.25           1600          62.00       234.96
 1215.93        2978.50           1603          53.00       195.73
 1215.96        2978.75           1606          64.00       243.68
 1216.00        2979.00           1610          58.00       217.53
 1216.03        2979.25           1613          56.00       208.81
 1216.06        2979.50           1616          57.00       213.17
 1216.09        2979.75           1620          58.00       217.53
 1216.12        2980.00           1623          55.00       204.45
 1216.15        2980.25           1626          53.00       195.73
 1216.18        2980.50           1630          60.00       226.24
 1216.21        2980.75           1633          53.00       195.73
 1216.24        2981.00           1637          53.00       195.73
 1216.28        2981.25           1640          53.00       195.73
 1216.31        2981.50           1643          51.00       187.01
 1216.35        2981.75           1647          58.00       217.53
 1216.38        2982.00           1650          53.00       195.73
 1216.41        2982.25           1653          55.00       204.45
 1216.44        2982.50           1657          50.00       182.65
 1216.47        2982.75           1660          57.00       213.17
 1216.50        2983.00           1663          58.00       217.53
 1216.53        2983.25           1667          45.00       160.86
 1216.56        2983.50           1670          58.00       217.53
 1216.59        2983.75           1673          47.00       169.57
 1216.62        2984.00           1677          63.00       239.32
HS scan finished at 20:16:50
end
