************************************************************
  HS Scan of (1) Internal mercury lamp
************************************************************
Integration time is 0.2294 seconds per sample
dh140419Manchester 53.47 2.23 2.804185pr1000
************************************************************
Dead Time -------------------------  3E-08 
Number of Cycles Used -------------  4 
Starting Wavelength (Angstroms) ---  2950 
Final Wavelength (Angstoms) -------  2984 
Wavelength Increment (Angstroms) --  .25 
Filter Wheel #1 Position ---------- (1) Ground quartz diffuser (ND=2.32)
Filter Wheel #2 Position ---------- (1) Neutral Density 0.494



************************************************************
HS scan start time = 01:24:25
Dark Count =  7.3 


Time (GMT)  Wavelength (Ang)  Step Number  Raw Counts  Counts/Second

   84.79        2950.00           1222          60.00       229.73
   84.86        2950.25           1226          59.00       225.37
   84.89        2950.50           1229          61.00       234.09
   84.92        2950.75           1232          59.00       225.37
   84.95        2951.00           1236          54.00       203.58
   84.98        2951.25           1239          50.00       186.14
   85.02        2951.50           1242          54.00       203.58
   85.05        2951.75           1246          57.00       216.65
   85.08        2952.00           1249          61.00       234.09
   85.11        2952.25           1252          55.00       207.94
   85.14        2952.50           1256          61.00       234.09
   85.17        2952.75           1259          53.00       199.22
   85.20        2953.00           1262          57.00       216.65
   85.23        2953.25           1266          54.00       203.58
   85.26        2953.50           1269          50.00       186.14
   85.30        2953.75           1272          56.00       212.29
   85.33        2954.00           1276          57.00       216.65
   85.36        2954.25           1279          57.00       216.65
   85.39        2954.50           1282          45.00       164.34
   85.42        2954.75           1286          56.00       212.29
   85.45        2955.00           1289          52.00       194.86
   85.48        2955.25           1292          62.00       238.45
   85.51        2955.50           1296          60.00       229.73
   85.54        2955.75           1299          58.00       221.01
   85.58        2956.00           1302          60.00       229.73
   85.61        2956.25           1306          60.00       229.73
   85.64        2956.50           1309          57.00       216.65
   85.67        2956.75           1312          62.00       238.45
   85.70        2957.00           1316          53.00       199.22
   85.73        2957.25           1319          47.00       173.06
   85.76        2957.50           1322          52.00       194.86
   85.79        2957.75           1326          49.00       181.78
   85.82        2958.00           1329          51.00       190.50
   85.86        2958.25           1332          51.00       190.50
   85.89        2958.50           1336          50.00       186.14
   85.92        2958.75           1339          53.00       199.22
   85.95        2959.00           1342          56.00       212.29
   85.98        2959.25           1346          56.00       212.29
   86.01        2959.50           1349          57.00       216.65
   86.04        2959.75           1352          66.00       255.89
   86.07        2960.00           1356         106.00       430.26
   86.10        2960.25           1359         126.00       517.44
   86.13        2960.50           1362         145.00       600.27
   86.17        2960.75           1366         200.00       840.04
   86.20        2961.00           1369         221.00       931.59
   86.23        2961.25           1372         263.00      1114.68
   86.26        2961.50           1376         325.00      1384.97
   86.29        2961.75           1379         416.00      1781.70
   86.32        2962.00           1382         911.00      3939.87
   86.35        2962.25           1386        2287.00      9940.63
   86.38        2962.50           1389        3434.00     14944.36
   86.41        2962.75           1392        4614.00     20093.63
   86.44        2963.00           1396        6184.00     26947.24
   86.48        2963.25           1399        7327.00     31938.61
   86.51        2963.50           1402        8514.00     37123.72
   86.54        2963.75           1406       10196.00     44473.87
   86.57        2964.00           1409       11332.00     49439.89
   86.60        2964.25           1412       12837.00     56021.28
   86.63        2964.50           1416       14590.00     63690.46
   86.66        2964.75           1419       15900.00     69423.87
   86.69        2965.00           1422       17129.00     74804.56
   86.73        2965.25           1426       18755.00     81926.04
   86.76        2965.50           1429       20050.00     87600.00
   86.79        2965.75           1432       21271.00     92951.52
   86.82        2966.00           1436       22941.00    100273.70
   86.85        2966.25           1439       23934.00    104629.10
   86.88        2966.50           1442       25007.00    109336.70
   86.91        2966.75           1446       26390.00    115406.30
   86.94        2967.00           1449       26788.00    117153.40
   86.97        2967.25           1452       26521.00    115981.30
   87.01        2967.50           1456       26641.00    116508.10
   87.04        2967.75           1459       26776.00    117100.70
   87.07        2968.00           1462       26544.00    116082.30
   87.10        2968.25           1466       25944.00    113448.70
   87.13        2968.50           1469       25049.00    109521.00
   87.16        2968.75           1472       23844.00    104234.30
   87.19        2969.00           1476       22356.00     97708.39
   87.22        2969.25           1479       21069.00     92066.05
   87.25        2969.50           1482       19786.00     86443.14
   87.28        2969.75           1486       18180.00     79407.33
   87.31        2970.00           1489       16951.00     74025.15
   87.35        2970.25           1492       15684.00     68478.38
   87.38        2970.50           1496       14116.00     61616.42
   87.41        2970.75           1499       12763.00     55697.61
   87.44        2971.00           1502       11660.00     50874.02
   87.47        2971.25           1506        9892.00     43145.18
   87.50        2971.50           1509        8576.00     37394.59
   87.53        2971.75           1513        7085.00     30881.69
   87.56        2972.00           1516        5827.00     25388.56
   87.59        2972.25           1519        4629.00     20159.09
   87.63        2972.50           1523        3135.00     13639.84
   87.66        2972.75           1526        2000.00      8688.84
   87.69        2973.00           1529         938.00      4057.60
   87.72        2973.25           1533         382.00      1633.47
   87.75        2973.50           1536         254.00      1075.45
   87.78        2973.75           1539         215.00       905.43
   87.81        2974.00           1543         172.00       717.98
   87.84        2974.25           1546         133.00       547.96
   87.87        2974.50           1549         102.00       412.82
   87.91        2974.75           1553          72.00       282.04
   87.94        2975.00           1556          67.00       260.25
   87.97        2975.25           1559          59.00       225.37
   88.00        2975.50           1563          59.00       225.37
   88.03        2975.75           1566          55.00       207.94
   88.06        2976.00           1569          54.00       203.58
   88.09        2976.25           1573          58.00       221.01
   88.12        2976.50           1576          55.00       207.94
   88.15        2976.75           1579          54.00       203.58
   88.18        2977.00           1583          60.00       229.73
   88.21        2977.25           1586          53.00       199.22
   88.25        2977.50           1590          53.00       199.22
   88.28        2977.75           1593          55.00       207.94
   88.31        2978.00           1596          58.00       221.01
   88.34        2978.25           1600          48.00       177.42
   88.37        2978.50           1603          51.00       190.50
   88.40        2978.75           1606          54.00       203.58
   88.43        2979.00           1610          62.00       238.45
   88.46        2979.25           1613          63.00       242.81
   88.49        2979.50           1616          60.00       229.73
   88.52        2979.75           1620          60.00       229.73
   88.56        2980.00           1623          45.00       164.34
   88.59        2980.25           1626          54.00       203.58
   88.62        2980.50           1630          53.00       199.22
   88.65        2980.75           1633          48.00       177.42
   88.68        2981.00           1637          52.00       194.86
   88.71        2981.25           1640          52.00       194.86
   88.74        2981.50           1643          45.00       164.34
   88.77        2981.75           1647          52.00       194.86
   88.80        2982.00           1650          50.00       186.14
   88.84        2982.25           1653          48.00       177.42
   88.87        2982.50           1657          49.00       181.78
   88.90        2982.75           1660          57.00       216.65
   88.93        2983.00           1663          46.00       168.70
   88.96        2983.25           1667          46.00       168.70
   88.99        2983.50           1670          51.00       190.50
   89.02        2983.75           1673          49.00       181.78
   89.05        2984.00           1677          45.00       164.34
HS scan finished at 01:29:16
end
************************************************************
  HS Scan of (1) Internal mercury lamp
************************************************************
Integration time is 0.2294 seconds per sample
dh140419Manchester 53.47 2.23 2.804185pr1000
************************************************************
Dead Time -------------------------  3E-08 
Number of Cycles Used -------------  4 
Starting Wavelength (Angstroms) ---  2950 
Final Wavelength (Angstoms) -------  2984 
Wavelength Increment (Angstroms) --  .25 
Filter Wheel #1 Position ---------- (1) Ground quartz diffuser (ND=2.32)
Filter Wheel #2 Position ---------- (1) Neutral Density 0.494



************************************************************
HS scan start time = 20:12:13
Dark Count =  5.9 


Time (GMT)  Wavelength (Ang)  Step Number  Raw Counts  Counts/Second

 1212.59        2950.00           1222          57.00       222.76
 1212.66        2950.25           1226          63.00       248.91
 1212.69        2950.50           1229          56.00       218.40
 1212.72        2950.75           1232          55.00       214.04
 1212.75        2951.00           1236          60.00       235.83
 1212.78        2951.25           1239          55.00       214.04
 1212.81        2951.50           1242          50.00       192.24
 1212.84        2951.75           1246          60.00       235.83
 1212.87        2952.00           1249          65.00       257.63
 1212.90        2952.25           1252          56.00       218.40
 1212.93        2952.50           1256          56.00       218.40
 1212.97        2952.75           1259          62.00       244.55
 1213.00        2953.00           1262          56.00       218.40
 1213.03        2953.25           1266          53.00       205.32
 1213.06        2953.50           1269          63.00       248.91
 1213.09        2953.75           1272          47.00       179.16
 1213.12        2954.00           1276          51.00       196.60
 1213.15        2954.25           1279          55.00       214.04
 1213.18        2954.50           1282          51.00       196.60
 1213.21        2954.75           1286          50.00       192.24
 1213.24        2955.00           1289          52.00       200.96
 1213.28        2955.25           1292          58.00       227.12
 1213.31        2955.50           1296          57.00       222.76
 1213.34        2955.75           1299          54.00       209.68
 1213.37        2956.00           1302          62.00       244.55
 1213.40        2956.25           1306          59.00       231.48
 1213.43        2956.50           1309          55.00       214.04
 1213.46        2956.75           1312          57.00       222.76
 1213.49        2957.00           1316          56.00       218.40
 1213.52        2957.25           1319          57.00       222.76
 1213.55        2957.50           1322          60.00       235.83
 1213.58        2957.75           1326          54.00       209.68
 1213.61        2958.00           1329          59.00       231.48
 1213.64        2958.25           1332          49.00       187.88
 1213.68        2958.50           1336          52.00       200.96
 1213.71        2958.75           1339          56.00       218.40
 1213.74        2959.00           1342          61.00       240.19
 1213.77        2959.25           1346          57.00       222.76
 1213.80        2959.50           1349          74.00       296.86
 1213.83        2959.75           1352          74.00       296.86
 1213.86        2960.00           1356          95.00       388.41
 1213.89        2960.25           1359         124.00       514.83
 1213.92        2960.50           1362         145.00       606.38
 1213.95        2960.75           1366         181.00       763.31
 1213.99        2961.00           1369         238.00      1011.80
 1214.02        2961.25           1372         261.00      1112.07
 1214.05        2961.50           1376         320.00      1369.28
 1214.08        2961.75           1379         502.00      2162.74
 1214.11        2962.00           1382        1066.00      4621.83
 1214.14        2962.25           1386        2457.00     10688.26
 1214.17        2962.50           1389        3627.00     15792.57
 1214.20        2962.75           1392        4739.00     20645.31
 1214.23        2963.00           1396        6300.00     27459.84
 1214.27        2963.25           1399        7608.00     33172.06
 1214.30        2963.50           1402        8800.00     38379.39
 1214.33        2963.75           1406       10388.00     45319.21
 1214.36        2964.00           1409       11786.00     51431.08
 1214.39        2964.25           1412       13225.00     57724.55
 1214.42        2964.50           1416       14906.00     65079.42
 1214.45        2964.75           1419       16167.00     70598.80
 1214.48        2965.00           1422       17398.00     75988.65
 1214.51        2965.25           1426       19001.00     83009.86
 1214.55        2965.50           1429       20405.00     89161.88
 1214.58        2965.75           1432       21485.00     93895.77
 1214.61        2966.00           1436       23124.00    101082.40
 1214.64        2966.25           1439       24448.00    106890.20
 1214.67        2966.50           1442       25374.00    110953.30
 1214.70        2966.75           1446       26568.00    116193.80
 1214.73        2967.00           1449       26689.00    116724.90
 1214.76        2967.25           1452       26523.00    115996.20
 1214.79        2967.50           1456       26671.00    116645.90
 1214.83        2967.75           1459       26530.00    116027.00
 1214.86        2968.00           1462       26575.00    116224.50
 1214.89        2968.25           1466       25677.00    112283.00
 1214.92        2968.50           1469       24646.00    107758.90
 1214.95        2968.75           1472       23502.00    102740.30
 1214.98        2969.00           1476       21840.00     95452.11
 1215.01        2969.25           1479       20833.00     91037.75
 1215.04        2969.50           1482       19571.00     85507.21
 1215.08        2969.75           1486       17816.00     77819.22
 1215.11        2970.00           1489       16547.00     72262.41
 1215.14        2970.25           1492       15384.00     67171.40
 1215.17        2970.50           1496       13834.00     60388.73
 1215.20        2970.75           1499       12533.00     54697.79
 1215.23        2971.00           1502       11360.00     49568.43
 1215.26        2971.25           1506        9661.00     42141.74
 1215.29        2971.50           1509        8342.00     36378.39
 1215.32        2971.75           1513        6828.00     29765.45
 1215.36        2972.00           1516        5645.00     24600.10
 1215.39        2972.25           1519        4411.00     19213.78
 1215.42        2972.50           1523        2863.00     12459.32
 1215.45        2972.75           1526        1660.00      7212.11
 1215.48        2973.00           1529         721.00      3117.55
 1215.51        2973.25           1533         343.00      1469.55
 1215.54        2973.50           1536         260.00      1107.71
 1215.57        2973.75           1539         236.00      1003.08
 1215.60        2974.00           1543         203.00       859.22
 1215.63        2974.25           1546         154.00       645.61
 1215.66        2974.50           1549         122.00       506.11
 1215.70        2974.75           1553          88.00       357.89
 1215.73        2975.00           1556          63.00       248.91
 1215.76        2975.25           1559          55.00       214.04
 1215.79        2975.50           1563          57.00       222.76
 1215.82        2975.75           1566          60.00       235.83
 1215.85        2976.00           1569          55.00       214.04
 1215.88        2976.25           1573          50.00       192.24
 1215.91        2976.50           1576          49.00       187.88
 1215.94        2976.75           1579          55.00       214.04
 1215.97        2977.00           1583          53.00       205.32
 1216.00        2977.25           1586          52.00       200.96
 1216.04        2977.50           1590          48.00       183.52
 1216.07        2977.75           1593          58.00       227.12
 1216.10        2978.00           1596          61.00       240.19
 1216.13        2978.25           1600          44.00       166.09
 1216.16        2978.50           1603          57.00       222.76
 1216.19        2978.75           1606          65.00       257.63
 1216.22        2979.00           1610          47.00       179.16
 1216.25        2979.25           1613          50.00       192.24
 1216.28        2979.50           1616          70.00       279.43
 1216.31        2979.75           1620          53.00       205.32
 1216.35        2980.00           1623          47.00       179.16
 1216.38        2980.25           1626          52.00       200.96
 1216.41        2980.50           1630          57.00       222.76
 1216.44        2980.75           1633          50.00       192.24
 1216.47        2981.00           1637          54.00       209.68
 1216.50        2981.25           1640          46.00       174.80
 1216.53        2981.50           1643          46.00       174.80
 1216.56        2981.75           1647          50.00       192.24
 1216.59        2982.00           1650          56.00       218.40
 1216.62        2982.25           1653          54.00       209.68
 1216.65        2982.50           1657          47.00       179.16
 1216.68        2982.75           1660          53.00       205.32
 1216.72        2983.00           1663          47.00       179.16
 1216.75        2983.25           1667          49.00       187.88
 1216.78        2983.50           1670          46.00       174.80
 1216.81        2983.75           1673          53.00       205.32
 1216.84        2984.00           1677          52.00       200.96
HS scan finished at 20:17:03
end
