************************************************************
  HS Scan of (1) Internal mercury lamp
************************************************************
Integration time is 0.2294 seconds per sample
dh110418Manchester 53.47 2.23 2.804185pr1000
************************************************************
Dead Time -------------------------  3E-08 
Number of Cycles Used -------------  4 
Starting Wavelength (Angstroms) ---  2950 
Final Wavelength (Angstoms) -------  2984 
Wavelength Increment (Angstroms) --  .25 
Filter Wheel #1 Position ---------- (1) Ground quartz diffuser (ND=2.32)
Filter Wheel #2 Position ---------- (1) Neutral Density 0.494



************************************************************
HS scan start time = 01:38:29
Dark Count =  4.8 


Time (GMT)  Wavelength (Ang)  Step Number  Raw Counts  Counts/Second

   98.85        2950.00           1222          56.00       223.19
   98.92        2950.25           1226          57.00       227.55
   98.95        2950.50           1229          57.00       227.55
   98.98        2950.75           1232          61.00       244.99
   99.01        2951.00           1236          58.00       231.91
   99.04        2951.25           1239          57.00       227.55
   99.07        2951.50           1242          57.00       227.55
   99.10        2951.75           1246          56.00       223.19
   99.14        2952.00           1249          55.00       218.83
   99.17        2952.25           1252          56.00       223.19
   99.20        2952.50           1256          64.00       258.07
   99.23        2952.75           1259          59.00       236.27
   99.26        2953.00           1262          57.00       227.55
   99.29        2953.25           1266          52.00       205.76
   99.32        2953.50           1269          54.00       214.47
   99.35        2953.75           1272          62.00       249.35
   99.38        2954.00           1276          59.00       236.27
   99.41        2954.25           1279          60.00       240.63
   99.45        2954.50           1282          59.00       236.27
   99.48        2954.75           1286          62.00       249.35
   99.51        2955.00           1289          61.00       244.99
   99.54        2955.25           1292          59.00       236.27
   99.57        2955.50           1296          63.00       253.71
   99.60        2955.75           1299          61.00       244.99
   99.63        2956.00           1302          58.00       231.91
   99.66        2956.25           1306          61.00       244.99
   99.69        2956.50           1309          59.00       236.27
   99.72        2956.75           1312          61.00       244.99
   99.75        2957.00           1316          55.00       218.83
   99.78        2957.25           1319          62.00       249.35
   99.81        2957.50           1322          61.00       244.99
   99.84        2957.75           1326          59.00       236.27
   99.88        2958.00           1329          60.00       240.63
   99.91        2958.25           1332          62.00       249.35
   99.94        2958.50           1336          59.00       236.27
   99.97        2958.75           1339          61.00       244.99
  100.00        2959.00           1342          64.00       258.07
  100.03        2959.25           1346          56.00       223.19
  100.06        2959.50           1349          72.00       292.94
  100.09        2959.75           1352          75.00       306.02
  100.12        2960.00           1356          88.00       362.69
  100.15        2960.25           1359         130.00       545.78
  100.18        2960.50           1362         171.00       724.51
  100.22        2960.75           1366         213.00       907.61
  100.25        2961.00           1369         245.00      1047.11
  100.28        2961.25           1372         281.00      1204.05
  100.31        2961.50           1376         367.00      1578.98
  100.34        2961.75           1379         540.00      2333.21
  100.37        2962.00           1382        1346.00      5847.58
  100.40        2962.25           1386        3022.00     13157.77
  100.43        2962.50           1389        4476.00     19502.25
  100.46        2962.75           1392        5818.00     25360.18
  100.49        2963.00           1396        7664.00     33421.46
  100.52        2963.25           1399        9147.00     39900.39
  100.56        2963.50           1402       10600.00     46250.70
  100.59        2963.75           1406       12561.00     54825.07
  100.62        2964.00           1409       14098.00     61548.60
  100.65        2964.25           1412       15516.00     67753.97
  100.68        2964.50           1416       17544.00     76632.81
  100.71        2964.75           1419       19145.00     83645.56
  100.74        2965.00           1422       20364.00     88987.02
  100.77        2965.25           1426       22648.00     98999.78
  100.80        2965.50           1429       24298.00    106236.90
  100.84        2965.75           1432       25743.00    112577.50
  100.87        2966.00           1436       27653.00    120962.10
  100.90        2966.25           1439       29234.00    127905.70
  100.93        2966.50           1442       30400.00    133028.50
  100.96        2966.75           1446       31733.00    138887.00
  100.99        2967.00           1449       32068.00    140359.60
  101.02        2967.25           1452       32284.00    141309.20
  101.05        2967.50           1456       32100.00    140500.30
  101.09        2967.75           1459       32191.00    140900.40
  101.12        2968.00           1462       32009.00    140100.30
  101.15        2968.25           1466       30992.00    135630.10
  101.18        2968.50           1469       29673.00    129834.30
  101.21        2968.75           1472       28262.00    123636.50
  101.24        2969.00           1476       26419.00    115544.60
  101.27        2969.25           1479       24945.00    109075.60
  101.30        2969.50           1482       23306.00    101885.50
  101.33        2969.75           1486       21574.00     94290.77
  101.36        2970.00           1489       20173.00     88149.98
  101.39        2970.25           1492       18811.00     82182.31
  101.43        2970.50           1496       16766.00     73226.06
  101.46        2970.75           1499       15373.00     67128.08
  101.49        2971.00           1502       13838.00     60411.05
  101.52        2971.25           1506       11700.00     51059.85
  101.55        2971.50           1509       10066.00     43916.59
  101.58        2971.75           1513        8140.00     35500.74
  101.61        2972.00           1516        6698.00     29202.56
  101.64        2972.25           1519        5250.00     22880.57
  101.67        2972.50           1523        3314.00     14431.71
  101.70        2972.75           1526        2146.00      9336.53
  101.74        2973.00           1529         982.00      4260.35
  101.77        2973.25           1533         428.00      1844.91
  101.80        2973.50           1536         330.00      1417.67
  101.83        2973.75           1539         273.00      1169.18
  101.86        2974.00           1543         237.00      1012.24
  101.89        2974.25           1546         178.00       755.03
  101.92        2974.50           1549         138.00       580.66
  101.95        2974.75           1553          97.00       401.92
  101.98        2975.00           1556          78.00       319.10
  102.01        2975.25           1559          67.00       271.14
  102.04        2975.50           1563          68.00       275.50
  102.08        2975.75           1566          55.00       218.83
  102.11        2976.00           1569          70.00       284.22
  102.14        2976.25           1573          57.00       227.55
  102.17        2976.50           1576          61.00       244.99
  102.20        2976.75           1579          55.00       218.83
  102.23        2977.00           1583          58.00       231.91
  102.26        2977.25           1586          58.00       231.91
  102.29        2977.50           1590          59.00       236.27
  102.32        2977.75           1593          58.00       231.91
  102.35        2978.00           1596          59.00       236.27
  102.38        2978.25           1600          60.00       240.63
  102.41        2978.50           1603          62.00       249.35
  102.44        2978.75           1606          58.00       231.91
  102.47        2979.00           1610          56.00       223.19
  102.51        2979.25           1613          58.00       231.91
  102.54        2979.50           1616          48.00       188.32
  102.57        2979.75           1620          49.00       192.68
  102.60        2980.00           1623          50.00       197.04
  102.63        2980.25           1626          58.00       231.91
  102.66        2980.50           1630          56.00       223.19
  102.69        2980.75           1633          60.00       240.63
  102.72        2981.00           1637          56.00       223.19
  102.75        2981.25           1640          57.00       227.55
  102.79        2981.50           1643          47.00       183.96
  102.82        2981.75           1647          55.00       218.83
  102.85        2982.00           1650          48.00       188.32
  102.88        2982.25           1653          58.00       231.91
  102.91        2982.50           1657          55.00       218.83
  102.94        2982.75           1660          60.00       240.63
  102.97        2983.00           1663          54.00       214.47
  103.00        2983.25           1667          55.00       218.83
  103.03        2983.50           1670          51.00       201.40
  103.06        2983.75           1673          57.00       227.55
  103.09        2984.00           1677          45.00       175.24
HS scan finished at 01:43:19
end
************************************************************
  HS Scan of (1) Internal mercury lamp
************************************************************
Integration time is 0.2294 seconds per sample
dh110418Manchester 53.47 2.23 2.804185pr1000
************************************************************
Dead Time -------------------------  3E-08 
Number of Cycles Used -------------  4 
Starting Wavelength (Angstroms) ---  2950 
Final Wavelength (Angstoms) -------  2984 
Wavelength Increment (Angstroms) --  .25 
Filter Wheel #1 Position ---------- (1) Ground quartz diffuser (ND=2.32)
Filter Wheel #2 Position ---------- (1) Neutral Density 0.494



************************************************************
HS scan start time = 20:12:05
Dark Count =  5.7 


Time (GMT)  Wavelength (Ang)  Step Number  Raw Counts  Counts/Second

 1212.46        2950.00           1222          65.00       258.50
 1212.53        2950.25           1226          59.00       232.35
 1212.56        2950.50           1229          53.00       206.19
 1212.59        2950.75           1232          52.00       201.83
 1212.62        2951.00           1236          56.00       219.27
 1212.65        2951.25           1239          63.00       249.78
 1212.68        2951.50           1242          56.00       219.27
 1212.71        2951.75           1246          62.00       245.42
 1212.74        2952.00           1249          52.00       201.83
 1212.77        2952.25           1252          57.00       223.63
 1212.80        2952.50           1256          62.00       245.42
 1212.83        2952.75           1259          62.00       245.42
 1212.87        2953.00           1262          66.00       262.86
 1212.90        2953.25           1266          60.00       236.71
 1212.93        2953.50           1269          64.00       254.14
 1212.96        2953.75           1272          59.00       232.35
 1212.99        2954.00           1276          56.00       219.27
 1213.02        2954.25           1279          59.00       232.35
 1213.05        2954.50           1282          63.00       249.78
 1213.08        2954.75           1286          66.00       262.86
 1213.11        2955.00           1289          61.00       241.07
 1213.14        2955.25           1292          53.00       206.19
 1213.17        2955.50           1296          66.00       262.86
 1213.20        2955.75           1299          60.00       236.71
 1213.23        2956.00           1302          65.00       258.50
 1213.26        2956.25           1306          61.00       241.07
 1213.30        2956.50           1309          59.00       232.35
 1213.33        2956.75           1312          63.00       249.78
 1213.36        2957.00           1316          52.00       201.83
 1213.39        2957.25           1319          58.00       227.99
 1213.42        2957.50           1322          59.00       232.35
 1213.45        2957.75           1326          59.00       232.35
 1213.48        2958.00           1329          55.00       214.91
 1213.51        2958.25           1332          54.00       210.55
 1213.54        2958.50           1336          60.00       236.71
 1213.57        2958.75           1339          56.00       219.27
 1213.60        2959.00           1342          65.00       258.50
 1213.63        2959.25           1346          58.00       227.99
 1213.66        2959.50           1349          78.00       315.17
 1213.69        2959.75           1352          78.00       315.17
 1213.72        2960.00           1356         102.00       419.80
 1213.76        2960.25           1359         130.00       541.86
 1213.79        2960.50           1362         175.00       738.03
 1213.82        2960.75           1366         227.00       964.72
 1213.85        2961.00           1369         262.00      1117.30
 1213.88        2961.25           1372         282.00      1204.49
 1213.91        2961.50           1376         357.00      1531.46
 1213.94        2961.75           1379         445.00      1915.11
 1213.97        2962.00           1382         714.00      3087.91
 1214.00        2962.25           1386        1972.00      8573.70
 1214.03        2962.50           1389        3318.00     14445.23
 1214.06        2962.75           1392        4696.00     20458.50
 1214.10        2963.00           1396        6488.00     28281.61
 1214.13        2963.25           1399        7891.00     34409.09
 1214.16        2963.50           1402        9385.00     40936.47
 1214.19        2963.75           1406       11559.00     50439.39
 1214.22        2964.00           1409       12968.00     56601.26
 1214.25        2964.25           1412       14522.00     63399.90
 1214.28        2964.50           1416       16563.00     72333.35
 1214.31        2964.75           1419       17986.00     78564.65
 1214.34        2965.00           1422       19447.00     84964.77
 1214.38        2965.25           1426       21433.00     93668.69
 1214.41        2965.50           1429       22973.00    100421.10
 1214.44        2965.75           1432       24341.00    106421.60
 1214.47        2966.00           1436       26457.00    115707.40
 1214.50        2966.25           1439       27853.00    121836.40
 1214.53        2966.50           1442       29328.00    128314.70
 1214.56        2966.75           1446       30947.00    135428.40
 1214.59        2967.00           1449       31836.00    139335.80
 1214.63        2967.25           1452       32049.00    140272.10
 1214.66        2967.50           1456       32095.00    140474.40
 1214.69        2967.75           1459       32091.00    140456.80
 1214.72        2968.00           1462       32027.00    140175.40
 1214.75        2968.25           1466       31405.00    137441.30
 1214.78        2968.50           1469       30537.00    133626.60
 1214.81        2968.75           1472       29219.00    127835.90
 1214.84        2969.00           1476       27309.00    119447.80
 1214.87        2969.25           1479       26007.00    113732.20
 1214.90        2969.50           1482       24394.00    106654.10
 1214.93        2969.75           1486       22315.00     97535.64
 1214.96        2970.00           1489       21000.00     91770.62
 1215.00        2970.25           1492       19502.00     85205.76
 1215.03        2970.50           1496       17676.00     77206.96
 1215.06        2970.75           1499       16196.00     70726.63
 1215.09        2971.00           1502       14717.00     64253.20
 1215.12        2971.25           1506       12749.00     55643.38
 1215.15        2971.50           1509       11407.00     49774.80
 1215.18        2971.75           1513        9407.00     41032.61
 1215.21        2972.00           1516        7830.00     34142.63
 1215.24        2972.25           1519        6330.00     27591.71
 1215.28        2972.50           1523        4398.00     19157.91
 1215.31        2972.75           1526        3009.00     13097.13
 1215.34        2973.00           1529        1561.00      6781.24
 1215.37        2973.25           1533         523.00      2255.17
 1215.40        2973.50           1536         343.00      1470.42
 1215.43        2973.75           1539         284.00      1213.21
 1215.46        2974.00           1543         240.00      1021.39
 1215.49        2974.25           1546         169.00       711.87
 1215.52        2974.50           1549         143.00       598.53
 1215.55        2974.75           1553         101.00       415.44
 1215.58        2975.00           1556          77.00       310.81
 1215.62        2975.25           1559          63.00       249.78
 1215.65        2975.50           1563          58.00       227.99
 1215.68        2975.75           1566          59.00       232.35
 1215.71        2976.00           1569          52.00       201.83
 1215.74        2976.25           1573          61.00       241.07
 1215.77        2976.50           1576          55.00       214.91
 1215.80        2976.75           1579          55.00       214.91
 1215.83        2977.00           1583          57.00       223.63
 1215.86        2977.25           1586          57.00       223.63
 1215.89        2977.50           1590          61.00       241.07
 1215.92        2977.75           1593          56.00       219.27
 1215.95        2978.00           1596          62.00       245.42
 1215.98        2978.25           1600          59.00       232.35
 1216.02        2978.50           1603          54.00       210.55
 1216.05        2978.75           1606          55.00       214.91
 1216.08        2979.00           1610          63.00       249.78
 1216.11        2979.25           1613          57.00       223.63
 1216.14        2979.50           1616          57.00       223.63
 1216.17        2979.75           1620          78.00       315.17
 1216.20        2980.00           1623          62.00       245.42
 1216.23        2980.25           1626          71.00       284.66
 1216.26        2980.50           1630          54.00       210.55
 1216.29        2980.75           1633          55.00       214.91
 1216.32        2981.00           1637          58.00       227.99
 1216.35        2981.25           1640          49.00       188.75
 1216.38        2981.50           1643          60.00       236.71
 1216.41        2981.75           1647          54.00       210.55
 1216.44        2982.00           1650          58.00       227.99
 1216.48        2982.25           1653          51.00       197.47
 1216.51        2982.50           1657          53.00       206.19
 1216.54        2982.75           1660          60.00       236.71
 1216.57        2983.00           1663          53.00       206.19
 1216.60        2983.25           1667          54.00       210.55
 1216.63        2983.50           1670          53.00       206.19
 1216.66        2983.75           1673          55.00       214.91
 1216.69        2984.00           1677          56.00       219.27
HS scan finished at 20:16:54
end
