************************************************************
  HS Scan of (1) Internal mercury lamp
************************************************************
Integration time is 0.2294 seconds per sample
dh130419Manchester 53.47 2.23 2.804185pr1000
************************************************************
Dead Time -------------------------  3E-08 
Number of Cycles Used -------------  4 
Starting Wavelength (Angstroms) ---  2950 
Final Wavelength (Angstoms) -------  2984 
Wavelength Increment (Angstroms) --  .25 
Filter Wheel #1 Position ---------- (1) Ground quartz diffuser (ND=2.32)
Filter Wheel #2 Position ---------- (1) Neutral Density 0.494



************************************************************
HS scan start time = 01:33:31
Dark Count =  7.3 


Time (GMT)  Wavelength (Ang)  Step Number  Raw Counts  Counts/Second

   93.89        2950.00           1222          59.00       225.37
   93.96        2950.25           1226          56.00       212.29
   93.99        2950.50           1229          55.00       207.94
   94.02        2950.75           1232          54.00       203.58
   94.05        2951.00           1236          54.00       203.58
   94.09        2951.25           1239          53.00       199.22
   94.12        2951.50           1242          56.00       212.29
   94.15        2951.75           1246          53.00       199.22
   94.18        2952.00           1249          64.00       247.17
   94.21        2952.25           1252          54.00       203.58
   94.24        2952.50           1256          49.00       181.78
   94.27        2952.75           1259          54.00       203.58
   94.30        2953.00           1262          55.00       207.94
   94.33        2953.25           1266          60.00       229.73
   94.36        2953.50           1269          53.00       199.22
   94.39        2953.75           1272          54.00       203.58
   94.43        2954.00           1276          64.00       247.17
   94.46        2954.25           1279          49.00       181.78
   94.49        2954.50           1282          49.00       181.78
   94.52        2954.75           1286          56.00       212.29
   94.55        2955.00           1289          59.00       225.37
   94.58        2955.25           1292          54.00       203.58
   94.61        2955.50           1296          60.00       229.73
   94.64        2955.75           1299          53.00       199.22
   94.67        2956.00           1302          54.00       203.58
   94.70        2956.25           1306          64.00       247.17
   94.74        2956.50           1309          52.00       194.86
   94.77        2956.75           1312          46.00       168.70
   94.80        2957.00           1316          46.00       168.70
   94.83        2957.25           1319          53.00       199.22
   94.86        2957.50           1322          53.00       199.22
   94.89        2957.75           1326          57.00       216.65
   94.92        2958.00           1329          60.00       229.73
   94.95        2958.25           1332          58.00       221.01
   94.98        2958.50           1336          62.00       238.45
   95.02        2958.75           1339          56.00       212.29
   95.05        2959.00           1342          59.00       225.37
   95.08        2959.25           1346          55.00       207.94
   95.11        2959.50           1349          59.00       225.37
   95.14        2959.75           1352          88.00       351.79
   95.17        2960.00           1356         105.00       425.90
   95.20        2960.25           1359         129.00       530.52
   95.23        2960.50           1362         148.00       613.35
   95.26        2960.75           1366         186.00       779.01
   95.29        2961.00           1369         227.00       957.74
   95.32        2961.25           1372         262.00      1110.32
   95.36        2961.50           1376         312.00      1328.30
   95.39        2961.75           1379         405.00      1733.74
   95.42        2962.00           1382         760.00      3281.49
   95.45        2962.25           1386        1949.00      8466.41
   95.48        2962.50           1389        3151.00     13709.65
   95.51        2962.75           1392        4254.00     18522.50
   95.54        2963.00           1396        5799.00     25266.31
   95.57        2963.25           1399        6994.00     30484.28
   95.60        2963.50           1402        8269.00     36053.36
   95.64        2963.75           1406        9844.00     42935.39
   95.67        2964.00           1409       11176.00     48757.84
   95.70        2964.25           1412       12629.00     55111.54
   95.73        2964.50           1416       14416.00     62929.07
   95.76        2964.75           1419       15749.00     68762.90
   95.79        2965.00           1422       16788.00     73311.46
   95.82        2965.25           1426       18365.00     80217.66
   95.85        2965.50           1429       19892.00     86907.64
   95.88        2965.75           1432       21015.00     91829.34
   95.92        2966.00           1436       22611.00     98826.56
   95.95        2966.25           1439       23910.00    104523.90
   95.98        2966.50           1442       24837.00    108590.80
   96.01        2966.75           1446       26091.00    114093.90
   96.04        2967.00           1449       26514.00    115950.60
   96.07        2967.25           1452       26666.00    116617.80
   96.10        2967.50           1456       26604.00    116345.70
   96.13        2967.75           1459       26637.00    116490.50
   96.16        2968.00           1462       26635.00    116481.70
   96.20        2968.25           1466       25976.00    113589.10
   96.23        2968.50           1469       25050.00    109525.40
   96.26        2968.75           1472       23992.00    104883.60
   96.29        2969.00           1476       22277.00     97362.00
   96.32        2969.25           1479       21095.00     92180.02
   96.35        2969.50           1482       19851.00     86727.98
   96.38        2969.75           1486       18287.00     79876.01
   96.41        2970.00           1489       16970.00     74108.35
   96.45        2970.25           1492       15763.00     68824.18
   96.48        2970.50           1496       14248.00     62193.97
   96.51        2970.75           1499       13058.00     56987.94
   96.54        2971.00           1502       11907.00     51954.07
   96.57        2971.25           1506       10207.00     44521.94
   96.60        2971.50           1509        8878.00     38714.08
   96.63        2971.75           1513        7322.00     31916.77
   96.66        2972.00           1516        6107.00     26611.04
   96.69        2972.25           1519        4876.00     21237.16
   96.73        2972.50           1523        3360.00     14621.49
   96.76        2972.75           1526        2193.00      9530.62
   96.79        2973.00           1529        1061.00      4593.92
   96.82        2973.25           1533         420.00      1799.14
   96.85        2973.50           1536         268.00      1136.48
   96.88        2973.75           1539         230.00       970.82
   96.91        2974.00           1543         189.00       792.09
   96.94        2974.25           1546         143.00       591.55
   96.97        2974.50           1549         111.00       452.05
   97.00        2974.75           1553          76.00       299.48
   97.04        2975.00           1556          75.00       295.12
   97.07        2975.25           1559          54.00       203.58
   97.10        2975.50           1563          55.00       207.94
   97.13        2975.75           1566          55.00       207.94
   97.16        2976.00           1569          54.00       203.58
   97.19        2976.25           1573          51.00       190.50
   97.22        2976.50           1576          59.00       225.37
   97.25        2976.75           1579          53.00       199.22
   97.28        2977.00           1583          46.00       168.70
   97.32        2977.25           1586          51.00       190.50
   97.35        2977.50           1590          53.00       199.22
   97.38        2977.75           1593          60.00       229.73
   97.41        2978.00           1596          53.00       199.22
   97.44        2978.25           1600          44.00       159.98
   97.47        2978.50           1603          54.00       203.58
   97.50        2978.75           1606          52.00       194.86
   97.53        2979.00           1610          55.00       207.94
   97.56        2979.25           1613          46.00       168.70
   97.59        2979.50           1616          43.00       155.62
   97.62        2979.75           1620          48.00       177.42
   97.65        2980.00           1623          51.00       190.50
   97.68        2980.25           1626          51.00       190.50
   97.72        2980.50           1630          54.00       203.58
   97.75        2980.75           1633          54.00       203.58
   97.78        2981.00           1637          52.00       194.86
   97.81        2981.25           1640          57.00       216.65
   97.84        2981.50           1643          49.00       181.78
   97.87        2981.75           1647          55.00       207.94
   97.90        2982.00           1650          46.00       168.70
   97.93        2982.25           1653          50.00       186.14
   97.96        2982.50           1657          55.00       207.94
   97.99        2982.75           1660          58.00       221.01
   98.03        2983.00           1663          54.00       203.58
   98.06        2983.25           1667          51.00       190.50
   98.09        2983.50           1670          46.00       168.70
   98.12        2983.75           1673          47.00       173.06
   98.15        2984.00           1677          49.00       181.78
HS scan finished at 01:38:22
end
************************************************************
  HS Scan of (1) Internal mercury lamp
************************************************************
Integration time is 0.2294 seconds per sample
dh130419Manchester 53.47 2.23 2.804185pr1000
************************************************************
Dead Time -------------------------  3E-08 
Number of Cycles Used -------------  4 
Starting Wavelength (Angstroms) ---  2950 
Final Wavelength (Angstoms) -------  2984 
Wavelength Increment (Angstroms) --  .25 
Filter Wheel #1 Position ---------- (1) Ground quartz diffuser (ND=2.32)
Filter Wheel #2 Position ---------- (1) Neutral Density 0.494



************************************************************
HS scan start time = 20:12:10
Dark Count =  5.9 


Time (GMT)  Wavelength (Ang)  Step Number  Raw Counts  Counts/Second

 1212.54        2950.00           1222          52.00       200.96
 1212.61        2950.25           1226          52.00       200.96
 1212.64        2950.50           1229          57.00       222.76
 1212.67        2950.75           1232          57.00       222.76
 1212.70        2951.00           1236          54.00       209.68
 1212.73        2951.25           1239          58.00       227.12
 1212.76        2951.50           1242          62.00       244.55
 1212.80        2951.75           1246          49.00       187.88
 1212.83        2952.00           1249          56.00       218.40
 1212.86        2952.25           1252          55.00       214.04
 1212.89        2952.50           1256          63.00       248.91
 1212.92        2952.75           1259          54.00       209.68
 1212.95        2953.00           1262          57.00       222.76
 1212.98        2953.25           1266          63.00       248.91
 1213.01        2953.50           1269          57.00       222.76
 1213.04        2953.75           1272          51.00       196.60
 1213.07        2954.00           1276          56.00       218.40
 1213.10        2954.25           1279          63.00       248.91
 1213.13        2954.50           1282          54.00       209.68
 1213.16        2954.75           1286          60.00       235.83
 1213.20        2955.00           1289          60.00       235.83
 1213.23        2955.25           1292          56.00       218.40
 1213.26        2955.50           1296          48.00       183.52
 1213.29        2955.75           1299          57.00       222.76
 1213.32        2956.00           1302          55.00       214.04
 1213.35        2956.25           1306          49.00       187.88
 1213.38        2956.50           1309          63.00       248.91
 1213.41        2956.75           1312          48.00       183.52
 1213.44        2957.00           1316          61.00       240.19
 1213.48        2957.25           1319          54.00       209.68
 1213.51        2957.50           1322          57.00       222.76
 1213.54        2957.75           1326          53.00       205.32
 1213.57        2958.00           1329          55.00       214.04
 1213.60        2958.25           1332          60.00       235.83
 1213.63        2958.50           1336          58.00       227.12
 1213.66        2958.75           1339          57.00       222.76
 1213.69        2959.00           1342          59.00       231.48
 1213.72        2959.25           1346          59.00       231.48
 1213.75        2959.50           1349          64.00       253.27
 1213.79        2959.75           1352          70.00       279.43
 1213.82        2960.00           1356          98.00       401.49
 1213.85        2960.25           1359         106.00       436.36
 1213.88        2960.50           1362         128.00       532.27
 1213.91        2960.75           1366         181.00       763.31
 1213.94        2961.00           1369         207.00       876.66
 1213.97        2961.25           1372         249.00      1059.75
 1214.00        2961.50           1376         300.00      1282.09
 1214.03        2961.75           1379         374.00      1604.70
 1214.06        2962.00           1382         753.00      3257.08
 1214.09        2962.25           1386        1991.00      8655.69
 1214.12        2962.50           1389        3222.00     14025.52
 1214.16        2962.75           1392        4465.00     19449.45
 1214.19        2963.00           1396        6013.00     26206.74
 1214.22        2963.25           1399        7332.00     31966.57
 1214.25        2963.50           1402        8480.00     36981.29
 1214.28        2963.75           1406       10318.00     45013.23
 1214.31        2964.00           1409       11393.00     49712.71
 1214.34        2964.25           1412       12667.00     55283.86
 1214.37        2964.50           1416       14354.00     62663.90
 1214.41        2964.75           1419       15514.00     67740.40
 1214.44        2965.00           1422       16798.00     73361.36
 1214.47        2965.25           1426       18483.00     80740.68
 1214.50        2965.50           1429       19530.00     85327.56
 1214.53        2965.75           1432       20834.00     91042.13
 1214.56        2966.00           1436       22638.00     98951.11
 1214.59        2966.25           1439       23852.00    104275.60
 1214.62        2966.50           1442       25031.00    109448.20
 1214.65        2966.75           1446       26235.00    114732.10
 1214.69        2967.00           1449       26753.00    117005.90
 1214.72        2967.25           1452       26709.00    116812.70
 1214.75        2967.50           1456       26633.00    116479.10
 1214.78        2967.75           1459       26603.00    116347.40
 1214.81        2968.00           1462       26741.00    116953.20
 1214.84        2968.25           1466       26064.00    113981.50
 1214.87        2968.50           1469       25133.00    109895.70
 1214.90        2968.75           1472       23982.00    104845.80
 1214.93        2969.00           1476       22112.00     96644.68
 1214.97        2969.25           1479       21062.00     92041.51
 1215.00        2969.50           1482       19667.00     85927.84
 1215.03        2969.75           1486       18156.00     79308.35
 1215.06        2970.00           1489       16857.00     73619.70
 1215.09        2970.25           1492       15670.00     68423.22
 1215.12        2970.50           1496       14164.00     61832.55
 1215.15        2970.75           1499       13012.00     56792.85
 1215.18        2971.00           1502       11819.00     51575.38
 1215.21        2971.25           1506       10092.00     44025.42
 1215.25        2971.50           1509        8722.00     38038.59
 1215.28        2971.75           1513        7185.00     31324.54
 1215.31        2972.00           1516        5862.00     25547.48
 1215.34        2972.25           1519        4673.00     20357.24
 1215.37        2972.50           1523        3018.00     13135.52
 1215.40        2972.75           1526        1901.00      8263.16
 1215.43        2973.00           1529         894.00      3871.85
 1215.46        2973.25           1533         359.00      1539.30
 1215.49        2973.50           1536         275.00      1173.10
 1215.53        2973.75           1539         233.00       990.00
 1215.56        2974.00           1543         202.00       854.86
 1215.59        2974.25           1546         139.00       580.22
 1215.62        2974.50           1549         118.00       488.67
 1215.65        2974.75           1553          83.00       336.10
 1215.68        2975.00           1556          63.00       248.91
 1215.71        2975.25           1559          56.00       218.40
 1215.74        2975.50           1563          52.00       200.96
 1215.77        2975.75           1566          47.00       179.16
 1215.80        2976.00           1569          48.00       183.52
 1215.84        2976.25           1573          53.00       205.32
 1215.87        2976.50           1576          48.00       183.52
 1215.90        2976.75           1579          55.00       214.04
 1215.93        2977.00           1583          51.00       196.60
 1215.96        2977.25           1586          60.00       235.83
 1215.99        2977.50           1590          48.00       183.52
 1216.02        2977.75           1593          55.00       214.04
 1216.05        2978.00           1596          59.00       231.48
 1216.08        2978.25           1600          51.00       196.60
 1216.12        2978.50           1603          57.00       222.76
 1216.15        2978.75           1606          46.00       174.80
 1216.18        2979.00           1610          51.00       196.60
 1216.21        2979.25           1613          53.00       205.32
 1216.24        2979.50           1616          52.00       200.96
 1216.27        2979.75           1620          47.00       179.16
 1216.30        2980.00           1623          48.00       183.52
 1216.33        2980.25           1626          47.00       179.16
 1216.36        2980.50           1630          49.00       187.88
 1216.40        2980.75           1633          49.00       187.88
 1216.43        2981.00           1637          52.00       200.96
 1216.46        2981.25           1640          48.00       183.52
 1216.49        2981.50           1643          51.00       196.60
 1216.52        2981.75           1647          49.00       187.88
 1216.55        2982.00           1650          50.00       192.24
 1216.58        2982.25           1653          44.00       166.09
 1216.61        2982.50           1657          55.00       214.04
 1216.64        2982.75           1660          46.00       174.80
 1216.67        2983.00           1663          50.00       192.24
 1216.71        2983.25           1667          45.00       170.45
 1216.74        2983.50           1670          51.00       196.60
 1216.77        2983.75           1673          46.00       174.80
 1216.80        2984.00           1677          47.00       179.16
HS scan finished at 20:17:01
end
