************************************************************
  HS Scan of (1) Internal mercury lamp
************************************************************
Integration time is 0.2294 seconds per sample
dh100418Manchester 53.47 2.23 2.804185pr1000
************************************************************
Dead Time -------------------------  3E-08 
Number of Cycles Used -------------  4 
Starting Wavelength (Angstroms) ---  2950 
Final Wavelength (Angstoms) -------  2984 
Wavelength Increment (Angstroms) --  .25 
Filter Wheel #1 Position ---------- (1) Ground quartz diffuser (ND=2.32)
Filter Wheel #2 Position ---------- (1) Neutral Density 0.494



************************************************************
HS scan start time = 01:38:33
Dark Count =  6.6 


Time (GMT)  Wavelength (Ang)  Step Number  Raw Counts  Counts/Second

   98.92        2950.00           1222          57.00       219.71
   98.99        2950.25           1226          56.00       215.35
   99.02        2950.50           1229          60.00       232.78
   99.05        2950.75           1232          52.00       197.91
   99.08        2951.00           1236          56.00       215.35
   99.11        2951.25           1239          57.00       219.71
   99.14        2951.50           1242          58.00       224.06
   99.17        2951.75           1246          53.00       202.27
   99.20        2952.00           1249          65.00       254.58
   99.23        2952.25           1252          65.00       254.58
   99.27        2952.50           1256          58.00       224.06
   99.30        2952.75           1259          53.00       202.27
   99.33        2953.00           1262          60.00       232.78
   99.36        2953.25           1266          50.00       189.19
   99.39        2953.50           1269          57.00       219.71
   99.42        2953.75           1272          59.00       228.42
   99.45        2954.00           1276          54.00       206.63
   99.48        2954.25           1279          52.00       197.91
   99.51        2954.50           1282          55.00       210.99
   99.54        2954.75           1286          59.00       228.42
   99.57        2955.00           1289          59.00       228.42
   99.61        2955.25           1292          57.00       219.71
   99.64        2955.50           1296          63.00       245.86
   99.67        2955.75           1299          54.00       206.63
   99.70        2956.00           1302          59.00       228.42
   99.73        2956.25           1306          64.00       250.22
   99.76        2956.50           1309          56.00       215.35
   99.79        2956.75           1312          55.00       210.99
   99.82        2957.00           1316          54.00       206.63
   99.85        2957.25           1319          62.00       241.50
   99.88        2957.50           1322          63.00       245.86
   99.91        2957.75           1326          63.00       245.86
   99.95        2958.00           1329          58.00       224.06
   99.98        2958.25           1332          55.00       210.99
  100.01        2958.50           1336          66.00       258.94
  100.04        2958.75           1339          54.00       206.63
  100.07        2959.00           1342          69.00       272.02
  100.10        2959.25           1346          61.00       237.14
  100.13        2959.50           1349          61.00       237.14
  100.16        2959.75           1352          69.00       272.02
  100.19        2960.00           1356          94.00       381.00
  100.22        2960.25           1359         115.00       472.54
  100.26        2960.50           1362         148.00       616.40
  100.29        2960.75           1366         188.00       790.78
  100.32        2961.00           1369         220.00       930.28
  100.35        2961.25           1372         267.00      1135.17
  100.38        2961.50           1376         354.00      1514.45
  100.41        2961.75           1379         554.00      2386.40
  100.44        2962.00           1382        1288.00      5586.81
  100.47        2962.25           1386        2947.00     12822.72
  100.50        2962.50           1389        4267.00     18582.29
  100.53        2962.75           1392        5912.00     25762.71
  100.56        2963.00           1396        7675.00     33461.65
  100.60        2963.25           1399        9071.00     39560.44
  100.63        2963.50           1402       10717.00     46754.29
  100.66        2963.75           1406       13123.00     57275.32
  100.69        2964.00           1409       14415.00     62927.76
  100.72        2964.25           1412       16035.00     70017.90
  100.75        2964.50           1416       17929.00     78311.06
  100.78        2964.75           1419       19375.00     84645.37
  100.81        2965.00           1422       20754.00     90688.42
  100.84        2965.25           1426       22992.00    100500.50
  100.87        2965.50           1429       24224.00    105904.40
  100.90        2965.75           1432       25786.00    112758.30
  100.94        2966.00           1436       27686.00    121099.10
  100.97        2966.25           1439       29202.00    127757.30
  101.00        2966.50           1442       30662.00    134171.90
  101.03        2966.75           1446       31861.00    139441.70
  101.06        2967.00           1449       31911.00    139661.50
  101.09        2967.25           1452       32142.00    140677.00
  101.12        2967.50           1456       31966.00    139903.30
  101.15        2967.75           1459       32042.00    140237.40
  101.18        2968.00           1462       31896.00    139595.60
  101.21        2968.25           1466       30867.00    135072.80
  101.25        2968.50           1469       29439.00    128798.40
  101.28        2968.75           1472       28078.00    122820.50
  101.31        2969.00           1476       26255.00    114816.80
  101.34        2969.25           1479       24796.00    108414.00
  101.37        2969.50           1482       23163.00    101250.40
  101.40        2969.75           1486       21123.00     92305.83
  101.43        2970.00           1489       19919.00     87029.02
  101.46        2970.25           1492       18252.00     79725.78
  101.50        2970.50           1496       16416.00     71685.83
  101.53        2970.75           1499       15053.00     65719.69
  101.56        2971.00           1502       13504.00     58941.97
  101.59        2971.25           1506       11623.00     50715.30
  101.62        2971.50           1509        9999.00     43615.89
  101.65        2971.75           1513        8155.00     35558.40
  101.68        2972.00           1516        6809.00     29679.42
  101.71        2972.25           1519        5385.00     23462.02
  101.74        2972.50           1523        3308.00     14397.67
  101.77        2972.75           1526        1932.00      8395.31
  101.80        2973.00           1529         898.00      3886.24
  101.84        2973.25           1533         441.00      1893.74
  101.87        2973.50           1536         345.00      1475.22
  101.90        2973.75           1539         281.00      1196.21
  101.93        2974.00           1543         260.00      1104.66
  101.96        2974.25           1546         193.00       812.57
  101.99        2974.50           1549         160.00       668.71
  102.02        2974.75           1553         113.00       463.83
  102.05        2975.00           1556          91.00       367.92
  102.08        2975.25           1559          79.00       315.61
  102.11        2975.50           1563          62.00       241.50
  102.14        2975.75           1566          57.00       219.71
  102.17        2976.00           1569          56.00       215.35
  102.20        2976.25           1573          57.00       219.71
  102.24        2976.50           1576          62.00       241.50
  102.27        2976.75           1579          59.00       228.42
  102.30        2977.00           1583          57.00       219.71
  102.33        2977.25           1586          55.00       210.99
  102.36        2977.50           1590          49.00       184.83
  102.39        2977.75           1593          56.00       215.35
  102.42        2978.00           1596          52.00       197.91
  102.45        2978.25           1600          55.00       210.99
  102.48        2978.50           1603          60.00       232.78
  102.51        2978.75           1606          58.00       224.06
  102.55        2979.00           1610          62.00       241.50
  102.58        2979.25           1613          58.00       224.06
  102.61        2979.50           1616          55.00       210.99
  102.64        2979.75           1620          50.00       189.19
  102.67        2980.00           1623          58.00       224.06
  102.70        2980.25           1626          53.00       202.27
  102.73        2980.50           1630          65.00       254.58
  102.76        2980.75           1633          49.00       184.83
  102.79        2981.00           1637          55.00       210.99
  102.82        2981.25           1640          54.00       206.63
  102.85        2981.50           1643          58.00       224.06
  102.88        2981.75           1647          44.00       163.03
  102.91        2982.00           1650          52.00       197.91
  102.94        2982.25           1653          53.00       202.27
  102.98        2982.50           1657          61.00       237.14
  103.01        2982.75           1660          54.00       206.63
  103.04        2983.00           1663          56.00       215.35
  103.07        2983.25           1667          52.00       197.91
  103.10        2983.50           1670          56.00       215.35
  103.13        2983.75           1673          51.00       193.55
  103.16        2984.00           1677          44.00       163.03
HS scan finished at 01:43:23
end
************************************************************
  HS Scan of (1) Internal mercury lamp
************************************************************
Integration time is 0.2294 seconds per sample
dh100418Manchester 53.47 2.23 2.804185pr1000
************************************************************
Dead Time -------------------------  3E-08 
Number of Cycles Used -------------  4 
Starting Wavelength (Angstroms) ---  2950 
Final Wavelength (Angstoms) -------  2984 
Wavelength Increment (Angstroms) --  .25 
Filter Wheel #1 Position ---------- (1) Ground quartz diffuser (ND=2.32)
Filter Wheel #2 Position ---------- (1) Neutral Density 0.494



************************************************************
HS scan start time = 20:11:59
Dark Count =  6.3 


Time (GMT)  Wavelength (Ang)  Step Number  Raw Counts  Counts/Second

 1212.36        2950.00           1222          59.00       229.73
 1212.42        2950.25           1226          64.00       251.53
 1212.45        2950.50           1229          61.00       238.45
 1212.48        2950.75           1232          59.00       229.73
 1212.52        2951.00           1236          65.00       255.89
 1212.55        2951.25           1239          60.00       234.09
 1212.58        2951.50           1242          53.00       203.58
 1212.61        2951.75           1246          55.00       212.29
 1212.64        2952.00           1249          52.00       199.22
 1212.67        2952.25           1252          68.00       268.96
 1212.70        2952.50           1256          61.00       238.45
 1212.73        2952.75           1259          60.00       234.09
 1212.76        2953.00           1262          63.00       247.17
 1212.79        2953.25           1266          57.00       221.01
 1212.82        2953.50           1269          61.00       238.45
 1212.85        2953.75           1272          60.00       234.09
 1212.88        2954.00           1276          60.00       234.09
 1212.91        2954.25           1279          71.00       282.04
 1212.94        2954.50           1282          54.00       207.94
 1212.97        2954.75           1286          59.00       229.73
 1213.00        2955.00           1289          62.00       242.81
 1213.03        2955.25           1292          55.00       212.29
 1213.07        2955.50           1296          65.00       255.89
 1213.10        2955.75           1299          60.00       234.09
 1213.13        2956.00           1302          59.00       229.73
 1213.16        2956.25           1306          53.00       203.58
 1213.19        2956.50           1309          56.00       216.65
 1213.22        2956.75           1312          58.00       225.37
 1213.25        2957.00           1316          64.00       251.53
 1213.28        2957.25           1319          54.00       207.94
 1213.31        2957.50           1322          65.00       255.89
 1213.34        2957.75           1326          58.00       225.37
 1213.38        2958.00           1329          57.00       221.01
 1213.41        2958.25           1332          60.00       234.09
 1213.44        2958.50           1336          56.00       216.65
 1213.47        2958.75           1339          55.00       212.29
 1213.50        2959.00           1342          59.00       229.73
 1213.53        2959.25           1346          65.00       255.89
 1213.56        2959.50           1349          71.00       282.04
 1213.59        2959.75           1352          75.00       299.48
 1213.62        2960.00           1356         116.00       478.21
 1213.65        2960.25           1359         142.00       591.55
 1213.68        2960.50           1362         162.00       678.74
 1213.71        2960.75           1366         219.00       927.23
 1213.74        2961.00           1369         245.00      1040.57
 1213.78        2961.25           1372         302.00      1289.06
 1213.81        2961.50           1376         373.00      1598.59
 1213.84        2961.75           1379         548.00      2361.55
 1213.87        2962.00           1382        1170.00      5073.57
 1213.90        2962.25           1386        2733.00     11890.47
 1213.93        2962.50           1389        4127.00     17972.64
 1213.96        2962.75           1392        5439.00     23699.06
 1213.99        2963.00           1396        7436.00     32419.05
 1214.02        2963.25           1399        9125.00     39797.70
 1214.05        2963.50           1402       10513.00     45863.85
 1214.09        2963.75           1406       12452.00     54341.80
 1214.12        2964.00           1409       14034.00     61262.01
 1214.15        2964.25           1412       15527.00     67795.56
 1214.18        2964.50           1416       17409.00     76035.06
 1214.21        2964.75           1419       18954.00     82802.21
 1214.24        2965.00           1422       20285.00     88634.24
 1214.27        2965.25           1426       22467.00     98199.50
 1214.30        2965.50           1429       24090.00    105317.90
 1214.33        2965.75           1432       25522.00    111601.00
 1214.36        2966.00           1436       27785.00    121535.20
 1214.39        2966.25           1439       28924.00    126537.40
 1214.43        2966.50           1442       30454.00    133259.20
 1214.46        2966.75           1446       31619.00    138379.30
 1214.49        2967.00           1449       31860.00    139438.60
 1214.52        2967.25           1452       31972.00    139931.00
 1214.55        2967.50           1456       32048.00    140265.10
 1214.58        2967.75           1459       31963.00    139891.40
 1214.61        2968.00           1462       31700.00    138735.40
 1214.64        2968.25           1466       30811.00    134828.00
 1214.67        2968.50           1469       29540.00    129243.40
 1214.70        2968.75           1472       28121.00    123010.70
 1214.74        2969.00           1476       26027.00    113817.40
 1214.77        2969.25           1479       24713.00    108051.10
 1214.80        2969.50           1482       23294.00    101826.30
 1214.83        2969.75           1486       21224.00     92749.88
 1214.86        2970.00           1489       19680.00     85983.05
 1214.89        2970.25           1492       18320.00     80024.93
 1214.92        2970.50           1496       16498.00     72046.15
 1214.95        2970.75           1499       15161.00     66193.66
 1214.98        2971.00           1502       13541.00     59105.15
 1215.01        2971.25           1506       11676.00     50948.35
 1215.05        2971.50           1509       10136.00     44215.98
 1215.08        2971.75           1513        8154.00     35555.35
 1215.11        2972.00           1516        6571.00     28641.43
 1215.14        2972.25           1519        5098.00     22210.52
 1215.17        2972.50           1523        3222.00     14023.77
 1215.20        2972.75           1526        1937.00      8418.43
 1215.23        2973.00           1529         827.00      3577.98
 1215.26        2973.25           1533         400.00      1716.30
 1215.29        2973.50           1536         309.00      1319.58
 1215.32        2973.75           1539         256.00      1088.53
 1215.35        2974.00           1543         233.00       988.26
 1215.38        2974.25           1546         165.00       691.82
 1215.41        2974.50           1549         132.00       547.96
 1215.44        2974.75           1553          99.00       404.10
 1215.48        2975.00           1556          73.00       290.76
 1215.51        2975.25           1559          63.00       247.17
 1215.54        2975.50           1563          57.00       221.01
 1215.57        2975.75           1566          51.00       194.86
 1215.60        2976.00           1569          51.00       194.86
 1215.63        2976.25           1573          58.00       225.37
 1215.66        2976.50           1576          71.00       282.04
 1215.69        2976.75           1579          60.00       234.09
 1215.72        2977.00           1583          53.00       203.58
 1215.75        2977.25           1586          58.00       225.37
 1215.78        2977.50           1590          67.00       264.61
 1215.81        2977.75           1593          55.00       212.29
 1215.84        2978.00           1596          55.00       212.29
 1215.88        2978.25           1600          59.00       229.73
 1215.91        2978.50           1603          54.00       207.94
 1215.94        2978.75           1606          52.00       199.22
 1215.97        2979.00           1610          63.00       247.17
 1216.00        2979.25           1613          58.00       225.37
 1216.03        2979.50           1616          54.00       207.94
 1216.06        2979.75           1620          55.00       212.29
 1216.09        2980.00           1623          55.00       212.29
 1216.12        2980.25           1626          49.00       186.14
 1216.15        2980.50           1630          56.00       216.65
 1216.18        2980.75           1633          54.00       207.94
 1216.22        2981.00           1637          53.00       203.58
 1216.25        2981.25           1640          49.00       186.14
 1216.28        2981.50           1643          54.00       207.94
 1216.31        2981.75           1647          53.00       203.58
 1216.34        2982.00           1650          58.00       225.37
 1216.37        2982.25           1653          49.00       186.14
 1216.40        2982.50           1657          54.00       207.94
 1216.43        2982.75           1660          52.00       199.22
 1216.46        2983.00           1663          59.00       229.73
 1216.49        2983.25           1667          49.00       186.14
 1216.52        2983.50           1670          50.00       190.50
 1216.55        2983.75           1673          51.00       194.86
 1216.58        2984.00           1677          52.00       199.22
HS scan finished at 20:16:48
end
