************************************************************
  HS Scan of (1) Internal mercury lamp
************************************************************
Integration time is 0.2294 seconds per sample
dh150419Manchester 53.47 2.23 2.804185pr1000
************************************************************
Dead Time -------------------------  3E-08 
Number of Cycles Used -------------  4 
Starting Wavelength (Angstroms) ---  2950 
Final Wavelength (Angstoms) -------  2984 
Wavelength Increment (Angstroms) --  .25 
Filter Wheel #1 Position ---------- (1) Ground quartz diffuser (ND=2.32)
Filter Wheel #2 Position ---------- (1) Neutral Density 0.494



************************************************************
HS scan start time = 01:25:49
Dark Count =  5.5 


Time (GMT)  Wavelength (Ang)  Step Number  Raw Counts  Counts/Second

   86.19        2950.00           1222          54.00       211.42
   86.26        2950.25           1226          54.00       211.42
   86.29        2950.50           1229          53.00       207.06
   86.32        2950.75           1232          61.00       241.94
   86.35        2951.00           1236          62.00       246.30
   86.38        2951.25           1239          54.00       211.42
   86.41        2951.50           1242          52.00       202.70
   86.44        2951.75           1246          54.00       211.42
   86.48        2952.00           1249          54.00       211.42
   86.51        2952.25           1252          59.00       233.22
   86.54        2952.50           1256          63.00       250.66
   86.57        2952.75           1259          55.00       215.78
   86.60        2953.00           1262          53.00       207.06
   86.63        2953.25           1266          51.00       198.34
   86.66        2953.50           1269          56.00       220.14
   86.69        2953.75           1272          51.00       198.34
   86.72        2954.00           1276          48.00       185.27
   86.75        2954.25           1279          59.00       233.22
   86.78        2954.50           1282          49.00       189.63
   86.82        2954.75           1286          59.00       233.22
   86.85        2955.00           1289          55.00       215.78
   86.88        2955.25           1292          54.00       211.42
   86.91        2955.50           1296          56.00       220.14
   86.94        2955.75           1299          61.00       241.94
   86.97        2956.00           1302          57.00       224.50
   87.00        2956.25           1306          51.00       198.34
   87.03        2956.50           1309          53.00       207.06
   87.06        2956.75           1312          55.00       215.78
   87.09        2957.00           1316          52.00       202.70
   87.12        2957.25           1319          63.00       250.66
   87.15        2957.50           1322          58.00       228.86
   87.19        2957.75           1326          56.00       220.14
   87.22        2958.00           1329          49.00       189.63
   87.25        2958.25           1332          56.00       220.14
   87.28        2958.50           1336          51.00       198.34
   87.31        2958.75           1339          58.00       228.86
   87.34        2959.00           1342          51.00       198.34
   87.37        2959.25           1346          57.00       224.50
   87.40        2959.50           1349          62.00       246.30
   87.43        2959.75           1352          71.00       285.53
   87.46        2960.00           1356          89.00       364.00
   87.49        2960.25           1359         109.00       451.18
   87.53        2960.50           1362         142.00       595.04
   87.56        2960.75           1366         188.00       795.57
   87.59        2961.00           1369         220.00       935.07
   87.62        2961.25           1372         259.00      1105.09
   87.65        2961.50           1376         328.00      1405.90
   87.68        2961.75           1379         485.00      2090.37
   87.71        2962.00           1382        1207.00      5238.40
   87.74        2962.25           1386        2703.00     11763.09
   87.77        2962.50           1389        3816.00     16619.01
   87.81        2962.75           1392        5077.00     22122.35
   87.84        2963.00           1396        6717.00     29282.47
   87.87        2963.25           1399        7894.00     34423.06
   87.90        2963.50           1402        9027.00     39372.98
   87.93        2963.75           1406       10951.00     47782.05
   87.96        2964.00           1409       11970.00     52237.42
   87.99        2964.25           1412       13423.00     58592.44
   88.02        2964.50           1416       15192.00     66332.83
   88.05        2964.75           1419       16359.00     71441.10
   88.08        2965.00           1422       17643.00     77063.31
   88.12        2965.25           1426       19428.00     84882.41
   88.15        2965.50           1429       20518.00     89658.89
   88.18        2965.75           1432       21802.00     95287.26
   88.21        2966.00           1436       23153.00    101211.40
   88.24        2966.25           1439       24295.00    106220.70
   88.27        2966.50           1442       25656.00    112192.60
   88.30        2966.75           1446       26598.00    116327.20
   88.33        2967.00           1449       26758.00    117029.60
   88.36        2967.25           1452       26850.00    117433.50
   88.40        2967.50           1456       26941.00    117833.00
   88.43        2967.75           1459       26750.00    116994.50
   88.46        2968.00           1462       26598.00    116327.20
   88.49        2968.25           1466       25554.00    111745.00
   88.52        2968.50           1469       24464.00    106962.10
   88.55        2968.75           1472       23314.00    101917.50
   88.58        2969.00           1476       21682.00     94761.16
   88.61        2969.25           1479       20564.00     89860.49
   88.64        2969.50           1482       19138.00     83611.83
   88.68        2969.75           1486       17619.00     76958.21
   88.71        2970.00           1489       16384.00     71550.55
   88.74        2970.25           1492       15044.00     65685.10
   88.77        2970.50           1496       13472.00     58806.80
   88.80        2970.75           1499       12310.00     53724.28
   88.83        2971.00           1502       11064.00     48276.06
   88.86        2971.25           1506        9285.00     40500.36
   88.89        2971.50           1509        8052.00     35113.26
   88.92        2971.75           1513        6545.00     28531.39
   88.96        2972.00           1516        5214.00     22720.37
   88.99        2972.25           1519        4058.00     17675.02
   89.02        2972.50           1523        2507.00     10908.10
   89.05        2972.75           1526        1382.00      6001.52
   89.08        2973.00           1529         599.00      2587.38
   89.11        2973.25           1533         339.00      1453.86
   89.14        2973.50           1536         270.00      1153.05
   89.17        2973.75           1539         227.00       965.59
   89.20        2974.00           1543         196.00       830.45
   89.24        2974.25           1546         155.00       651.71
   89.27        2974.50           1549         132.00       551.45
   89.30        2974.75           1553          88.00       359.64
   89.33        2975.00           1556          67.00       268.09
   89.36        2975.25           1559          55.00       215.78
   89.39        2975.50           1563          54.00       211.42
   89.42        2975.75           1566          58.00       228.86
   89.45        2976.00           1569          57.00       224.50
   89.48        2976.25           1573          54.00       211.42
   89.52        2976.50           1576          55.00       215.78
   89.55        2976.75           1579          54.00       211.42
   89.58        2977.00           1583          49.00       189.63
   89.61        2977.25           1586          54.00       211.42
   89.64        2977.50           1590          51.00       198.34
   89.67        2977.75           1593          56.00       220.14
   89.70        2978.00           1596          48.00       185.27
   89.73        2978.25           1600          56.00       220.14
   89.76        2978.50           1603          46.00       176.55
   89.80        2978.75           1606          47.00       180.91
   89.83        2979.00           1610          57.00       224.50
   89.86        2979.25           1613          46.00       176.55
   89.89        2979.50           1616          53.00       207.06
   89.92        2979.75           1620          47.00       180.91
   89.95        2980.00           1623          50.00       193.99
   89.98        2980.25           1626          45.00       172.19
   90.01        2980.50           1630          52.00       202.70
   90.04        2980.75           1633          55.00       215.78
   90.07        2981.00           1637          53.00       207.06
   90.10        2981.25           1640          55.00       215.78
   90.14        2981.50           1643          48.00       185.27
   90.17        2981.75           1647          49.00       189.63
   90.20        2982.00           1650          51.00       198.34
   90.23        2982.25           1653          53.00       207.06
   90.26        2982.50           1657          51.00       198.34
   90.29        2982.75           1660          52.00       202.70
   90.32        2983.00           1663          54.00       211.42
   90.35        2983.25           1667          53.00       207.06
   90.38        2983.50           1670          53.00       207.06
   90.42        2983.75           1673          44.00       167.83
   90.45        2984.00           1677          45.00       172.19
HS scan finished at 01:30:40
end
************************************************************
  HS Scan of (1) Internal mercury lamp
************************************************************
Integration time is 0.2294 seconds per sample
dh150419Manchester 53.47 2.23 2.804185pr1000
************************************************************
Dead Time -------------------------  3E-08 
Number of Cycles Used -------------  4 
Starting Wavelength (Angstroms) ---  2950 
Final Wavelength (Angstoms) -------  2984 
Wavelength Increment (Angstroms) --  .25 
Filter Wheel #1 Position ---------- (1) Ground quartz diffuser (ND=2.32)
Filter Wheel #2 Position ---------- (1) Neutral Density 0.494



************************************************************
HS scan start time = 20:12:07
Dark Count =  8 


Time (GMT)  Wavelength (Ang)  Step Number  Raw Counts  Counts/Second

 1212.48        2950.00           1222          56.00       209.24
 1212.55        2950.25           1226          56.00       209.24
 1212.58        2950.50           1229          55.00       204.88
 1212.61        2950.75           1232          58.00       217.96
 1212.64        2951.00           1236          56.00       209.24
 1212.67        2951.25           1239          51.00       187.45
 1212.70        2951.50           1242          50.00       183.09
 1212.73        2951.75           1246          54.00       200.52
 1212.76        2952.00           1249          43.00       152.57
 1212.79        2952.25           1252          50.00       183.09
 1212.82        2952.50           1256          62.00       235.40
 1212.85        2952.75           1259          51.00       187.45
 1212.89        2953.00           1262          65.00       248.48
 1212.92        2953.25           1266          55.00       204.88
 1212.95        2953.50           1269          54.00       200.52
 1212.98        2953.75           1272          53.00       196.17
 1213.01        2954.00           1276          55.00       204.88
 1213.04        2954.25           1279          62.00       235.40
 1213.07        2954.50           1282          55.00       204.88
 1213.10        2954.75           1286          53.00       196.17
 1213.13        2955.00           1289          61.00       231.04
 1213.16        2955.25           1292          55.00       204.88
 1213.19        2955.50           1296          49.00       178.73
 1213.22        2955.75           1299          63.00       239.76
 1213.26        2956.00           1302          62.00       235.40
 1213.29        2956.25           1306          51.00       187.45
 1213.32        2956.50           1309          48.00       174.37
 1213.35        2956.75           1312          53.00       196.17
 1213.38        2957.00           1316          52.00       191.81
 1213.41        2957.25           1319          54.00       200.52
 1213.44        2957.50           1322          46.00       165.65
 1213.47        2957.75           1326          53.00       196.17
 1213.50        2958.00           1329          56.00       209.24
 1213.53        2958.25           1332          58.00       217.96
 1213.56        2958.50           1336          59.00       222.32
 1213.60        2958.75           1339          55.00       204.88
 1213.63        2959.00           1342          56.00       209.24
 1213.66        2959.25           1346          55.00       204.88
 1213.69        2959.50           1349          62.00       235.40
 1213.72        2959.75           1352          80.00       313.87
 1213.75        2960.00           1356         102.00       409.77
 1213.78        2960.25           1359         123.00       501.32
 1213.81        2960.50           1362         155.00       640.81
 1213.84        2960.75           1366         201.00       841.35
 1213.87        2961.00           1369         217.00       911.10
 1213.91        2961.25           1372         267.00      1129.07
 1213.94        2961.50           1376         333.00      1416.80
 1213.97        2961.75           1379         428.00      1830.96
 1214.00        2962.00           1382         874.00      3775.49
 1214.03        2962.25           1386        2273.00      9876.51
 1214.06        2962.50           1389        3513.00     15286.00
 1214.09        2962.75           1392        4670.00     20334.99
 1214.12        2963.00           1396        6305.00     27472.51
 1214.15        2963.25           1399        7540.00     32865.87
 1214.18        2963.50           1402        8872.00     38684.80
 1214.21        2963.75           1406       10580.00     46149.29
 1214.24        2964.00           1409       11793.00     51452.51
 1214.27        2964.25           1412       13015.00     56796.79
 1214.31        2964.50           1416       14762.00     64440.07
 1214.34        2964.75           1419       16048.00     70068.68
 1214.37        2965.00           1422       17146.00     74875.94
 1214.40        2965.25           1426       18828.00     82242.78
 1214.43        2965.50           1429       20114.00     87877.41
 1214.46        2965.75           1432       21313.00     93132.56
 1214.49        2966.00           1436       23056.00    100775.00
 1214.52        2966.25           1439       24225.00    105902.60
 1214.55        2966.50           1442       25433.00    111203.00
 1214.58        2966.75           1446       26514.00    115947.50
 1214.61        2967.00           1449       26856.00    117448.90
 1214.65        2967.25           1452       26828.00    117325.90
 1214.68        2967.50           1456       26780.00    117115.20
 1214.71        2967.75           1459       26842.00    117387.40
 1214.74        2968.00           1462       26741.00    116944.00
 1214.77        2968.25           1466       26058.00    113946.00
 1214.80        2968.50           1469       24959.00    109123.00
 1214.83        2968.75           1472       23781.00    103954.90
 1214.86        2969.00           1476       22203.00     97034.46
 1214.89        2969.25           1479       20662.00     90279.05
 1214.92        2969.50           1482       19587.00     85568.11
 1214.96        2969.75           1486       17767.00     77595.43
 1214.99        2970.00           1489       16656.00     72730.45
 1215.02        2970.25           1492       15392.00     67197.24
 1215.05        2970.50           1496       14052.00     61333.33
 1215.08        2970.75           1499       12655.00     55222.19
 1215.11        2971.00           1502       11516.00     50241.32
 1215.14        2971.25           1506        9789.00     42691.96
 1215.17        2971.50           1509        8481.00     36976.48
 1215.21        2971.75           1513        6853.00     29865.46
 1215.24        2972.00           1516        5689.00     24783.02
 1215.27        2972.25           1519        4431.00     19291.90
 1215.30        2972.50           1523        2890.00     12567.95
 1215.33        2972.75           1526        1665.00      7224.76
 1215.36        2973.00           1529         675.00      2907.84
 1215.39        2973.25           1533         327.00      1390.64
 1215.42        2973.50           1536         275.00      1163.95
 1215.45        2973.75           1539         222.00       932.89
 1215.48        2974.00           1543         184.00       767.24
 1215.51        2974.25           1546         141.00       579.78
 1215.55        2974.50           1549         113.00       457.72
 1215.58        2974.75           1553          77.00       300.79
 1215.61        2975.00           1556          61.00       231.04
 1215.64        2975.25           1559          62.00       235.40
 1215.67        2975.50           1563          52.00       191.81
 1215.70        2975.75           1566          49.00       178.73
 1215.73        2976.00           1569          64.00       244.12
 1215.76        2976.25           1573          53.00       196.17
 1215.79        2976.50           1576          65.00       248.48
 1215.82        2976.75           1579          51.00       187.45
 1215.85        2977.00           1583          52.00       191.81
 1215.88        2977.25           1586          54.00       200.52
 1215.91        2977.50           1590          53.00       196.17
 1215.95        2977.75           1593          55.00       204.88
 1215.98        2978.00           1596          55.00       204.88
 1216.01        2978.25           1600          51.00       187.45
 1216.04        2978.50           1603          55.00       204.88
 1216.07        2978.75           1606          56.00       209.24
 1216.10        2979.00           1610          57.00       213.60
 1216.13        2979.25           1613          46.00       165.65
 1216.16        2979.50           1616          54.00       200.52
 1216.19        2979.75           1620          49.00       178.73
 1216.22        2980.00           1623          55.00       204.88
 1216.25        2980.25           1626          51.00       187.45
 1216.28        2980.50           1630          52.00       191.81
 1216.32        2980.75           1633          46.00       165.65
 1216.35        2981.00           1637          48.00       174.37
 1216.38        2981.25           1640          49.00       178.73
 1216.41        2981.50           1643          46.00       165.65
 1216.44        2981.75           1647          53.00       196.17
 1216.47        2982.00           1650          54.00       200.52
 1216.50        2982.25           1653          51.00       187.45
 1216.53        2982.50           1657          54.00       200.52
 1216.56        2982.75           1660          46.00       165.65
 1216.59        2983.00           1663          54.00       200.52
 1216.63        2983.25           1667          51.00       187.45
 1216.66        2983.50           1670          43.00       152.57
 1216.69        2983.75           1673          48.00       174.37
 1216.72        2984.00           1677          49.00       178.73
HS scan finished at 20:16:56
end
