************************************************************
  HS Scan of (1) Internal mercury lamp
************************************************************
Integration time is 0.2294 seconds per sample
dh170418Manchester 53.47 2.23 2.804185pr1000
************************************************************
Dead Time -------------------------  3E-08 
Number of Cycles Used -------------  4 
Starting Wavelength (Angstroms) ---  2950 
Final Wavelength (Angstoms) -------  2984 
Wavelength Increment (Angstroms) --  .25 
Filter Wheel #1 Position ---------- (1) Ground quartz diffuser (ND=2.32)
Filter Wheel #2 Position ---------- (1) Neutral Density 0.494



************************************************************
HS scan start time = 01:36:29
Dark Count =  7.4 


Time (GMT)  Wavelength (Ang)  Step Number  Raw Counts  Counts/Second

   96.85        2950.00           1222          68.00       264.17
   96.91        2950.25           1226          65.00       251.09
   96.94        2950.50           1229          50.00       185.70
   96.97        2950.75           1232          54.00       203.14
   97.00        2951.00           1236          55.00       207.50
   97.04        2951.25           1239          68.00       264.17
   97.07        2951.50           1242          64.00       246.73
   97.10        2951.75           1246          65.00       251.09
   97.13        2952.00           1249          56.00       211.86
   97.16        2952.25           1252          66.00       255.45
   97.19        2952.50           1256          68.00       264.17
   97.22        2952.75           1259          55.00       207.50
   97.25        2953.00           1262          65.00       251.09
   97.28        2953.25           1266          60.00       229.30
   97.31        2953.50           1269          48.00       176.98
   97.34        2953.75           1272          58.00       220.58
   97.38        2954.00           1276          61.00       233.65
   97.41        2954.25           1279          61.00       233.65
   97.44        2954.50           1282          63.00       242.37
   97.47        2954.75           1286          61.00       233.65
   97.50        2955.00           1289          81.00       320.84
   97.53        2955.25           1292          54.00       203.14
   97.56        2955.50           1296          57.00       216.22
   97.59        2955.75           1299          59.00       224.94
   97.62        2956.00           1302          64.00       246.73
   97.65        2956.25           1306          61.00       233.65
   97.68        2956.50           1309          62.00       238.01
   97.71        2956.75           1312          65.00       251.09
   97.74        2957.00           1316          60.00       229.30
   97.78        2957.25           1319         102.00       412.39
   97.81        2957.50           1322          52.00       194.42
   97.84        2957.75           1326          57.00       216.22
   97.87        2958.00           1329          57.00       216.22
   97.90        2958.25           1332          61.00       233.65
   97.93        2958.50           1336          64.00       246.73
   97.96        2958.75           1339          67.00       259.81
   97.99        2959.00           1342          53.00       198.78
   98.02        2959.25           1346          63.00       242.37
   98.05        2959.50           1349          65.00       251.09
   98.08        2959.75           1352          77.00       303.40
   98.11        2960.00           1356         104.00       421.10
   98.14        2960.25           1359         135.00       556.24
   98.18        2960.50           1362         166.00       691.38
   98.21        2960.75           1366         227.00       957.31
   98.24        2961.00           1369         265.00      1122.97
   98.27        2961.25           1372         283.00      1201.44
   98.30        2961.50           1376         373.00      1593.80
   98.33        2961.75           1379         579.00      2491.90
   98.36        2962.00           1382        1353.00      5866.77
   98.39        2962.25           1386        3094.00     13460.54
   98.42        2962.50           1389        4399.00     19154.86
   98.45        2962.75           1392        5835.00     25423.04
   98.48        2963.00           1396        7838.00     34170.15
   98.51        2963.25           1399        9099.00     39679.29
   98.55        2963.50           1402       10548.00     46012.03
   98.58        2963.75           1406       12665.00     55268.55
   98.61        2964.00           1409       14108.00     61580.97
   98.64        2964.25           1412       15624.00     68215.31
   98.67        2964.50           1416       17653.00     77098.78
   98.70        2964.75           1419       18925.00     82670.34
   98.73        2965.00           1422       20674.00     90334.28
   98.76        2965.25           1426       22673.00     99098.01
   98.79        2965.50           1429       24286.00    106172.90
   98.82        2965.75           1432       25587.00    111881.40
   98.86        2966.00           1436       27474.00    120164.80
   98.89        2966.25           1439       28887.00    126370.10
   98.92        2966.50           1442       30245.00    132336.00
   98.95        2966.75           1446       31531.00    137987.70
   98.98        2967.00           1449       31891.00    139570.10
   99.01        2967.25           1452       32099.00    140484.50
   99.04        2967.50           1456       31873.00    139491.00
   99.07        2967.75           1459       31826.00    139284.40
   99.10        2968.00           1462       31526.00    137965.70
   99.13        2968.25           1466       30516.00    133526.90
   99.17        2968.50           1469       29241.00    127925.10
   99.20        2968.75           1472       27916.00    122105.60
   99.23        2969.00           1476       25924.00    113360.50
   99.26        2969.25           1479       24590.00    107506.60
   99.29        2969.50           1482       23208.00    101444.30
   99.32        2969.75           1486       21079.00     92109.44
   99.35        2970.00           1489       19745.00     86263.06
   99.38        2970.25           1492       18324.00     80037.63
   99.41        2970.50           1496       16257.00     70986.23
   99.45        2970.75           1499       14787.00     64552.10
   99.48        2971.00           1502       13407.00     58514.14
   99.51        2971.25           1506       11333.00     49443.82
   99.54        2971.50           1509        9800.00     42742.65
   99.57        2971.75           1513        7932.00     34580.76
   99.60        2972.00           1516        6486.00     28265.46
   99.63        2972.25           1519        5056.00     22022.39
   99.66        2972.50           1523        3172.00     13800.83
   99.69        2972.75           1526        1804.00      7833.58
   99.72        2973.00           1529         824.00      3560.10
   99.75        2973.25           1533         389.00      1663.55
   99.78        2973.50           1536         320.00      1362.74
   99.81        2973.75           1539         278.00      1179.64
   99.85        2974.00           1543         226.00       952.95
   99.88        2974.25           1546         174.00       726.26
   99.91        2974.50           1549         127.00       521.37
   99.94        2974.75           1553          88.00       351.36
   99.97        2975.00           1556          84.00       333.92
  100.00        2975.25           1559          60.00       229.30
  100.03        2975.50           1563          65.00       251.09
  100.06        2975.75           1566          62.00       238.01
  100.09        2976.00           1569          53.00       198.78
  100.12        2976.25           1573          52.00       194.42
  100.15        2976.50           1576          63.00       242.37
  100.18        2976.75           1579          59.00       224.94
  100.22        2977.00           1583          61.00       233.65
  100.25        2977.25           1586          55.00       207.50
  100.28        2977.50           1590          58.00       220.58
  100.31        2977.75           1593          60.00       229.30
  100.34        2978.00           1596          49.00       181.34
  100.37        2978.25           1600          53.00       198.78
  100.40        2978.50           1603          58.00       220.58
  100.43        2978.75           1606          56.00       211.86
  100.46        2979.00           1610          62.00       238.01
  100.49        2979.25           1613          56.00       211.86
  100.52        2979.50           1616          58.00       220.58
  100.55        2979.75           1620          57.00       216.22
  100.58        2980.00           1623          53.00       198.78
  100.62        2980.25           1626          47.00       172.63
  100.65        2980.50           1630          52.00       194.42
  100.68        2980.75           1633          57.00       216.22
  100.71        2981.00           1637          59.00       224.94
  100.74        2981.25           1640          54.00       203.14
  100.77        2981.50           1643          56.00       211.86
  100.80        2981.75           1647          53.00       198.78
  100.83        2982.00           1650          48.00       176.98
  100.86        2982.25           1653          57.00       216.22
  100.89        2982.50           1657          50.00       185.70
  100.92        2982.75           1660          58.00       220.58
  100.96        2983.00           1663          47.00       172.63
  100.99        2983.25           1667          55.00       207.50
  101.02        2983.50           1670          52.00       194.42
  101.05        2983.75           1673          59.00       224.94
  101.08        2984.00           1677          57.00       216.22
HS scan finished at 01:41:18
end
************************************************************
  HS Scan of (1) Internal mercury lamp
************************************************************
Integration time is 0.2294 seconds per sample
dh170418Manchester 53.47 2.23 2.804185pr1000
************************************************************
Dead Time -------------------------  3E-08 
Number of Cycles Used -------------  4 
Starting Wavelength (Angstroms) ---  2950 
Final Wavelength (Angstoms) -------  2984 
Wavelength Increment (Angstroms) --  .25 
Filter Wheel #1 Position ---------- (1) Ground quartz diffuser (ND=2.32)
Filter Wheel #2 Position ---------- (1) Neutral Density 0.494



************************************************************
HS scan start time = 20:13:16
Dark Count =  5.8 


Time (GMT)  Wavelength (Ang)  Step Number  Raw Counts  Counts/Second

 1213.64        2950.00           1222          58.00       227.55
 1213.71        2950.25           1226          63.00       249.35
 1213.74        2950.50           1229          67.00       266.79
 1213.77        2950.75           1232          63.00       249.35
 1213.80        2951.00           1236          64.00       253.71
 1213.84        2951.25           1239          64.00       253.71
 1213.87        2951.50           1242          61.00       240.63
 1213.90        2951.75           1246          62.00       244.99
 1213.93        2952.00           1249          56.00       218.83
 1213.96        2952.25           1252          62.00       244.99
 1213.99        2952.50           1256          58.00       227.55
 1214.02        2952.75           1259          54.00       210.11
 1214.05        2953.00           1262          52.00       201.40
 1214.08        2953.25           1266          64.00       253.71
 1214.11        2953.50           1269          59.00       231.91
 1214.14        2953.75           1272          64.00       253.71
 1214.17        2954.00           1276          55.00       214.47
 1214.20        2954.25           1279          75.00       301.66
 1214.24        2954.50           1282          63.00       249.35
 1214.27        2954.75           1286          66.00       262.43
 1214.30        2955.00           1289          61.00       240.63
 1214.33        2955.25           1292          57.00       223.19
 1214.36        2955.50           1296          56.00       218.83
 1214.39        2955.75           1299          67.00       266.79
 1214.42        2956.00           1302          58.00       227.55
 1214.45        2956.25           1306          58.00       227.55
 1214.48        2956.50           1309          51.00       197.04
 1214.51        2956.75           1312          59.00       231.91
 1214.54        2957.00           1316          64.00       253.71
 1214.57        2957.25           1319          61.00       240.63
 1214.60        2957.50           1322          60.00       236.27
 1214.63        2957.75           1326          65.00       258.07
 1214.66        2958.00           1329          61.00       240.63
 1214.70        2958.25           1332          59.00       231.91
 1214.73        2958.50           1336          61.00       240.63
 1214.76        2958.75           1339          54.00       210.11
 1214.79        2959.00           1342          67.00       266.79
 1214.82        2959.25           1346          56.00       218.83
 1214.85        2959.50           1349          63.00       249.35
 1214.88        2959.75           1352          79.00       319.10
 1214.91        2960.00           1356         108.00       445.52
 1214.94        2960.25           1359         159.00       667.84
 1214.97        2960.50           1362         163.00       685.28
 1215.00        2960.75           1366         215.00       911.97
 1215.04        2961.00           1369         271.00      1156.10
 1215.07        2961.25           1372         295.00      1260.73
 1215.10        2961.50           1376         347.00      1487.42
 1215.13        2961.75           1379         423.00      1818.76
 1215.16        2962.00           1382         677.00      2926.15
 1215.19        2962.25           1386        1831.00      7958.31
 1215.22        2962.50           1389        3175.00     13820.90
 1215.25        2962.75           1392        4542.00     19785.94
 1215.28        2963.00           1396        6467.00     28189.48
 1215.31        2963.25           1399        7987.00     34828.00
 1215.34        2963.50           1402        9403.00     41014.69
 1215.37        2963.75           1406       11414.00     49804.97
 1215.40        2964.00           1409       12813.00     55922.86
 1215.44        2964.25           1412       14435.00     63018.77
 1215.47        2964.50           1416       16387.00     71562.37
 1215.50        2964.75           1419       17983.00     78551.06
 1215.53        2965.00           1422       19336.00     84477.99
 1215.56        2965.25           1426       21292.00     93050.15
 1215.59        2965.50           1429       22783.00     99587.40
 1215.62        2965.75           1432       24321.00    106333.40
 1215.65        2966.00           1436       26266.00    114868.60
 1215.68        2966.25           1439       27463.00    120123.50
 1215.71        2966.50           1442       28753.00    125788.50
 1215.74        2966.75           1446       30718.00    134421.60
 1215.77        2967.00           1449       31644.00    138491.40
 1215.81        2967.25           1452       31696.00    138720.00
 1215.84        2967.50           1456       31887.00    139559.50
 1215.87        2967.75           1459       31904.00    139634.30
 1215.90        2968.00           1462       31820.00    139265.00
 1215.93        2968.25           1466       31399.00    137414.50
 1215.96        2968.50           1469       30487.00    133406.40
 1215.99        2968.75           1472       29150.00    127532.30
 1216.02        2969.00           1476       27353.00    119640.50
 1216.05        2969.25           1479       25963.00    113538.70
 1216.08        2969.50           1482       24482.00    107039.80
 1216.12        2969.75           1486       22625.00     98894.55
 1216.15        2970.00           1489       21311.00     93133.44
 1216.18        2970.25           1492       19785.00     86445.34
 1216.21        2970.50           1496       17670.00     77180.25
 1216.24        2970.75           1499       16129.00     70432.90
 1216.27        2971.00           1502       14679.00     64086.48
 1216.30        2971.25           1506       12826.00     55979.73
 1216.33        2971.50           1509       11236.00     49026.73
 1216.36        2971.75           1513        9372.00     40879.22
 1216.40        2972.00           1516        8000.00     34884.79
 1216.43        2972.25           1519        6428.00     28019.18
 1216.46        2972.50           1523        4633.00     20183.10
 1216.49        2972.75           1526        3207.00     13960.51
 1216.52        2973.00           1529        1608.00      6985.77
 1216.55        2973.25           1533         579.00      2498.88
 1216.58        2973.50           1536         330.00      1413.31
 1216.61        2973.75           1539         260.00      1108.15
 1216.64        2974.00           1543         204.00       864.02
 1216.67        2974.25           1546         168.00       707.08
 1216.70        2974.50           1549         124.00       515.27
 1216.73        2974.75           1553          93.00       380.13
 1216.76        2975.00           1556          66.00       262.43
 1216.80        2975.25           1559          67.00       266.79
 1216.83        2975.50           1563          55.00       214.47
 1216.86        2975.75           1566          56.00       218.83
 1216.89        2976.00           1569          60.00       236.27
 1216.92        2976.25           1573          59.00       231.91
 1216.95        2976.50           1576          55.00       214.47
 1216.98        2976.75           1579          62.00       244.99
 1217.01        2977.00           1583          62.00       244.99
 1217.04        2977.25           1586          59.00       231.91
 1217.07        2977.50           1590          53.00       205.76
 1217.10        2977.75           1593          59.00       231.91
 1217.13        2978.00           1596          59.00       231.91
 1217.16        2978.25           1600          59.00       231.91
 1217.20        2978.50           1603          54.00       210.11
 1217.23        2978.75           1606          60.00       236.27
 1217.26        2979.00           1610          59.00       231.91
 1217.29        2979.25           1613          52.00       201.40
 1217.32        2979.50           1616          51.00       197.04
 1217.35        2979.75           1620          49.00       188.32
 1217.38        2980.00           1623          53.00       205.76
 1217.41        2980.25           1626          60.00       236.27
 1217.44        2980.50           1630          55.00       214.47
 1217.47        2980.75           1633          50.00       192.68
 1217.51        2981.00           1637          54.00       210.11
 1217.54        2981.25           1640          55.00       214.47
 1217.57        2981.50           1643          58.00       227.55
 1217.60        2981.75           1647          54.00       210.11
 1217.63        2982.00           1650          48.00       183.96
 1217.66        2982.25           1653          55.00       214.47
 1217.69        2982.50           1657          50.00       192.68
 1217.72        2982.75           1660          54.00       210.11
 1217.75        2983.00           1663          56.00       218.83
 1217.78        2983.25           1667          56.00       218.83
 1217.81        2983.50           1670          56.00       218.83
 1217.84        2983.75           1673          49.00       188.32
 1217.87        2984.00           1677          48.00       183.96
HS scan finished at 20:18:05
end
