************************************************************
  HS Scan of (1) Internal mercury lamp
************************************************************
Integration time is 0.2294 seconds per sample
dh160417Manchester 53.47 2.23 2.804185pr1000
************************************************************
Dead Time -------------------------  3E-08 
Number of Cycles Used -------------  4 
Starting Wavelength (Angstroms) ---  2950 
Final Wavelength (Angstoms) -------  2984 
Wavelength Increment (Angstroms) --  .25 
Filter Wheel #1 Position ---------- (1) Ground quartz diffuser (ND=2.32)
Filter Wheel #2 Position ---------- (1) Neutral Density 0.494



************************************************************
HS scan start time = 01:35:30
Dark Count =  6.2 


Time (GMT)  Wavelength (Ang)  Step Number  Raw Counts  Counts/Second

   95.87        2950.00           1222          49.00       186.57
   95.94        2950.25           1226          40.00       147.34
   95.97        2950.50           1229          45.00       169.14
   96.00        2950.75           1232          42.00       156.06
   96.03        2951.00           1236          48.00       182.22
   96.06        2951.25           1239          51.00       195.29
   96.09        2951.50           1242          42.00       156.06
   96.12        2951.75           1246          46.00       173.50
   96.15        2952.00           1249          49.00       186.57
   96.18        2952.25           1252          49.00       186.57
   96.22        2952.50           1256          41.00       151.70
   96.25        2952.75           1259          49.00       186.57
   96.28        2953.00           1262          45.00       169.14
   96.31        2953.25           1266          42.00       156.06
   96.34        2953.50           1269          47.00       177.86
   96.37        2953.75           1272          44.00       164.78
   96.40        2954.00           1276          52.00       199.65
   96.43        2954.25           1279          43.00       160.42
   96.46        2954.50           1282          49.00       186.57
   96.49        2954.75           1286          45.00       169.14
   96.52        2955.00           1289          51.00       195.29
   96.55        2955.25           1292          45.00       169.14
   96.59        2955.50           1296          46.00       173.50
   96.62        2955.75           1299          42.00       156.06
   96.65        2956.00           1302          56.00       217.09
   96.68        2956.25           1306          43.00       160.42
   96.71        2956.50           1309          39.00       142.98
   96.74        2956.75           1312          47.00       177.86
   96.77        2957.00           1316          44.00       164.78
   96.80        2957.25           1319          45.00       169.14
   96.83        2957.50           1322          47.00       177.86
   96.87        2957.75           1326          53.00       204.01
   96.90        2958.00           1329          42.00       156.06
   96.93        2958.25           1332          45.00       169.14
   96.96        2958.50           1336          47.00       177.86
   96.99        2958.75           1339          50.00       190.93
   97.02        2959.00           1342          50.00       190.93
   97.05        2959.25           1346          53.00       204.01
   97.08        2959.50           1349          57.00       221.45
   97.11        2959.75           1352          73.00       291.20
   97.14        2960.00           1356          99.00       404.54
   97.17        2960.25           1359         146.00       609.43
   97.20        2960.50           1362         166.00       696.61
   97.23        2960.75           1366         237.00      1006.13
   97.27        2961.00           1369         290.00      1237.19
   97.30        2961.25           1372         302.00      1289.50
   97.33        2961.50           1376         421.00      1808.29
   97.36        2961.75           1379         626.00      2702.05
   97.39        2962.00           1382        1328.00      5762.98
   97.42        2962.25           1386        2988.00     13003.33
   97.45        2962.50           1389        4684.00     20403.94
   97.48        2962.75           1392        6227.00     27139.79
   97.51        2963.00           1396        8175.00     35647.52
   97.54        2963.25           1399        9872.00     43062.57
   97.58        2963.50           1402       11782.00     51412.28
   97.61        2963.75           1406       13819.00     60321.80
   97.64        2964.00           1409       15580.00     68027.96
   97.67        2964.25           1412       17451.00     76219.43
   97.70        2964.50           1416       19717.00     86145.62
   97.73        2964.75           1419       21405.00     93543.75
   97.76        2965.00           1422       23198.00    101405.70
   97.79        2965.25           1426       25309.00    110666.70
   97.82        2965.50           1429       26779.00    117118.70
   97.86        2965.75           1432       28326.00    123911.40
   97.89        2966.00           1436       30742.00    134525.30
   97.92        2966.25           1439       32130.00    140626.00
   97.95        2966.50           1442       33667.00    147384.30
   97.98        2966.75           1446       35231.00    154264.20
   98.01        2967.00           1449       36129.00    158215.60
   98.04        2967.25           1452       36054.00    157885.60
   98.07        2967.50           1456       36028.00    157771.20
   98.10        2967.75           1459       35902.00    157216.70
   98.13        2968.00           1462       35789.00    156719.40
   98.17        2968.25           1466       34767.00    152222.80
   98.20        2968.50           1469       33238.00    145497.70
   98.23        2968.75           1472       31870.00    139483.10
   98.26        2969.00           1476       29725.00    130056.60
   98.29        2969.25           1479       28032.00    122620.30
   98.32        2969.50           1482       26385.00    115389.20
   98.35        2969.75           1486       24321.00    106331.70
   98.38        2970.00           1489       22471.00     98217.49
   98.42        2970.25           1492       20909.00     91369.55
   98.45        2970.50           1496       18471.00     80686.80
   98.48        2970.75           1499       16794.00     73342.55
   98.51        2971.00           1502       15155.00     66167.83
   98.54        2971.25           1506       12990.00     56695.30
   98.57        2971.50           1509       11306.00     49331.02
   98.60        2971.75           1513        9166.00     39977.30
   98.63        2972.00           1516        7650.00     33354.20
   98.66        2972.25           1519        5988.00     26096.27
   98.69        2972.50           1523        3753.00     16341.05
   98.73        2972.75           1526        2234.00      9714.25
   98.76        2973.00           1529        1012.00      4385.06
   98.79        2973.25           1533         445.00      1912.93
   98.82        2973.50           1536         326.00      1394.13
   98.85        2973.75           1539         275.00      1171.79
   98.88        2974.00           1543         246.00      1045.37
   98.91        2974.25           1546         183.00       770.72
   98.94        2974.50           1549         133.00       552.76
   98.97        2974.75           1553          81.00       326.07
   99.00        2975.00           1556          65.00       256.32
   99.04        2975.25           1559          55.00       212.73
   99.07        2975.50           1563          51.00       195.29
   99.10        2975.75           1566          53.00       204.01
   99.13        2976.00           1569          54.00       208.37
   99.16        2976.25           1573          52.00       199.65
   99.19        2976.50           1576          46.00       173.50
   99.22        2976.75           1579          54.00       208.37
   99.25        2977.00           1583          46.00       173.50
   99.28        2977.25           1586          52.00       199.65
   99.31        2977.50           1590          52.00       199.65
   99.34        2977.75           1593          45.00       169.14
   99.38        2978.00           1596          49.00       186.57
   99.41        2978.25           1600          41.00       151.70
   99.44        2978.50           1603          42.00       156.06
   99.47        2978.75           1606          43.00       160.42
   99.50        2979.00           1610          42.00       156.06
   99.53        2979.25           1613          40.00       147.34
   99.56        2979.50           1616          46.00       173.50
   99.59        2979.75           1620          44.00       164.78
   99.62        2980.00           1623          48.00       182.22
   99.65        2980.25           1626          40.00       147.34
   99.68        2980.50           1630          45.00       169.14
   99.71        2980.75           1633          51.00       195.29
   99.74        2981.00           1637          51.00       195.29
   99.78        2981.25           1640          48.00       182.22
   99.81        2981.50           1643          41.00       151.70
   99.84        2981.75           1647          54.00       208.37
   99.87        2982.00           1650          55.00       212.73
   99.90        2982.25           1653          47.00       177.86
   99.93        2982.50           1657          38.00       138.62
   99.96        2982.75           1660          43.00       160.42
   99.99        2983.00           1663          43.00       160.42
  100.02        2983.25           1667          40.00       147.34
  100.05        2983.50           1670          46.00       173.50
  100.08        2983.75           1673          51.00       195.29
  100.11        2984.00           1677          39.00       142.98
HS scan finished at 01:40:20
end
************************************************************
  HS Scan of (1) Internal mercury lamp
************************************************************
Integration time is 0.2294 seconds per sample
dh160417Manchester 53.47 2.23 2.804185pr1000
************************************************************
Dead Time -------------------------  3E-08 
Number of Cycles Used -------------  4 
Starting Wavelength (Angstroms) ---  2950 
Final Wavelength (Angstoms) -------  2984 
Wavelength Increment (Angstroms) --  .25 
Filter Wheel #1 Position ---------- (1) Ground quartz diffuser (ND=2.32)
Filter Wheel #2 Position ---------- (1) Neutral Density 0.494



************************************************************
HS scan start time = 20:12:02
Dark Count =  6.2 


Time (GMT)  Wavelength (Ang)  Step Number  Raw Counts  Counts/Second

 1212.40        2950.00           1222          45.00       169.14
 1212.47        2950.25           1226          45.00       169.14
 1212.50        2950.50           1229          49.00       186.57
 1212.53        2950.75           1232          50.00       190.93
 1212.56        2951.00           1236          44.00       164.78
 1212.59        2951.25           1239          54.00       208.37
 1212.62        2951.50           1242          44.00       164.78
 1212.66        2951.75           1246          41.00       151.70
 1212.69        2952.00           1249          48.00       182.22
 1212.72        2952.25           1252          52.00       199.65
 1212.75        2952.50           1256          43.00       160.42
 1212.78        2952.75           1259          42.00       156.06
 1212.81        2953.00           1262          46.00       173.50
 1212.84        2953.25           1266          40.00       147.34
 1212.87        2953.50           1269          41.00       151.70
 1212.90        2953.75           1272          40.00       147.34
 1212.93        2954.00           1276          44.00       164.78
 1212.97        2954.25           1279          54.00       208.37
 1213.00        2954.50           1282          52.00       199.65
 1213.03        2954.75           1286          46.00       173.50
 1213.06        2955.00           1289          46.00       173.50
 1213.09        2955.25           1292          44.00       164.78
 1213.12        2955.50           1296          48.00       182.22
 1213.15        2955.75           1299          52.00       199.65
 1213.18        2956.00           1302          53.00       204.01
 1213.21        2956.25           1306          52.00       199.65
 1213.24        2956.50           1309          47.00       177.86
 1213.28        2956.75           1312          45.00       169.14
 1213.31        2957.00           1316          41.00       151.70
 1213.34        2957.25           1319          46.00       173.50
 1213.37        2957.50           1322          51.00       195.29
 1213.40        2957.75           1326          47.00       177.86
 1213.43        2958.00           1329          46.00       173.50
 1213.46        2958.25           1332          47.00       177.86
 1213.49        2958.50           1336          52.00       199.65
 1213.52        2958.75           1339          48.00       182.22
 1213.55        2959.00           1342          52.00       199.65
 1213.58        2959.25           1346          51.00       195.29
 1213.61        2959.50           1349          59.00       230.17
 1213.65        2959.75           1352          67.00       265.04
 1213.68        2960.00           1356          98.00       400.18
 1213.71        2960.25           1359         134.00       557.11
 1213.74        2960.50           1362         178.00       748.93
 1213.77        2960.75           1366         228.00       966.90
 1213.80        2961.00           1369         282.00      1202.31
 1213.83        2961.25           1372         332.00      1420.29
 1213.86        2961.50           1376         411.00      1764.70
 1213.89        2961.75           1379         626.00      2702.05
 1213.92        2962.00           1382        1247.00      5409.77
 1213.95        2962.25           1386        2861.00     12449.29
 1213.98        2962.50           1389        4520.00     19688.17
 1214.02        2962.75           1392        6091.00     26545.98
 1214.05        2963.00           1396        8176.00     35651.88
 1214.08        2963.25           1399        9846.00     42948.94
 1214.11        2963.50           1402       11547.00     50384.73
 1214.14        2963.75           1406       14001.00     61118.07
 1214.17        2964.00           1409       15656.00     68360.63
 1214.20        2964.25           1412       17509.00     76473.41
 1214.23        2964.50           1416       19779.00     86417.31
 1214.26        2964.75           1419       21326.00     93197.44
 1214.30        2965.00           1422       23184.00    101344.30
 1214.33        2965.25           1426       25391.00    111026.60
 1214.36        2965.50           1429       26947.00    117856.30
 1214.39        2965.75           1432       28518.00    124754.60
 1214.42        2966.00           1436       31018.00    135738.20
 1214.45        2966.25           1439       32650.00    142912.20
 1214.48        2966.50           1442       33933.00    148554.20
 1214.51        2966.75           1446       35455.00    155249.70
 1214.54        2967.00           1449       35894.00    157181.50
 1214.58        2967.25           1452       35865.00    157053.90
 1214.61        2967.50           1456       35992.00    157612.70
 1214.64        2967.75           1459       35886.00    157146.30
 1214.67        2968.00           1462       35549.00    155663.40
 1214.70        2968.25           1466       34621.00    151580.50
 1214.73        2968.50           1469       33345.00    145968.30
 1214.76        2968.75           1472       31859.00    139434.70
 1214.79        2969.00           1476       29445.00    128826.50
 1214.82        2969.25           1479       27751.00    121386.30
 1214.86        2969.50           1482       26215.00    114643.00
 1214.89        2969.75           1486       24158.00    105616.60
 1214.92        2970.00           1489       22491.00     98305.19
 1214.95        2970.25           1492       20918.00     91409.00
 1214.98        2970.50           1496       18695.00     81668.03
 1215.01        2970.75           1499       17053.00     74476.60
 1215.04        2971.00           1502       15528.00     67800.37
 1215.07        2971.25           1506       13110.00     57220.20
 1215.10        2971.50           1509       11566.00     50467.81
 1215.13        2971.75           1513        9507.00     41467.42
 1215.16        2972.00           1516        7939.00     34616.58
 1215.19        2972.25           1519        6216.00     27091.76
 1215.23        2972.50           1523        3979.00     17327.23
 1215.26        2972.75           1526        2445.00     10634.61
 1215.29        2973.00           1529        1207.00      5235.35
 1215.32        2973.25           1533         475.00      2043.72
 1215.35        2973.50           1536         362.00      1551.07
 1215.38        2973.75           1539         296.00      1263.34
 1215.41        2974.00           1543         239.00      1014.85
 1215.44        2974.25           1546         184.00       775.08
 1215.47        2974.50           1549         140.00       583.27
 1215.50        2974.75           1553          99.00       404.54
 1215.53        2975.00           1556          70.00       278.12
 1215.56        2975.25           1559          55.00       212.73
 1215.59        2975.50           1563          47.00       177.86
 1215.63        2975.75           1566          48.00       182.22
 1215.66        2976.00           1569          51.00       195.29
 1215.69        2976.25           1573          43.00       160.42
 1215.72        2976.50           1576          49.00       186.57
 1215.75        2976.75           1579          53.00       204.01
 1215.78        2977.00           1583          45.00       169.14
 1215.81        2977.25           1586          46.00       173.50
 1215.84        2977.50           1590          41.00       151.70
 1215.87        2977.75           1593          39.00       142.98
 1215.90        2978.00           1596          45.00       169.14
 1215.94        2978.25           1600          41.00       151.70
 1215.97        2978.50           1603          51.00       195.29
 1216.00        2978.75           1606          39.00       142.98
 1216.03        2979.00           1610          48.00       182.22
 1216.06        2979.25           1613          42.00       156.06
 1216.09        2979.50           1616          50.00       190.93
 1216.12        2979.75           1620          51.00       195.29
 1216.15        2980.00           1623          47.00       177.86
 1216.18        2980.25           1626          43.00       160.42
 1216.21        2980.50           1630          45.00       169.14
 1216.24        2980.75           1633          48.00       182.22
 1216.27        2981.00           1637          44.00       164.78
 1216.30        2981.25           1640          45.00       169.14
 1216.33        2981.50           1643          53.00       204.01
 1216.36        2981.75           1647          44.00       164.78
 1216.39        2982.00           1650          51.00       195.29
 1216.42        2982.25           1653          49.00       186.57
 1216.46        2982.50           1657          47.00       177.86
 1216.49        2982.75           1660          46.00       173.50
 1216.52        2983.00           1663          40.00       147.34
 1216.55        2983.25           1667          45.00       169.14
 1216.58        2983.50           1670          39.00       142.98
 1216.61        2983.75           1673          50.00       190.93
 1216.64        2984.00           1677          41.00       151.70
HS scan finished at 20:16:51
end
