************************************************************
  HS Scan of (1) Internal mercury lamp
************************************************************
Integration time is 0.2294 seconds per sample
dh180418Manchester 53.47 2.23 2.804185pr1000
************************************************************
Dead Time -------------------------  3E-08 
Number of Cycles Used -------------  4 
Starting Wavelength (Angstroms) ---  2950 
Final Wavelength (Angstoms) -------  2984 
Wavelength Increment (Angstroms) --  .25 
Filter Wheel #1 Position ---------- (1) Ground quartz diffuser (ND=2.32)
Filter Wheel #2 Position ---------- (1) Neutral Density 0.494



************************************************************
HS scan start time = 01:36:05
Dark Count =  5.1 


Time (GMT)  Wavelength (Ang)  Step Number  Raw Counts  Counts/Second

   96.45        2950.00           1222          56.00       221.88
   96.52        2950.25           1226          71.00       287.27
   96.55        2950.50           1229          58.00       230.60
   96.58        2950.75           1232          57.00       226.24
   96.61        2951.00           1236          60.00       239.32
   96.64        2951.25           1239          54.00       213.17
   96.68        2951.50           1242          63.00       252.40
   96.71        2951.75           1246          56.00       221.88
   96.74        2952.00           1249          55.00       217.53
   96.77        2952.25           1252          63.00       252.40
   96.80        2952.50           1256          54.00       213.17
   96.83        2952.75           1259          60.00       239.32
   96.86        2953.00           1262          56.00       221.88
   96.89        2953.25           1266          61.00       243.68
   96.92        2953.50           1269          72.00       291.63
   96.95        2953.75           1272          60.00       239.32
   96.98        2954.00           1276          55.00       217.53
   97.01        2954.25           1279          59.00       234.96
   97.04        2954.50           1282          62.00       248.04
   97.08        2954.75           1286          71.00       287.27
   97.11        2955.00           1289          59.00       234.96
   97.14        2955.25           1292          48.00       187.01
   97.17        2955.50           1296          58.00       230.60
   97.20        2955.75           1299          57.00       226.24
   97.23        2956.00           1302          55.00       217.53
   97.26        2956.25           1306          56.00       221.88
   97.29        2956.50           1309          59.00       234.96
   97.32        2956.75           1312          52.00       204.45
   97.35        2957.00           1316          58.00       230.60
   97.38        2957.25           1319          57.00       226.24
   97.41        2957.50           1322          60.00       239.32
   97.44        2957.75           1326          54.00       213.17
   97.47        2958.00           1329          61.00       243.68
   97.50        2958.25           1332          57.00       226.24
   97.54        2958.50           1336          58.00       230.60
   97.57        2958.75           1339          56.00       221.88
   97.60        2959.00           1342          59.00       234.96
   97.63        2959.25           1346          57.00       226.24
   97.66        2959.50           1349          65.00       261.12
   97.69        2959.75           1352          80.00       326.51
   97.72        2960.00           1356          97.00       400.62
   97.75        2960.25           1359         139.00       583.71
   97.78        2960.50           1362         148.00       622.94
   97.81        2960.75           1366         213.00       906.30
   97.84        2961.00           1369         248.00      1058.88
   97.88        2961.25           1372         274.00      1172.23
   97.91        2961.50           1376         355.00      1525.35
   97.94        2961.75           1379         504.00      2174.95
   97.97        2962.00           1382        1028.00      4459.62
   98.00        2962.25           1386        2557.00     11127.95
   98.03        2962.50           1389        3844.00     16742.93
   98.06        2962.75           1392        5232.00     22800.68
   98.09        2963.00           1396        7017.00     30594.33
   98.12        2963.25           1399        8551.00     37294.98
   98.15        2963.50           1402        9922.00     43285.91
   98.19        2963.75           1406       11950.00     52151.72
   98.22        2964.00           1409       13488.00     58878.54
   98.25        2964.25           1412       15083.00     65857.54
   98.28        2964.50           1416       17192.00     75090.06
   98.31        2964.75           1419       18787.00     82075.88
   98.34        2965.00           1422       20354.00     88941.89
   98.37        2965.25           1426       22230.00     97165.56
   98.40        2965.50           1429       23682.00    103533.40
   98.43        2965.75           1432       25210.00    110237.10
   98.46        2966.00           1436       27201.00    118976.20
   98.50        2966.25           1439       28575.00    125009.80
   98.53        2966.50           1442       30037.00    131432.20
   98.56        2966.75           1446       31323.00    137083.50
   98.59        2967.00           1449       31931.00    139756.10
   98.62        2967.25           1452       32055.00    140301.10
   98.65        2967.50           1456       31995.00    140037.40
   98.68        2967.75           1459       32049.00    140274.80
   98.71        2968.00           1462       31862.00    139452.70
   98.74        2968.25           1466       31011.00    135712.30
   98.77        2968.50           1469       29727.00    130070.20
   98.80        2968.75           1472       28494.00    124654.10
   98.84        2969.00           1476       26651.00    116561.60
   98.87        2969.25           1479       25204.00    110210.80
   98.90        2969.50           1482       23858.00    104305.40
   98.93        2969.75           1486       21928.00     95841.44
   98.96        2970.00           1489       20331.00     88841.09
   98.99        2970.25           1492       18856.00     82378.15
   99.02        2970.50           1496       16963.00     74087.33
   99.05        2970.75           1499       15335.00     66960.45
   99.08        2971.00           1502       13872.00     60558.49
   99.12        2971.25           1506       11864.00     51775.66
   99.15        2971.50           1509       10418.00     45453.84
   99.18        2971.75           1513        8495.00     37050.31
   99.21        2972.00           1516        6908.00     30118.31
   99.24        2972.25           1519        5584.00     24337.29
   99.27        2972.50           1523        3696.00     16097.14
   99.30        2972.75           1526        2344.00     10198.85
   99.33        2973.00           1529        1175.00      5100.61
   99.37        2973.25           1533         434.00      1869.77
   99.40        2973.50           1536         326.00      1398.93
   99.43        2973.75           1539         289.00      1237.62
   99.46        2974.00           1543         234.00       997.85
   99.49        2974.25           1546         198.00       840.91
   99.52        2974.50           1549         151.00       636.02
   99.55        2974.75           1553          92.00       378.82
   99.58        2975.00           1556          76.00       309.07
   99.61        2975.25           1559          72.00       291.63
   99.64        2975.50           1563          64.00       256.76
   99.68        2975.75           1566          60.00       239.32
   99.71        2976.00           1569          53.00       208.81
   99.74        2976.25           1573          57.00       226.24
   99.77        2976.50           1576          50.00       195.73
   99.80        2976.75           1579          54.00       213.17
   99.83        2977.00           1583          58.00       230.60
   99.86        2977.25           1586          46.00       178.29
   99.89        2977.50           1590          51.00       200.09
   99.92        2977.75           1593          57.00       226.24
   99.95        2978.00           1596          57.00       226.24
   99.98        2978.25           1600          60.00       239.32
  100.01        2978.50           1603          51.00       200.09
  100.04        2978.75           1606          55.00       217.53
  100.07        2979.00           1610          57.00       226.24
  100.10        2979.25           1613          54.00       213.17
  100.14        2979.50           1616          56.00       221.88
  100.17        2979.75           1620          67.00       269.84
  100.20        2980.00           1623          60.00       239.32
  100.23        2980.25           1626          53.00       208.81
  100.26        2980.50           1630          53.00       208.81
  100.29        2980.75           1633          60.00       239.32
  100.32        2981.00           1637          64.00       256.76
  100.35        2981.25           1640          57.00       226.24
  100.38        2981.50           1643          56.00       221.88
  100.41        2981.75           1647          60.00       239.32
  100.44        2982.00           1650          58.00       230.60
  100.47        2982.25           1653          60.00       239.32
  100.51        2982.50           1657          51.00       200.09
  100.54        2982.75           1660          47.00       182.65
  100.57        2983.00           1663          48.00       187.01
  100.60        2983.25           1667          52.00       204.45
  100.63        2983.50           1670          44.00       169.57
  100.66        2983.75           1673          54.00       213.17
  100.69        2984.00           1677          61.00       243.68
HS scan finished at 01:40:55
end
************************************************************
  HS Scan of (1) Internal mercury lamp
************************************************************
Integration time is 0.2294 seconds per sample
dh180418Manchester 53.47 2.23 3.072425pr1000
************************************************************
Dead Time -------------------------  3E-08 
Number of Cycles Used -------------  4 
Starting Wavelength (Angstroms) ---  2950 
Final Wavelength (Angstoms) -------  2984 
Wavelength Increment (Angstroms) --  .25 
Filter Wheel #1 Position ---------- (1) Ground quartz diffuser (ND=2.32)
Filter Wheel #2 Position ---------- (1) Neutral Density 0.494



************************************************************
HS scan start time = 20:12:03
Dark Count =  5.5 


Time (GMT)  Wavelength (Ang)  Step Number  Raw Counts  Counts/Second

 1212.42        2950.00           1222          65.00       259.37
 1212.48        2950.25           1226          61.00       241.94
 1212.51        2950.50           1229          58.00       228.86
 1212.54        2950.75           1232          60.00       237.58
 1212.58        2951.00           1236          69.00       276.81
 1212.61        2951.25           1239          55.00       215.78
 1212.64        2951.50           1242          58.00       228.86
 1212.67        2951.75           1246          62.00       246.30
 1212.70        2952.00           1249          63.00       250.66
 1212.73        2952.25           1252          54.00       211.42
 1212.76        2952.50           1256          56.00       220.14
 1212.79        2952.75           1259          58.00       228.86
 1212.82        2953.00           1262          57.00       224.50
 1212.85        2953.25           1266          58.00       228.86
 1212.88        2953.50           1269          57.00       224.50
 1212.91        2953.75           1272          56.00       220.14
 1212.94        2954.00           1276          57.00       224.50
 1212.98        2954.25           1279          53.00       207.06
 1213.01        2954.50           1282          58.00       228.86
 1213.04        2954.75           1286          67.00       268.09
 1213.07        2955.00           1289          61.00       241.94
 1213.10        2955.25           1292          58.00       228.86
 1213.13        2955.50           1296          62.00       246.30
 1213.16        2955.75           1299          65.00       259.37
 1213.19        2956.00           1302          66.00       263.73
 1213.22        2956.25           1306          63.00       250.66
 1213.25        2956.50           1309          57.00       224.50
 1213.28        2956.75           1312          51.00       198.34
 1213.31        2957.00           1316          51.00       198.34
 1213.35        2957.25           1319          54.00       211.42
 1213.38        2957.50           1322          60.00       237.58
 1213.41        2957.75           1326          60.00       237.58
 1213.44        2958.00           1329          63.00       250.66
 1213.47        2958.25           1332          60.00       237.58
 1213.50        2958.50           1336          60.00       237.58
 1213.53        2958.75           1339          57.00       224.50
 1213.56        2959.00           1342          65.00       259.37
 1213.59        2959.25           1346          58.00       228.86
 1213.62        2959.50           1349          75.00       302.97
 1213.65        2959.75           1352          96.00       394.51
 1213.68        2960.00           1356         121.00       503.50
 1213.71        2960.25           1359         149.00       625.56
 1213.75        2960.50           1362         202.00       856.60
 1213.78        2960.75           1366         266.00      1135.61
 1213.81        2961.00           1369         285.00      1218.44
 1213.84        2961.25           1372         352.00      1510.53
 1213.87        2961.50           1376         421.00      1811.35
 1213.90        2961.75           1379         645.00      2787.94
 1213.93        2962.00           1382        1411.00      6127.98
 1213.96        2962.25           1386        3208.00     13966.18
 1213.99        2962.50           1389        4839.00     21083.52
 1214.02        2962.75           1392        6360.00     27723.57
 1214.05        2963.00           1396        8630.00     37638.38
 1214.08        2963.25           1399       10281.00     44853.25
 1214.11        2963.50           1402       11951.00     52154.34
 1214.14        2963.75           1406       14032.00     61256.76
 1214.18        2964.00           1409       15592.00     68083.56
 1214.21        2964.25           1412       17381.00     75915.95
 1214.24        2964.50           1416       19297.00     84308.44
 1214.27        2964.75           1419       21012.00     91824.09
 1214.30        2965.00           1422       22774.00     99549.26
 1214.33        2965.25           1426       24877.00    108774.20
 1214.36        2965.50           1429       26492.00    115861.90
 1214.39        2965.75           1432       28014.00    122544.30
 1214.42        2966.00           1436       30405.00    133047.40
 1214.46        2966.25           1439       31758.00    138993.80
 1214.49        2966.50           1442       33515.00    146718.90
 1214.52        2966.75           1446       34579.00    151398.80
 1214.55        2967.00           1449       34968.00    153110.10
 1214.58        2967.25           1452       34953.00    153044.10
 1214.61        2967.50           1456       35190.00    154086.90
 1214.64        2967.75           1459       34888.00    152758.20
 1214.67        2968.00           1462       34914.00    152872.60
 1214.70        2968.25           1466       33701.00    147536.90
 1214.73        2968.50           1469       32360.00    141640.30
 1214.76        2968.75           1472       30655.00    134146.00
 1214.79        2969.00           1476       28635.00    125271.60
 1214.82        2969.25           1479       26991.00    118052.50
 1214.86        2969.50           1482       25282.00    110551.30
 1214.89        2969.75           1486       22933.00    100246.60
 1214.92        2970.00           1489       21475.00     93853.69
 1214.95        2970.25           1492       19945.00     87147.77
 1214.98        2970.50           1496       17989.00     78578.66
 1215.01        2970.75           1499       16249.00     70959.53
 1215.04        2971.00           1502       14875.00     64945.51
 1215.07        2971.25           1506       12710.00     55473.67
 1215.10        2971.50           1509       10847.00     47327.40
 1215.14        2971.75           1513        8746.00     38145.20
 1215.17        2972.00           1516        7034.00     30666.83
 1215.20        2972.25           1519        5565.00     24252.60
 1215.23        2972.50           1523        3307.00     14398.11
 1215.26        2972.75           1526        1741.00      7567.11
 1215.29        2973.00           1529         778.00      3367.82
 1215.32        2973.25           1533         397.00      1706.71
 1215.35        2973.50           1536         321.00      1375.38
 1215.38        2973.75           1539         278.00      1187.92
 1215.41        2974.00           1543         235.00      1000.47
 1215.44        2974.25           1546         166.00       699.67
 1215.47        2974.50           1549         143.00       599.40
 1215.50        2974.75           1553          95.00       390.15
 1215.53        2975.00           1556          74.00       298.61
 1215.57        2975.25           1559          58.00       228.86
 1215.60        2975.50           1563          59.00       233.22
 1215.63        2975.75           1566          53.00       207.06
 1215.66        2976.00           1569          50.00       193.99
 1215.69        2976.25           1573          48.00       185.27
 1215.72        2976.50           1576          54.00       211.42
 1215.75        2976.75           1579          52.00       202.70
 1215.78        2977.00           1583          59.00       233.22
 1215.81        2977.25           1586          61.00       241.94
 1215.84        2977.50           1590          59.00       233.22
 1215.87        2977.75           1593          56.00       220.14
 1215.91        2978.00           1596          58.00       228.86
 1215.94        2978.25           1600          52.00       202.70
 1215.97        2978.50           1603          46.00       176.55
 1216.00        2978.75           1606          56.00       220.14
 1216.03        2979.00           1610          51.00       198.34
 1216.06        2979.25           1613          55.00       215.78
 1216.09        2979.50           1616          51.00       198.34
 1216.12        2979.75           1620          51.00       198.34
 1216.15        2980.00           1623          50.00       193.99
 1216.18        2980.25           1626          53.00       207.06
 1216.22        2980.50           1630          61.00       241.94
 1216.25        2980.75           1633          51.00       198.34
 1216.28        2981.00           1637          51.00       198.34
 1216.31        2981.25           1640          58.00       228.86
 1216.34        2981.50           1643          59.00       233.22
 1216.37        2981.75           1647          57.00       224.50
 1216.40        2982.00           1650          59.00       233.22
 1216.43        2982.25           1653          53.00       207.06
 1216.46        2982.50           1657          64.00       255.02
 1216.49        2982.75           1660          56.00       220.14
 1216.52        2983.00           1663          60.00       237.58
 1216.56        2983.25           1667          59.00       233.22
 1216.59        2983.50           1670          48.00       185.27
 1216.62        2983.75           1673          52.00       202.70
 1216.65        2984.00           1677          56.00       220.14
HS scan finished at 20:16:52
end
