************************************************************
  HS Scan of (1) Internal mercury lamp
************************************************************
Integration time is 0.2294 seconds per sample
dh110419Manchester 53.47 2.23 2.804185pr1000
************************************************************
Dead Time -------------------------  3E-08 
Number of Cycles Used -------------  4 
Starting Wavelength (Angstroms) ---  2950 
Final Wavelength (Angstoms) -------  2984 
Wavelength Increment (Angstroms) --  .25 
Filter Wheel #1 Position ---------- (1) Ground quartz diffuser (ND=2.32)
Filter Wheel #2 Position ---------- (1) Neutral Density 0.494



************************************************************
HS scan start time = 01:38:41
Dark Count =  6.1 


Time (GMT)  Wavelength (Ang)  Step Number  Raw Counts  Counts/Second

   99.06        2950.00           1222          58.00       226.24
   99.13        2950.25           1226          57.00       221.88
   99.16        2950.50           1229          55.00       213.17
   99.19        2950.75           1232          61.00       239.32
   99.22        2951.00           1236          61.00       239.32
   99.25        2951.25           1239          59.00       230.60
   99.28        2951.50           1242          60.00       234.96
   99.31        2951.75           1246          56.00       217.53
   99.34        2952.00           1249          54.00       208.81
   99.38        2952.25           1252          55.00       213.17
   99.41        2952.50           1256          55.00       213.17
   99.44        2952.75           1259          51.00       195.73
   99.47        2953.00           1262          49.00       187.01
   99.50        2953.25           1266          51.00       195.73
   99.53        2953.50           1269          51.00       195.73
   99.56        2953.75           1272          62.00       243.68
   99.59        2954.00           1276          54.00       208.81
   99.62        2954.25           1279          50.00       191.37
   99.66        2954.50           1282          58.00       226.24
   99.69        2954.75           1286          58.00       226.24
   99.72        2955.00           1289          50.00       191.37
   99.75        2955.25           1292          49.00       187.01
   99.78        2955.50           1296          51.00       195.73
   99.81        2955.75           1299          55.00       213.17
   99.84        2956.00           1302          54.00       208.81
   99.87        2956.25           1306          56.00       217.53
   99.90        2956.50           1309          49.00       187.01
   99.93        2956.75           1312          57.00       221.88
   99.96        2957.00           1316          56.00       217.53
  100.00        2957.25           1319          52.00       200.09
  100.03        2957.50           1322          59.00       230.60
  100.06        2957.75           1326          56.00       217.53
  100.09        2958.00           1329          59.00       230.60
  100.12        2958.25           1332          50.00       191.37
  100.15        2958.50           1336          52.00       200.09
  100.18        2958.75           1339          52.00       200.09
  100.21        2959.00           1342          51.00       195.73
  100.24        2959.25           1346          58.00       226.24
  100.28        2959.50           1349          67.00       265.48
  100.31        2959.75           1352          85.00       343.94
  100.34        2960.00           1356         102.00       418.05
  100.37        2960.25           1359         132.00       548.83
  100.40        2960.50           1362         164.00       688.33
  100.43        2960.75           1366         214.00       906.30
  100.46        2961.00           1369         237.00      1006.57
  100.49        2961.25           1372         283.00      1207.11
  100.52        2961.50           1376         360.00      1542.79
  100.56        2961.75           1379         658.00      2842.00
  100.59        2962.00           1382        1477.00      6413.18
  100.62        2962.25           1386        3008.00     13091.02
  100.65        2962.50           1389        4200.00     18292.08
  100.68        2962.75           1392        5542.00     24149.58
  100.71        2963.00           1396        7023.00     30616.16
  100.74        2963.25           1399        8279.00     36102.29
  100.77        2963.50           1402        9533.00     41581.49
  100.80        2963.75           1406       11084.00     48360.87
  100.84        2964.00           1409       12408.00     54150.24
  100.87        2964.25           1412       13599.00     59359.76
  100.90        2964.50           1416       15163.00     66203.28
  100.93        2964.75           1419       16411.00     71666.13
  100.96        2965.00           1422       17831.00     77884.04
  100.99        2965.25           1426       19470.00     85063.79
  101.02        2965.50           1429       20657.00     90265.48
  101.05        2965.75           1432       22110.00     96635.02
  101.08        2966.00           1436       23797.00    104033.40
  101.12        2966.25           1439       24783.00    108359.10
  101.15        2966.50           1442       25788.00    112769.30
  101.18        2966.75           1446       26737.00    116934.80
  101.21        2967.00           1449       26859.00    117470.40
  101.24        2967.25           1452       26944.00    117843.50
  101.27        2967.50           1456       26815.00    117277.20
  101.30        2967.75           1459       26870.00    117518.70
  101.33        2968.00           1462       26622.00    116430.00
  101.36        2968.25           1466       25278.00    110531.10
  101.39        2968.50           1469       24184.00    105731.10
  101.43        2968.75           1472       22929.00    100226.40
  101.46        2969.00           1476       21300.00     93083.91
  101.49        2969.25           1479       20145.00     88021.59
  101.52        2969.50           1482       18779.00     82036.45
  101.55        2969.75           1486       17226.00     75234.57
  101.58        2970.00           1489       16150.00     70523.52
  101.61        2970.25           1492       14711.00     64225.20
  101.64        2970.50           1496       13183.00     57539.96
  101.67        2970.75           1499       11960.00     52191.08
  101.71        2971.00           1502       10739.00     46852.65
  101.74        2971.25           1506        9051.00     39475.23
  101.77        2971.50           1509        7755.00     33813.27
  101.80        2971.75           1513        6167.00     26878.25
  101.83        2972.00           1516        4892.00     21312.23
  101.86        2972.25           1519        3736.00     16267.31
  101.89        2972.50           1523        2003.00      8707.16
  101.92        2972.75           1526         977.00      4232.88
  101.95        2973.00           1529         463.00      1991.84
  101.99        2973.25           1533         290.00      1237.62
  102.02        2973.50           1536         231.00       980.41
  102.05        2973.75           1539         201.00       849.63
  102.08        2974.00           1543         177.00       745.00
  102.11        2974.25           1546         128.00       531.39
  102.14        2974.50           1549          99.00       404.97
  102.17        2974.75           1553          67.00       265.48
  102.20        2975.00           1556          55.00       213.17
  102.24        2975.25           1559          51.00       195.73
  102.27        2975.50           1563          51.00       195.73
  102.30        2975.75           1566          61.00       239.32
  102.33        2976.00           1569          55.00       213.17
  102.36        2976.25           1573          52.00       200.09
  102.39        2976.50           1576          57.00       221.88
  102.42        2976.75           1579          57.00       221.88
  102.45        2977.00           1583          52.00       200.09
  102.48        2977.25           1586          51.00       195.73
  102.51        2977.50           1590          52.00       200.09
  102.54        2977.75           1593          52.00       200.09
  102.57        2978.00           1596          61.00       239.32
  102.61        2978.25           1600          48.00       182.65
  102.64        2978.50           1603          54.00       208.81
  102.67        2978.75           1606          54.00       208.81
  102.70        2979.00           1610          55.00       213.17
  102.73        2979.25           1613          43.00       160.86
  102.76        2979.50           1616          52.00       200.09
  102.79        2979.75           1620          46.00       173.93
  102.82        2980.00           1623          47.00       178.29
  102.85        2980.25           1626          47.00       178.29
  102.88        2980.50           1630          50.00       191.37
  102.92        2980.75           1633          46.00       173.93
  102.95        2981.00           1637          46.00       173.93
  102.98        2981.25           1640          57.00       221.88
  103.01        2981.50           1643          47.00       178.29
  103.04        2981.75           1647          50.00       191.37
  103.07        2982.00           1650          55.00       213.17
  103.10        2982.25           1653          46.00       173.93
  103.13        2982.50           1657          46.00       173.93
  103.16        2982.75           1660          58.00       226.24
  103.19        2983.00           1663          53.00       204.45
  103.23        2983.25           1667          57.00       221.88
  103.26        2983.50           1670          44.00       165.21
  103.29        2983.75           1673          47.00       178.29
  103.32        2984.00           1677          48.00       182.65
HS scan finished at 01:43:32
end
************************************************************
  HS Scan of (1) Internal mercury lamp
************************************************************
Integration time is 0.2294 seconds per sample
dh110419Manchester 53.47 2.23 2.804185pr1000
************************************************************
Dead Time -------------------------  3E-08 
Number of Cycles Used -------------  4 
Starting Wavelength (Angstroms) ---  2950 
Final Wavelength (Angstoms) -------  2984 
Wavelength Increment (Angstroms) --  .25 
Filter Wheel #1 Position ---------- (1) Ground quartz diffuser (ND=2.32)
Filter Wheel #2 Position ---------- (1) Neutral Density 0.494



************************************************************
HS scan start time = 20:12:11
Dark Count =  5.1 


Time (GMT)  Wavelength (Ang)  Step Number  Raw Counts  Counts/Second

 1212.55        2950.00           1222          55.00       217.53
 1212.61        2950.25           1226          50.00       195.73
 1212.64        2950.50           1229          56.00       221.88
 1212.68        2950.75           1232          52.00       204.45
 1212.71        2951.00           1236          60.00       239.32
 1212.74        2951.25           1239          56.00       221.88
 1212.77        2951.50           1242          50.00       195.73
 1212.80        2951.75           1246          54.00       213.17
 1212.83        2952.00           1249          53.00       208.81
 1212.86        2952.25           1252          55.00       217.53
 1212.89        2952.50           1256          53.00       208.81
 1212.92        2952.75           1259          49.00       191.37
 1212.95        2953.00           1262          49.00       191.37
 1212.99        2953.25           1266          56.00       221.88
 1213.02        2953.50           1269          55.00       217.53
 1213.05        2953.75           1272          55.00       217.53
 1213.08        2954.00           1276          57.00       226.24
 1213.11        2954.25           1279          59.00       234.96
 1213.14        2954.50           1282          44.00       169.57
 1213.17        2954.75           1286          49.00       191.37
 1213.20        2955.00           1289          56.00       221.88
 1213.23        2955.25           1292          58.00       230.60
 1213.26        2955.50           1296          54.00       213.17
 1213.29        2955.75           1299          56.00       221.88
 1213.32        2956.00           1302          59.00       234.96
 1213.36        2956.25           1306          55.00       217.53
 1213.39        2956.50           1309          54.00       213.17
 1213.42        2956.75           1312          63.00       252.40
 1213.45        2957.00           1316          58.00       230.60
 1213.48        2957.25           1319          70.00       282.91
 1213.51        2957.50           1322          53.00       208.81
 1213.54        2957.75           1326          59.00       234.96
 1213.57        2958.00           1329          55.00       217.53
 1213.60        2958.25           1332          46.00       178.29
 1213.64        2958.50           1336          55.00       217.53
 1213.67        2958.75           1339          60.00       239.32
 1213.70        2959.00           1342          56.00       221.88
 1213.73        2959.25           1346          58.00       230.60
 1213.76        2959.50           1349          67.00       269.84
 1213.79        2959.75           1352          70.00       282.91
 1213.82        2960.00           1356          90.00       370.10
 1213.85        2960.25           1359         117.00       487.80
 1213.88        2960.50           1362         143.00       601.14
 1213.92        2960.75           1366         189.00       801.68
 1213.95        2961.00           1369         245.00      1045.80
 1213.98        2961.25           1372         253.00      1080.68
 1214.01        2961.50           1376         321.00      1377.13
 1214.04        2961.75           1379         425.00      1830.53
 1214.07        2962.00           1382         805.00      3487.29
 1214.10        2962.25           1386        2049.00      8912.15
 1214.13        2962.50           1389        3173.00     13815.23
 1214.16        2962.75           1392        4393.00     19138.71
 1214.20        2963.00           1396        5989.00     26105.44
 1214.23        2963.25           1399        7268.00     31690.53
 1214.26        2963.50           1402        8464.00     36914.88
 1214.29        2963.75           1406       10169.00     44365.46
 1214.32        2964.00           1409       11341.00     49488.86
 1214.35        2964.25           1412       12516.00     54626.95
 1214.38        2964.50           1416       14219.00     62076.71
 1214.41        2964.75           1419       15337.00     66969.20
 1214.44        2965.00           1422       16689.00     72887.63
 1214.48        2965.25           1426       18255.00     79745.49
 1214.51        2965.50           1429       19738.00     86242.46
 1214.54        2965.75           1432       20806.00     90922.91
 1214.57        2966.00           1436       22621.00     98880.07
 1214.60        2966.25           1439       23820.00    104138.70
 1214.63        2966.50           1442       24763.00    108275.70
 1214.66        2966.75           1446       26073.00    114024.50
 1214.69        2967.00           1449       26756.00    117022.60
 1214.72        2967.25           1452       26601.00    116342.20
 1214.75        2967.50           1456       26817.00    117290.40
 1214.79        2967.75           1459       26613.00    116394.80
 1214.82        2968.00           1462       26554.00    116135.90
 1214.85        2968.25           1466       26054.00    113941.10
 1214.88        2968.50           1469       24892.00    108841.80
 1214.91        2968.75           1472       23722.00    103708.80
 1214.94        2969.00           1476       22142.00     96779.72
 1214.97        2969.25           1479       20988.00     91720.65
 1215.00        2969.50           1482       19738.00     86242.46
 1215.03        2969.75           1486       18125.00     79176.08
 1215.07        2970.00           1489       17016.00     74319.40
 1215.10        2970.25           1492       15745.00     68755.02
 1215.13        2970.50           1496       14270.00     62299.86
 1215.16        2970.75           1499       13012.00     56796.35
 1215.19        2971.00           1502       11796.00     51478.31
 1215.22        2971.25           1506       10159.00     44321.76
 1215.25        2971.50           1509        8826.00     38496.49
 1215.28        2971.75           1513        7250.00     31611.92
 1215.31        2972.00           1516        5974.00     26039.95
 1215.34        2972.25           1519        4699.00     20474.21
 1215.38        2972.50           1523        3047.00     13265.52
 1215.41        2972.75           1526        1855.00      8066.03
 1215.44        2973.00           1529         839.00      3635.53
 1215.47        2973.25           1533         367.00      1577.67
 1215.50        2973.50           1536         268.00      1146.07
 1215.53        2973.75           1539         248.00      1058.88
 1215.56        2974.00           1543         195.00       827.83
 1215.59        2974.25           1546         149.00       627.30
 1215.62        2974.50           1549         114.00       474.72
 1215.66        2974.75           1553          78.00       317.79
 1215.69        2975.00           1556          68.00       274.20
 1215.72        2975.25           1559          61.00       243.68
 1215.75        2975.50           1563          58.00       230.60
 1215.78        2975.75           1566          64.00       256.76
 1215.81        2976.00           1569          55.00       217.53
 1215.84        2976.25           1573          54.00       213.17
 1215.87        2976.50           1576          53.00       208.81
 1215.90        2976.75           1579          56.00       221.88
 1215.93        2977.00           1583          54.00       213.17
 1215.96        2977.25           1586          54.00       213.17
 1216.00        2977.50           1590          52.00       204.45
 1216.03        2977.75           1593          55.00       217.53
 1216.06        2978.00           1596          55.00       217.53
 1216.09        2978.25           1600          60.00       239.32
 1216.12        2978.50           1603          54.00       213.17
 1216.15        2978.75           1606          56.00       221.88
 1216.18        2979.00           1610          46.00       178.29
 1216.21        2979.25           1613          50.00       195.73
 1216.24        2979.50           1616          51.00       200.09
 1216.27        2979.75           1620          62.00       248.04
 1216.30        2980.00           1623          57.00       226.24
 1216.34        2980.25           1626          50.00       195.73
 1216.37        2980.50           1630          60.00       239.32
 1216.40        2980.75           1633          51.00       200.09
 1216.43        2981.00           1637          53.00       208.81
 1216.46        2981.25           1640          49.00       191.37
 1216.49        2981.50           1643          50.00       195.73
 1216.52        2981.75           1647          50.00       195.73
 1216.55        2982.00           1650          49.00       191.37
 1216.58        2982.25           1653          51.00       200.09
 1216.61        2982.50           1657          54.00       213.17
 1216.64        2982.75           1660          52.00       204.45
 1216.67        2983.00           1663          55.00       217.53
 1216.71        2983.25           1667          41.00       156.50
 1216.74        2983.50           1670          46.00       178.29
 1216.77        2983.75           1673          50.00       195.73
 1216.80        2984.00           1677          50.00       195.73
HS scan finished at 20:17:01
end
