************************************************************
  HS Scan of (1) Internal mercury lamp
************************************************************
Integration time is 0.2294 seconds per sample
dh140418Manchester 53.47 2.23 2.804185pr1000
************************************************************
Dead Time -------------------------  3E-08 
Number of Cycles Used -------------  4 
Starting Wavelength (Angstroms) ---  2950 
Final Wavelength (Angstoms) -------  2984 
Wavelength Increment (Angstroms) --  .25 
Filter Wheel #1 Position ---------- (1) Ground quartz diffuser (ND=2.32)
Filter Wheel #2 Position ---------- (1) Neutral Density 0.494



************************************************************
HS scan start time = 01:23:25
Dark Count =  6.9 


Time (GMT)  Wavelength (Ang)  Step Number  Raw Counts  Counts/Second

   83.79        2950.00           1222          53.00       200.96
   83.85        2950.25           1226          56.00       214.04
   83.88        2950.50           1229          59.00       227.12
   83.92        2950.75           1232          70.00       275.07
   83.95        2951.00           1236          60.00       231.48
   83.98        2951.25           1239          61.00       235.83
   84.01        2951.50           1242          54.00       205.32
   84.04        2951.75           1246          61.00       235.83
   84.07        2952.00           1249          57.00       218.40
   84.10        2952.25           1252          56.00       214.04
   84.13        2952.50           1256          58.00       222.76
   84.16        2952.75           1259          63.00       244.55
   84.19        2953.00           1262          67.00       261.99
   84.22        2953.25           1266          61.00       235.83
   84.25        2953.50           1269          60.00       231.48
   84.28        2953.75           1272          54.00       205.32
   84.31        2954.00           1276          62.00       240.19
   84.34        2954.25           1279          58.00       222.76
   84.37        2954.50           1282          62.00       240.19
   84.40        2954.75           1286          63.00       244.55
   84.44        2955.00           1289          58.00       222.76
   84.47        2955.25           1292          57.00       218.40
   84.50        2955.50           1296          62.00       240.19
   84.53        2955.75           1299          55.00       209.68
   84.56        2956.00           1302          60.00       231.48
   84.59        2956.25           1306          66.00       257.63
   84.62        2956.50           1309          60.00       231.48
   84.65        2956.75           1312          59.00       227.12
   84.68        2957.00           1316          66.00       257.63
   84.71        2957.25           1319          56.00       214.04
   84.74        2957.50           1322          65.00       253.27
   84.77        2957.75           1326          52.00       196.60
   84.81        2958.00           1329          50.00       187.88
   84.84        2958.25           1332          54.00       205.32
   84.87        2958.50           1336          57.00       218.40
   84.90        2958.75           1339          60.00       231.48
   84.93        2959.00           1342          64.00       248.91
   84.96        2959.25           1346          61.00       235.83
   84.99        2959.50           1349          73.00       288.15
   85.02        2959.75           1352          86.00       344.82
   85.05        2960.00           1356         114.00       466.88
   85.08        2960.25           1359         144.00       597.66
   85.11        2960.50           1362         190.00       798.19
   85.15        2960.75           1366         238.00      1007.44
   85.18        2961.00           1369         260.00      1103.35
   85.21        2961.25           1372         308.00      1312.61
   85.24        2961.50           1376         388.00      1661.37
   85.27        2961.75           1379         575.00      2476.64
   85.30        2962.00           1382        1290.00      5594.23
   85.33        2962.25           1386        3053.00     13283.85
   85.36        2962.50           1389        4461.00     19427.63
   85.39        2962.75           1392        5849.00     25486.35
   85.42        2963.00           1396        7957.00     34692.15
   85.45        2963.25           1399        9202.00     40131.55
   85.48        2963.50           1402       10756.00     46923.46
   85.52        2963.75           1406       13003.00     56749.11
   85.55        2964.00           1409       14424.00     62965.82
   85.58        2964.25           1412       15851.00     69211.13
   85.61        2964.50           1416       17840.00     77919.95
   85.64        2964.75           1419       19365.00     84600.22
   85.67        2965.00           1422       20816.00     90958.85
   85.70        2965.25           1426       22779.00     99565.05
   85.73        2965.50           1429       24218.00    105876.70
   85.76        2965.75           1432       26045.00    113893.70
   85.79        2966.00           1436       27790.00    121554.50
   85.82        2966.25           1439       29267.00    128041.50
   85.86        2966.50           1442       30621.00    133990.50
   85.89        2966.75           1446       31863.00    139449.20
   85.92        2967.00           1449       32121.00    140583.40
   85.95        2967.25           1452       31960.00    139875.60
   85.98        2967.50           1456       32054.00    140288.90
   86.01        2967.75           1459       32152.00    140719.70
   86.04        2968.00           1462       31964.00    139893.20
   86.07        2968.25           1466       30636.00    134056.40
   86.10        2968.50           1469       29565.00    129350.60
   86.14        2968.75           1472       28052.00    122705.00
   86.17        2969.00           1476       26065.00    113981.50
   86.20        2969.25           1479       24725.00    108101.10
   86.23        2969.50           1482       23126.00    101086.80
   86.26        2969.75           1486       21170.00     92510.52
   86.29        2970.00           1489       19855.00     86747.26
   86.32        2970.25           1492       18508.00     80845.80
   86.35        2970.50           1496       16603.00     72503.22
   86.38        2970.75           1499       15079.00     65832.16
   86.42        2971.00           1502       13571.00     59233.77
   86.45        2971.25           1506       11430.00     49870.12
   86.48        2971.50           1509       10113.00     44112.83
   86.51        2971.75           1513        8090.00     35273.14
   86.54        2972.00           1516        6598.00     28756.71
   86.57        2972.25           1519        5239.00     22823.38
   86.60        2972.50           1523        3363.00     14636.33
   86.63        2972.75           1526        1906.00      8280.61
   86.66        2973.00           1529         879.00      3802.09
   86.70        2973.25           1533         399.00      1709.33
   86.73        2973.50           1536         301.00      1282.09
   86.76        2973.75           1539         254.00      1077.19
   86.79        2974.00           1543         218.00       920.25
   86.82        2974.25           1546         159.00       663.05
   86.85        2974.50           1549         121.00       497.39
   86.88        2974.75           1553          83.00       331.74
   86.91        2975.00           1556          72.00       283.79
   86.94        2975.25           1559          65.00       253.27
   86.97        2975.50           1563          66.00       257.63
   87.00        2975.75           1566          58.00       222.76
   87.03        2976.00           1569          57.00       218.40
   87.07        2976.25           1573          57.00       218.40
   87.10        2976.50           1576          51.00       192.24
   87.13        2976.75           1579          61.00       235.83
   87.16        2977.00           1583          60.00       231.48
   87.19        2977.25           1586          52.00       196.60
   87.22        2977.50           1590          55.00       209.68
   87.25        2977.75           1593          51.00       192.24
   87.28        2978.00           1596          59.00       227.12
   87.31        2978.25           1600          56.00       214.04
   87.34        2978.50           1603          54.00       205.32
   87.37        2978.75           1606          53.00       200.96
   87.40        2979.00           1610          53.00       200.96
   87.43        2979.25           1613          53.00       200.96
   87.47        2979.50           1616          58.00       222.76
   87.50        2979.75           1620          52.00       196.60
   87.53        2980.00           1623          55.00       209.68
   87.56        2980.25           1626          53.00       200.96
   87.59        2980.50           1630          54.00       205.32
   87.62        2980.75           1633          54.00       205.32
   87.65        2981.00           1637          48.00       179.16
   87.68        2981.25           1640          50.00       187.88
   87.71        2981.50           1643          50.00       187.88
   87.74        2981.75           1647          60.00       231.48
   87.78        2982.00           1650          49.00       183.52
   87.81        2982.25           1653          56.00       214.04
   87.84        2982.50           1657          59.00       227.12
   87.87        2982.75           1660          55.00       209.68
   87.90        2983.00           1663          52.00       196.60
   87.93        2983.25           1667          55.00       209.68
   87.96        2983.50           1670          52.00       196.60
   87.99        2983.75           1673          57.00       218.40
   88.02        2984.00           1677          49.00       183.52
HS scan finished at 01:28:14
end
************************************************************
  HS Scan of (1) Internal mercury lamp
************************************************************
Integration time is 0.2294 seconds per sample
dh140418Manchester 53.47 2.23 2.804185pr1000
************************************************************
Dead Time -------------------------  3E-08 
Number of Cycles Used -------------  4 
Starting Wavelength (Angstroms) ---  2950 
Final Wavelength (Angstoms) -------  2984 
Wavelength Increment (Angstroms) --  .25 
Filter Wheel #1 Position ---------- (1) Ground quartz diffuser (ND=2.32)
Filter Wheel #2 Position ---------- (1) Neutral Density 0.494



************************************************************
HS scan start time = 20:12:01
Dark Count =  7.4 


Time (GMT)  Wavelength (Ang)  Step Number  Raw Counts  Counts/Second

 1212.39        2950.00           1222          56.00       211.86
 1212.45        2950.25           1226          59.00       224.94
 1212.48        2950.50           1229          58.00       220.58
 1212.51        2950.75           1232          52.00       194.42
 1212.55        2951.00           1236          58.00       220.58
 1212.58        2951.25           1239          55.00       207.50
 1212.61        2951.50           1242          54.00       203.14
 1212.64        2951.75           1246          54.00       203.14
 1212.67        2952.00           1249          61.00       233.65
 1212.70        2952.25           1252          62.00       238.01
 1212.73        2952.50           1256          58.00       220.58
 1212.76        2952.75           1259          58.00       220.58
 1212.79        2953.00           1262          62.00       238.01
 1212.82        2953.25           1266          56.00       211.86
 1212.85        2953.50           1269          66.00       255.45
 1212.88        2953.75           1272          56.00       211.86
 1212.91        2954.00           1276          56.00       211.86
 1212.94        2954.25           1279          61.00       233.65
 1212.97        2954.50           1282          58.00       220.58
 1213.00        2954.75           1286          58.00       220.58
 1213.04        2955.00           1289          61.00       233.65
 1213.07        2955.25           1292          62.00       238.01
 1213.10        2955.50           1296          55.00       207.50
 1213.13        2955.75           1299          60.00       229.30
 1213.16        2956.00           1302          56.00       211.86
 1213.19        2956.25           1306          57.00       216.22
 1213.22        2956.50           1309          58.00       220.58
 1213.25        2956.75           1312          66.00       255.45
 1213.28        2957.00           1316          66.00       255.45
 1213.31        2957.25           1319          58.00       220.58
 1213.34        2957.50           1322          54.00       203.14
 1213.37        2957.75           1326          61.00       233.65
 1213.40        2958.00           1329          54.00       203.14
 1213.43        2958.25           1332          61.00       233.65
 1213.46        2958.50           1336          58.00       220.58
 1213.50        2958.75           1339          68.00       264.17
 1213.53        2959.00           1342          68.00       264.17
 1213.56        2959.25           1346          63.00       242.37
 1213.59        2959.50           1349          65.00       251.09
 1213.62        2959.75           1352          82.00       325.20
 1213.65        2960.00           1356         103.00       416.74
 1213.68        2960.25           1359         119.00       486.49
 1213.71        2960.50           1362         162.00       673.95
 1213.74        2960.75           1366         216.00       909.35
 1213.77        2961.00           1369         253.00      1070.65
 1213.80        2961.25           1372         306.00      1301.71
 1213.83        2961.50           1376         351.00      1497.89
 1213.86        2961.75           1379         469.00      2012.33
 1213.90        2962.00           1382         947.00      4096.41
 1213.93        2962.25           1386        2493.00     10838.75
 1213.96        2962.50           1389        3876.00     16872.53
 1213.99        2962.75           1392        5266.00     22939.06
 1214.02        2963.00           1396        7133.00     31090.89
 1214.05        2963.25           1399        8682.00     37857.27
 1214.08        2963.50           1402       10300.00     44928.00
 1214.11        2963.75           1406       12378.00     54013.35
 1214.14        2964.00           1409       13911.00     60719.05
 1214.18        2964.25           1412       15406.00     67261.13
 1214.21        2964.50           1416       17336.00     75710.56
 1214.24        2964.75           1419       18787.00     82065.79
 1214.27        2965.00           1422       20385.00     89067.68
 1214.30        2965.25           1426       22254.00     97260.71
 1214.33        2965.50           1429       23905.00    104501.50
 1214.36        2965.75           1432       25302.00    110630.70
 1214.39        2966.00           1436       27427.00    119958.40
 1214.42        2966.25           1439       28532.00    124810.90
 1214.45        2966.50           1442       29977.00    131158.50
 1214.49        2966.75           1446       31698.00    138721.70
 1214.52        2967.00           1449       31962.00    139882.20
 1214.55        2967.25           1452       31887.00    139552.50
 1214.58        2967.50           1456       31861.00    139438.20
 1214.61        2967.75           1459       31988.00    139996.50
 1214.64        2968.00           1462       31829.00    139297.60
 1214.67        2968.25           1466       31071.00    135965.90
 1214.70        2968.50           1469       29916.00    130890.50
 1214.73        2968.75           1472       28479.00    124578.10
 1214.77        2969.00           1476       26759.00    117025.70
 1214.80        2969.25           1479       25191.00    110143.60
 1214.83        2969.50           1482       23762.00    103874.20
 1214.86        2969.75           1486       21639.00     94564.33
 1214.89        2970.00           1489       20159.00     88077.24
 1214.92        2970.25           1492       18851.00     82346.16
 1214.95        2970.50           1496       16728.00     73048.31
 1214.98        2970.75           1499       15319.00     66880.35
 1215.01        2971.00           1502       13912.00     60723.42
 1215.05        2971.25           1506       11951.00     52146.03
 1215.08        2971.50           1509       10515.00     45867.78
 1215.11        2971.75           1513        8624.00     37603.86
 1215.14        2972.00           1516        7185.00     31317.99
 1215.17        2972.25           1519        5824.00     25375.02
 1215.20        2972.50           1523        3863.00     16815.81
 1215.23        2972.75           1526        2436.00     10590.11
 1215.26        2973.00           1529        1134.00      4911.80
 1215.29        2973.25           1533         466.00      1999.25
 1215.33        2973.50           1536         334.00      1423.77
 1215.36        2973.75           1539         276.00      1170.92
 1215.39        2974.00           1543         246.00      1040.14
 1215.42        2974.25           1546         177.00       739.34
 1215.45        2974.50           1549         131.00       538.81
 1215.48        2974.75           1553          98.00       394.95
 1215.51        2975.00           1556          80.00       316.48
 1215.54        2975.25           1559          59.00       224.94
 1215.57        2975.50           1563          54.00       203.14
 1215.60        2975.75           1566          60.00       229.30
 1215.63        2976.00           1569          53.00       198.78
 1215.66        2976.25           1573          60.00       229.30
 1215.69        2976.50           1576          59.00       224.94
 1215.72        2976.75           1579          59.00       224.94
 1215.76        2977.00           1583          56.00       211.86
 1215.79        2977.25           1586          60.00       229.30
 1215.82        2977.50           1590          63.00       242.37
 1215.85        2977.75           1593          53.00       198.78
 1215.88        2978.00           1596          60.00       229.30
 1215.91        2978.25           1600          53.00       198.78
 1215.94        2978.50           1603          60.00       229.30
 1215.97        2978.75           1606          51.00       190.06
 1216.00        2979.00           1610          52.00       194.42
 1216.03        2979.25           1613          55.00       207.50
 1216.06        2979.50           1616          63.00       242.37
 1216.09        2979.75           1620          56.00       211.86
 1216.12        2980.00           1623          54.00       203.14
 1216.15        2980.25           1626          54.00       203.14
 1216.18        2980.50           1630          55.00       207.50
 1216.21        2980.75           1633          63.00       242.37
 1216.24        2981.00           1637          54.00       203.14
 1216.28        2981.25           1640          53.00       198.78
 1216.31        2981.50           1643          57.00       216.22
 1216.34        2981.75           1647          53.00       198.78
 1216.37        2982.00           1650          49.00       181.34
 1216.40        2982.25           1653          52.00       194.42
 1216.43        2982.50           1657          57.00       216.22
 1216.46        2982.75           1660          53.00       198.78
 1216.49        2983.00           1663          55.00       207.50
 1216.52        2983.25           1667          51.00       190.06
 1216.55        2983.50           1670          51.00       190.06
 1216.58        2983.75           1673          55.00       207.50
 1216.61        2984.00           1677          56.00       211.86
HS scan finished at 20:16:50
end
