************************************************************
  HS Scan of (1) Internal mercury lamp
************************************************************
Integration time is 0.2294 seconds per sample
dh150417Manchester 53.47 2.23 2.750537pr1000
************************************************************
Dead Time -------------------------  3E-08 
Number of Cycles Used -------------  4 
Starting Wavelength (Angstroms) ---  2950 
Final Wavelength (Angstoms) -------  2984 
Wavelength Increment (Angstroms) --  .25 
Filter Wheel #1 Position ---------- (1) Ground quartz diffuser (ND=2.32)
Filter Wheel #2 Position ---------- (1) Neutral Density 0.494



************************************************************
HS scan start time = 01:25:07
Dark Count =  8.3 


Time (GMT)  Wavelength (Ang)  Step Number  Raw Counts  Counts/Second

   85.48        2950.00           1222          49.00       177.42
   85.55        2950.25           1226          47.00       168.70
   85.58        2950.50           1229          51.00       186.14
   85.61        2950.75           1232          42.00       146.91
   85.64        2951.00           1236          44.00       155.62
   85.67        2951.25           1239          44.00       155.62
   85.70        2951.50           1242          41.00       142.55
   85.74        2951.75           1246          43.00       151.26
   85.77        2952.00           1249          47.00       168.70
   85.80        2952.25           1252          61.00       229.73
   85.83        2952.50           1256          45.00       159.98
   85.86        2952.75           1259          55.00       203.58
   85.89        2953.00           1262          43.00       151.26
   85.92        2953.25           1266          43.00       151.26
   85.95        2953.50           1269          48.00       173.06
   85.98        2953.75           1272          44.00       155.62
   86.01        2954.00           1276          50.00       181.78
   86.04        2954.25           1279          49.00       177.42
   86.07        2954.50           1282          44.00       155.62
   86.10        2954.75           1286          51.00       186.14
   86.13        2955.00           1289          43.00       151.26
   86.17        2955.25           1292          51.00       186.14
   86.20        2955.50           1296          47.00       168.70
   86.23        2955.75           1299          53.00       194.86
   86.26        2956.00           1302          58.00       216.65
   86.29        2956.25           1306          44.00       155.62
   86.32        2956.50           1309          48.00       173.06
   86.35        2956.75           1312          48.00       173.06
   86.38        2957.00           1316          46.00       164.34
   86.41        2957.25           1319          54.00       199.22
   86.44        2957.50           1322          45.00       159.98
   86.47        2957.75           1326          51.00       186.14
   86.50        2958.00           1329          46.00       164.34
   86.53        2958.25           1332          45.00       159.98
   86.56        2958.50           1336          55.00       203.58
   86.60        2958.75           1339          42.00       146.91
   86.63        2959.00           1342          56.00       207.94
   86.66        2959.25           1346          51.00       186.14
   86.69        2959.50           1349          61.00       229.73
   86.72        2959.75           1352          68.00       260.25
   86.75        2960.00           1356         103.00       412.82
   86.78        2960.25           1359         129.00       526.16
   86.81        2960.50           1362         178.00       739.77
   86.84        2960.75           1366         220.00       922.87
   86.87        2961.00           1369         264.00      1114.68
   86.91        2961.25           1372         294.00      1245.47
   86.94        2961.50           1376         418.00      1786.06
   86.97        2961.75           1379         644.00      2771.37
   87.00        2962.00           1382        1310.00      5675.33
   87.03        2962.25           1386        3097.00     13469.70
   87.06        2962.50           1389        4785.00     20835.60
   87.09        2962.75           1392        6482.00     28244.06
   87.12        2963.00           1396        8611.00     37543.13
   87.15        2963.25           1399       10171.00     44360.22
   87.19        2963.50           1402       12009.00     52395.73
   87.22        2963.75           1406       14189.00     61931.44
   87.25        2964.00           1409       15869.00     69283.79
   87.28        2964.25           1412       17468.00     76284.68
   87.31        2964.50           1416       19920.00     87025.94
   87.34        2964.75           1419       21470.00     93819.49
   87.37        2965.00           1422       23214.00    101466.60
   87.40        2965.25           1426       25363.00    110894.50
   87.43        2965.50           1429       27155.00    118760.20
   87.46        2965.75           1432       28861.00    126251.90
   87.49        2966.00           1436       30940.00    135386.20
   87.53        2966.25           1439       32461.00    142072.00
   87.56        2966.50           1442       34085.00    149213.50
   87.59        2966.75           1446       35679.00    156226.10
   87.62        2967.00           1449       36232.00    158659.70
   87.65        2967.25           1452       36259.00    158778.50
   87.68        2967.50           1456       36168.00    158378.00
   87.71        2967.75           1459       36157.00    158329.60
   87.74        2968.00           1462       35953.00    157431.90
   87.77        2968.25           1466       35205.00    154140.50
   87.81        2968.50           1469       33565.00    146926.50
   87.84        2968.75           1472       32138.00    140652.00
   87.87        2969.00           1476       29679.00    129845.30
   87.90        2969.25           1479       28027.00    122589.10
   87.93        2969.50           1482       26304.00    115024.40
   87.96        2969.75           1486       24248.00    106002.20
   87.99        2970.00           1489       22710.00     99256.32
   88.02        2970.25           1492       21098.00     92188.78
   88.05        2970.50           1496       18930.00     82688.31
   88.08        2970.75           1499       17278.00     75452.65
   88.12        2971.00           1502       15549.00     67883.10
   88.15        2971.25           1506       13107.00     57197.90
   88.18        2971.50           1509       11445.00     49929.58
   88.21        2971.75           1513        9230.00     40247.79
   88.24        2972.00           1516        7722.00     33659.52
   88.27        2972.25           1519        6003.00     26152.60
   88.30        2972.50           1523        3818.00     16615.52
   88.33        2972.75           1526        2327.00     10110.74
   88.36        2973.00           1529        1125.00      4868.63
   88.39        2973.25           1533         462.00      1977.89
   88.43        2973.50           1536         358.00      1524.48
   88.46        2973.75           1539         300.00      1271.63
   88.49        2974.00           1543         244.00      1027.49
   88.52        2974.25           1546         201.00       840.04
   88.55        2974.50           1549         148.00       608.99
   88.58        2974.75           1553          91.00       360.51
   88.61        2975.00           1556          74.00       286.40
   88.64        2975.25           1559          61.00       229.73
   88.67        2975.50           1563          49.00       177.42
   88.70        2975.75           1566          53.00       194.86
   88.73        2976.00           1569          55.00       203.58
   88.76        2976.25           1573          51.00       186.14
   88.79        2976.50           1576          44.00       155.62
   88.83        2976.75           1579          47.00       168.70
   88.86        2977.00           1583          54.00       199.22
   88.89        2977.25           1586          52.00       190.50
   88.92        2977.50           1590          48.00       173.06
   88.95        2977.75           1593          50.00       181.78
   88.98        2978.00           1596          43.00       151.26
   89.01        2978.25           1600          47.00       168.70
   89.04        2978.50           1603          46.00       164.34
   89.07        2978.75           1606          48.00       173.06
   89.10        2979.00           1610          40.00       138.19
   89.13        2979.25           1613          59.00       221.01
   89.16        2979.50           1616          47.00       168.70
   89.19        2979.75           1620          49.00       177.42
   89.22        2980.00           1623          43.00       151.26
   89.25        2980.25           1626          44.00       155.62
   89.28        2980.50           1630          48.00       173.06
   89.32        2980.75           1633          46.00       164.34
   89.35        2981.00           1637          44.00       155.62
   89.38        2981.25           1640          41.00       142.55
   89.41        2981.50           1643          48.00       173.06
   89.44        2981.75           1647          51.00       186.14
   89.47        2982.00           1650          49.00       177.42
   89.50        2982.25           1653          47.00       168.70
   89.53        2982.50           1657          38.00       129.47
   89.56        2982.75           1660          47.00       168.70
   89.59        2983.00           1663          44.00       155.62
   89.62        2983.25           1667          42.00       146.91
   89.65        2983.50           1670          42.00       146.91
   89.68        2983.75           1673          46.00       164.34
   89.72        2984.00           1677          48.00       173.06
HS scan finished at 01:29:56
end
************************************************************
  HS Scan of (1) Internal mercury lamp
************************************************************
Integration time is 0.2294 seconds per sample
dh150417Manchester 53.47 2.23 2.750537pr1000
************************************************************
Dead Time -------------------------  3E-08 
Number of Cycles Used -------------  4 
Starting Wavelength (Angstroms) ---  2950 
Final Wavelength (Angstoms) -------  2984 
Wavelength Increment (Angstroms) --  .25 
Filter Wheel #1 Position ---------- (1) Ground quartz diffuser (ND=2.32)
Filter Wheel #2 Position ---------- (1) Neutral Density 0.494



************************************************************
HS scan start time = 20:12:03
Dark Count =  4.6 


Time (GMT)  Wavelength (Ang)  Step Number  Raw Counts  Counts/Second

 1212.41        2950.00           1222          44.00       171.75
 1212.48        2950.25           1226          53.00       210.99
 1212.51        2950.50           1229          46.00       180.47
 1212.54        2950.75           1232          53.00       210.99
 1212.57        2951.00           1236          45.00       176.11
 1212.60        2951.25           1239          36.00       136.88
 1212.63        2951.50           1242          47.00       184.83
 1212.67        2951.75           1246          53.00       210.99
 1212.70        2952.00           1249          47.00       184.83
 1212.73        2952.25           1252          44.00       171.75
 1212.76        2952.50           1256          44.00       171.75
 1212.79        2952.75           1259          46.00       180.47
 1212.82        2953.00           1262          41.00       158.68
 1212.85        2953.25           1266          44.00       171.75
 1212.88        2953.50           1269          44.00       171.75
 1212.91        2953.75           1272          53.00       210.99
 1212.94        2954.00           1276          53.00       210.99
 1212.98        2954.25           1279          44.00       171.75
 1213.01        2954.50           1282          55.00       219.71
 1213.04        2954.75           1286          41.00       158.68
 1213.07        2955.00           1289          47.00       184.83
 1213.10        2955.25           1292          47.00       184.83
 1213.13        2955.50           1296          52.00       206.63
 1213.16        2955.75           1299          47.00       184.83
 1213.19        2956.00           1302          45.00       176.11
 1213.22        2956.25           1306          42.00       163.03
 1213.25        2956.50           1309          52.00       206.63
 1213.28        2956.75           1312          41.00       158.68
 1213.31        2957.00           1316          55.00       219.71
 1213.35        2957.25           1319          42.00       163.03
 1213.38        2957.50           1322          45.00       176.11
 1213.41        2957.75           1326          47.00       184.83
 1213.44        2958.00           1329          49.00       193.55
 1213.47        2958.25           1332          47.00       184.83
 1213.50        2958.50           1336          50.00       197.91
 1213.53        2958.75           1339          49.00       193.55
 1213.56        2959.00           1342          42.00       163.03
 1213.59        2959.25           1346          52.00       206.63
 1213.62        2959.50           1349          49.00       193.55
 1213.65        2959.75           1352          70.00       285.09
 1213.68        2960.00           1356          93.00       385.36
 1213.71        2960.25           1359         129.00       542.29
 1213.74        2960.50           1362         164.00       694.87
 1213.78        2960.75           1366         225.00       960.79
 1213.81        2961.00           1369         270.00      1156.97
 1213.84        2961.25           1372         309.00      1326.99
 1213.87        2961.50           1376         416.00      1793.47
 1213.90        2961.75           1379         628.00      2717.75
 1213.93        2962.00           1382        1314.00      5708.91
 1213.96        2962.25           1386        3076.00     13394.22
 1213.99        2962.50           1389        4666.00     20332.36
 1214.02        2962.75           1392        6307.00     27496.08
 1214.05        2963.00           1396        8501.00     37078.71
 1214.08        2963.25           1399       10105.00     44087.92
 1214.12        2963.50           1402       11799.00     51493.62
 1214.15        2963.75           1406       13899.00     60678.80
 1214.18        2964.00           1409       15671.00     68433.29
 1214.21        2964.25           1412       17377.00     75902.37
 1214.24        2964.50           1416       19563.00     85477.85
 1214.27        2964.75           1419       21260.00     92915.13
 1214.30        2965.00           1422       22766.00     99518.12
 1214.33        2965.25           1426       24964.00    109159.90
 1214.36        2965.50           1429       26559.00    116160.00
 1214.39        2965.75           1432       28312.00    123856.90
 1214.43        2966.00           1436       30890.00    135182.70
 1214.46        2966.25           1439       32378.00    141723.40
 1214.49        2966.50           1442       33676.00    147430.90
 1214.52        2966.75           1446       35185.00    154068.80
 1214.55        2967.00           1449       35936.00    157373.30
 1214.58        2967.25           1452       35915.00    157280.90
 1214.61        2967.50           1456       35838.00    156942.10
 1214.64        2967.75           1459       35901.00    157219.30
 1214.67        2968.00           1462       35589.00    155846.40
 1214.71        2968.25           1466       34629.00    151622.70
 1214.74        2968.50           1469       33238.00    145504.70
 1214.77        2968.75           1472       31628.00    138426.40
 1214.80        2969.00           1476       29597.00    129501.30
 1214.83        2969.25           1479       27853.00    121841.20
 1214.86        2969.50           1482       26041.00    113886.30
 1214.89        2969.75           1486       23881.00    104408.50
 1214.92        2970.00           1489       22398.00     97904.41
 1214.95        2970.25           1492       20728.00     90583.24
 1214.98        2970.50           1496       18652.00     81486.68
 1215.02        2970.75           1499       16974.00     74137.69
 1215.05        2971.00           1502       15420.00     67334.66
 1215.08        2971.25           1506       13128.00     57305.94
 1215.11        2971.50           1509       11495.00     50164.37
 1215.14        2971.75           1513        9259.00     40390.68
 1215.17        2972.00           1516        7698.00     33570.85
 1215.20        2972.25           1519        5831.00     25417.81
 1215.23        2972.50           1523        3638.00     15846.24
 1215.26        2972.75           1526        2216.00      9642.72
 1215.29        2973.00           1529        1057.00      4588.25
 1215.33        2973.25           1533         456.00      1967.86
 1215.36        2973.50           1536         334.00      1435.98
 1215.39        2973.75           1539         273.00      1170.05
 1215.42        2974.00           1543         211.00       899.76
 1215.45        2974.25           1546         178.00       755.90
 1215.48        2974.50           1549         127.00       533.57
 1215.51        2974.75           1553          86.00       354.84
 1215.54        2975.00           1556          59.00       237.14
 1215.57        2975.25           1559          57.00       228.42
 1215.61        2975.50           1563          54.00       215.35
 1215.64        2975.75           1566          49.00       193.55
 1215.67        2976.00           1569          67.00       272.02
 1215.70        2976.25           1573          52.00       206.63
 1215.73        2976.50           1576          46.00       180.47
 1215.76        2976.75           1579          47.00       184.83
 1215.79        2977.00           1583          50.00       197.91
 1215.82        2977.25           1586          50.00       197.91
 1215.85        2977.50           1590          43.00       167.39
 1215.88        2977.75           1593          53.00       210.99
 1215.91        2978.00           1596          42.00       163.03
 1215.94        2978.25           1600          48.00       189.19
 1215.97        2978.50           1603          46.00       180.47
 1216.01        2978.75           1606          46.00       180.47
 1216.04        2979.00           1610          46.00       180.47
 1216.07        2979.25           1613          43.00       167.39
 1216.10        2979.50           1616          44.00       171.75
 1216.13        2979.75           1620          44.00       171.75
 1216.16        2980.00           1623          45.00       176.11
 1216.19        2980.25           1626          44.00       171.75
 1216.22        2980.50           1630          46.00       180.47
 1216.25        2980.75           1633          40.00       154.32
 1216.28        2981.00           1637          39.00       149.96
 1216.31        2981.25           1640          42.00       163.03
 1216.34        2981.50           1643          40.00       154.32
 1216.38        2981.75           1647          49.00       193.55
 1216.41        2982.00           1650          42.00       163.03
 1216.44        2982.25           1653          43.00       167.39
 1216.47        2982.50           1657          49.00       193.55
 1216.50        2982.75           1660          42.00       163.03
 1216.53        2983.00           1663          47.00       184.83
 1216.56        2983.25           1667          47.00       184.83
 1216.59        2983.50           1670          41.00       158.68
 1216.62        2983.75           1673          52.00       206.63
 1216.65        2984.00           1677          37.00       141.24
HS scan finished at 20:16:52
end
