************************************************************
  HS Scan of (1) Internal mercury lamp
************************************************************
Integration time is 0.2294 seconds per sample
dh100419Manchester 53.47 2.23 2.804185pr1000
************************************************************
Dead Time -------------------------  3E-08 
Number of Cycles Used -------------  4 
Starting Wavelength (Angstroms) ---  2950 
Final Wavelength (Angstoms) -------  2984 
Wavelength Increment (Angstroms) --  .25 
Filter Wheel #1 Position ---------- (1) Ground quartz diffuser (ND=2.32)
Filter Wheel #2 Position ---------- (1) Neutral Density 0.494



************************************************************
HS scan start time = 01:37:27
Dark Count =  6.4 


Time (GMT)  Wavelength (Ang)  Step Number  Raw Counts  Counts/Second

   97.82        2950.00           1222          59.00       229.30
   97.88        2950.25           1226          52.00       198.78
   97.91        2950.50           1229          55.00       211.86
   97.94        2950.75           1232          56.00       216.22
   97.98        2951.00           1236          61.00       238.01
   98.01        2951.25           1239          59.00       229.30
   98.04        2951.50           1242          50.00       190.06
   98.07        2951.75           1246          61.00       238.01
   98.10        2952.00           1249          61.00       238.01
   98.13        2952.25           1252          61.00       238.01
   98.16        2952.50           1256          58.00       224.94
   98.19        2952.75           1259          59.00       229.30
   98.22        2953.00           1262          49.00       185.70
   98.25        2953.25           1266          53.00       203.14
   98.28        2953.50           1269          60.00       233.65
   98.32        2953.75           1272          57.00       220.58
   98.35        2954.00           1276          60.00       233.65
   98.38        2954.25           1279          65.00       255.45
   98.41        2954.50           1282          51.00       194.42
   98.44        2954.75           1286          61.00       238.01
   98.47        2955.00           1289          63.00       246.73
   98.50        2955.25           1292          63.00       246.73
   98.53        2955.50           1296          54.00       207.50
   98.56        2955.75           1299          57.00       220.58
   98.59        2956.00           1302          52.00       198.78
   98.63        2956.25           1306          60.00       233.65
   98.66        2956.50           1309          55.00       211.86
   98.69        2956.75           1312          47.00       176.98
   98.72        2957.00           1316          54.00       207.50
   98.75        2957.25           1319          54.00       207.50
   98.78        2957.50           1322          56.00       216.22
   98.81        2957.75           1326          50.00       190.06
   98.84        2958.00           1329          54.00       207.50
   98.87        2958.25           1332          51.00       194.42
   98.90        2958.50           1336          51.00       194.42
   98.94        2958.75           1339          62.00       242.37
   98.97        2959.00           1342          49.00       185.70
   99.00        2959.25           1346          65.00       255.45
   99.03        2959.50           1349          63.00       246.73
   99.06        2959.75           1352          71.00       281.61
   99.09        2960.00           1356          96.00       390.59
   99.12        2960.25           1359         127.00       525.73
   99.15        2960.50           1362         145.00       604.20
   99.18        2960.75           1366         197.00       830.88
   99.21        2961.00           1369         217.00       918.07
   99.25        2961.25           1372         269.00      1144.76
   99.28        2961.50           1376         324.00      1384.54
   99.31        2961.75           1379         457.00      1964.37
   99.34        2962.00           1382         930.00      4026.64
   99.37        2962.25           1386        2280.00      9914.02
   99.40        2962.50           1389        3392.00     14765.04
   99.43        2962.75           1392        4533.00     19744.04
   99.46        2963.00           1396        6170.00     26890.04
   99.49        2963.25           1399        7402.00     32270.11
   99.52        2963.50           1402        8555.00     37306.77
   99.56        2963.75           1406       10483.00     45732.28
   99.59        2964.00           1409       11773.00     51372.05
   99.62        2964.25           1412       13056.00     56983.12
   99.65        2964.50           1416       14675.00     64066.35
   99.68        2964.75           1419       15792.00     68955.05
   99.71        2965.00           1422       17246.00     75320.84
   99.74        2965.25           1426       18876.00     82460.06
   99.77        2965.50           1429       20167.00     88116.68
   99.80        2965.75           1432       21343.00     93271.08
   99.84        2966.00           1436       23046.00    100738.20
   99.87        2966.25           1439       24264.00    106080.70
   99.90        2966.50           1442       25371.00    110937.90
   99.93        2966.75           1446       26584.00    116261.80
   99.96        2967.00           1449       26669.00    116635.00
   99.99        2967.25           1452       26719.00    116854.40
  100.02        2967.50           1456       26853.00    117442.70
  100.05        2967.75           1459       26704.00    116788.60
  100.08        2968.00           1462       26612.00    116384.70
  100.11        2968.25           1466       25881.00    113176.10
  100.15        2968.50           1469       24777.00    108331.50
  100.18        2968.75           1472       23663.00    103444.30
  100.21        2969.00           1476       21979.00     96059.34
  100.24        2969.25           1479       20967.00     91622.90
  100.27        2969.50           1482       19610.00     85675.90
  100.30        2969.75           1486       17839.00     77917.77
  100.33        2970.00           1489       16685.00     72864.43
  100.36        2970.25           1492       15471.00     67550.00
  100.40        2970.50           1496       13927.00     60793.42
  100.43        2970.75           1499       12659.00     55246.68
  100.46        2971.00           1502       11332.00     49443.82
  100.49        2971.25           1506        9732.00     42449.85
  100.52        2971.50           1509        8628.00     37625.71
  100.55        2971.75           1513        7029.00     30641.06
  100.58        2972.00           1516        5853.00     25506.00
  100.61        2972.25           1519        4575.00     19927.34
  100.64        2972.50           1523        3002.00     13063.53
  100.68        2972.75           1526        1827.00      7938.25
  100.71        2973.00           1529         878.00      3799.91
  100.74        2973.25           1533         368.00      1576.36
  100.77        2973.50           1536         270.00      1149.12
  100.80        2973.75           1539         222.00       939.87
  100.83        2974.00           1543         204.00       861.40
  100.86        2974.25           1546         167.00       700.10
  100.89        2974.50           1549         122.00       503.93
  100.92        2974.75           1553          90.00       364.43
  100.95        2975.00           1556          71.00       281.61
  100.99        2975.25           1559          60.00       233.65
  101.02        2975.50           1563          54.00       207.50
  101.05        2975.75           1566          53.00       203.14
  101.08        2976.00           1569          49.00       185.70
  101.11        2976.25           1573          50.00       190.06
  101.14        2976.50           1576          61.00       238.01
  101.17        2976.75           1579          49.00       185.70
  101.20        2977.00           1583          51.00       194.42
  101.23        2977.25           1586          51.00       194.42
  101.26        2977.50           1590          54.00       207.50
  101.29        2977.75           1593          49.00       185.70
  101.32        2978.00           1596          52.00       198.78
  101.35        2978.25           1600          51.00       194.42
  101.39        2978.50           1603          55.00       211.86
  101.42        2978.75           1606          52.00       198.78
  101.45        2979.00           1610          55.00       211.86
  101.48        2979.25           1613          48.00       181.34
  101.51        2979.50           1616          56.00       216.22
  101.54        2979.75           1620          48.00       181.34
  101.57        2980.00           1623          53.00       203.14
  101.60        2980.25           1626          47.00       176.98
  101.63        2980.50           1630          57.00       220.58
  101.66        2980.75           1633          59.00       229.30
  101.69        2981.00           1637          51.00       194.42
  101.73        2981.25           1640          50.00       190.06
  101.76        2981.50           1643          53.00       203.14
  101.79        2981.75           1647          57.00       220.58
  101.82        2982.00           1650          44.00       163.91
  101.85        2982.25           1653          49.00       185.70
  101.88        2982.50           1657          55.00       211.86
  101.91        2982.75           1660          56.00       216.22
  101.94        2983.00           1663          51.00       194.42
  101.98        2983.25           1667          48.00       181.34
  102.01        2983.50           1670          53.00       203.14
  102.04        2983.75           1673          54.00       207.50
  102.07        2984.00           1677          49.00       185.70
HS scan finished at 01:42:17
end
************************************************************
  HS Scan of (1) Internal mercury lamp
************************************************************
Integration time is 0.2294 seconds per sample
dh100419Manchester 53.47 2.23 2.804185pr1000
************************************************************
Dead Time -------------------------  3E-08 
Number of Cycles Used -------------  4 
Starting Wavelength (Angstroms) ---  2950 
Final Wavelength (Angstoms) -------  2984 
Wavelength Increment (Angstroms) --  .25 
Filter Wheel #1 Position ---------- (1) Ground quartz diffuser (ND=2.32)
Filter Wheel #2 Position ---------- (1) Neutral Density 0.494



************************************************************
HS scan start time = 20:12:10
Dark Count =  6 


Time (GMT)  Wavelength (Ang)  Step Number  Raw Counts  Counts/Second

 1212.54        2950.00           1222          55.00       213.60
 1212.61        2950.25           1226          65.00       257.19
 1212.64        2950.50           1229          46.00       174.37
 1212.67        2950.75           1232          60.00       235.40
 1212.70        2951.00           1236          49.00       187.45
 1212.73        2951.25           1239          53.00       204.88
 1212.76        2951.50           1242          59.00       231.04
 1212.79        2951.75           1246          60.00       235.40
 1212.82        2952.00           1249          49.00       187.45
 1212.85        2952.25           1252          57.00       222.32
 1212.89        2952.50           1256          61.00       239.76
 1212.92        2952.75           1259          51.00       196.17
 1212.95        2953.00           1262          51.00       196.17
 1212.98        2953.25           1266          59.00       231.04
 1213.01        2953.50           1269          60.00       235.40
 1213.04        2953.75           1272          57.00       222.32
 1213.07        2954.00           1276          65.00       257.19
 1213.10        2954.25           1279          54.00       209.24
 1213.13        2954.50           1282          60.00       235.40
 1213.16        2954.75           1286          50.00       191.81
 1213.19        2955.00           1289          57.00       222.32
 1213.23        2955.25           1292          54.00       209.24
 1213.26        2955.50           1296          53.00       204.88
 1213.29        2955.75           1299          54.00       209.24
 1213.32        2956.00           1302          49.00       187.45
 1213.35        2956.25           1306          58.00       226.68
 1213.38        2956.50           1309          48.00       183.09
 1213.41        2956.75           1312          50.00       191.81
 1213.44        2957.00           1316          56.00       217.96
 1213.47        2957.25           1319          55.00       213.60
 1213.50        2957.50           1322          59.00       231.04
 1213.53        2957.75           1326          66.00       261.55
 1213.57        2958.00           1329          56.00       217.96
 1213.60        2958.25           1332          48.00       183.09
 1213.63        2958.50           1336          54.00       209.24
 1213.66        2958.75           1339          53.00       204.88
 1213.69        2959.00           1342          53.00       204.88
 1213.72        2959.25           1346          62.00       244.12
 1213.75        2959.50           1349          57.00       222.32
 1213.78        2959.75           1352          82.00       331.30
 1213.81        2960.00           1356         103.00       422.85
 1213.84        2960.25           1359         120.00       496.96
 1213.87        2960.50           1362         144.00       601.58
 1213.90        2960.75           1366         183.00       771.60
 1213.94        2961.00           1369         204.00       863.14
 1213.97        2961.25           1372         255.00      1085.48
 1214.00        2961.50           1376         294.00      1255.50
 1214.03        2961.75           1379         374.00      1604.26
 1214.06        2962.00           1382         727.00      3143.28
 1214.09        2962.25           1386        1874.00      8144.97
 1214.12        2962.50           1389        2947.00     12825.34
 1214.15        2962.75           1392        4178.00     18196.51
 1214.18        2963.00           1396        5911.00     25760.97
 1214.21        2963.25           1399        7047.00     30721.42
 1214.25        2963.50           1402        8271.00     36067.78
 1214.28        2963.75           1406       10032.00     43762.74
 1214.31        2964.00           1409       11163.00     48706.69
 1214.34        2964.25           1412       12448.00     54325.61
 1214.37        2964.50           1416       14163.00     61827.74
 1214.40        2964.75           1419       15369.00     67105.32
 1214.43        2965.00           1422       16555.00     72297.00
 1214.46        2965.25           1426       18383.00     80302.21
 1214.49        2965.50           1429       19406.00     84783.82
 1214.52        2965.75           1432       20724.00     90559.56
 1214.56        2966.00           1436       22362.00     97740.41
 1214.59        2966.25           1439       23415.00    102358.30
 1214.62        2966.50           1442       24504.00    107135.40
 1214.65        2966.75           1446       25778.00    112725.80
 1214.68        2967.00           1449       26490.00    115851.00
 1214.71        2967.25           1452       26800.00    117211.80
 1214.74        2967.50           1456       26572.00    116210.90
 1214.77        2967.75           1459       26633.00    116478.70
 1214.80        2968.00           1462       26567.00    116189.00
 1214.84        2968.25           1466       26022.00    113796.70
 1214.87        2968.50           1469       25167.00    110044.50
 1214.90        2968.75           1472       24022.00    105020.90
 1214.93        2969.00           1476       22470.00     98213.98
 1214.96        2969.25           1479       21212.00     92698.59
 1214.99        2969.50           1482       20037.00     87548.74
 1215.02        2969.75           1486       18366.00     80227.74
 1215.05        2970.00           1489       17212.00     75173.70
 1215.08        2970.25           1492       15974.00     69753.49
 1215.12        2970.50           1496       14226.00     62103.39
 1215.15        2970.75           1499       13104.00     57194.83
 1215.18        2971.00           1502       11741.00     51233.87
 1215.21        2971.25           1506       10052.00     43850.15
 1215.24        2971.50           1509        8936.00     38973.18
 1215.27        2971.75           1513        7339.00     31996.70
 1215.30        2972.00           1516        6214.00     27083.90
 1215.33        2972.25           1519        4899.00     21343.22
 1215.36        2972.50           1523        3383.00     14727.52
 1215.40        2972.75           1526        2215.00      9632.25
 1215.43        2973.00           1529        1078.00      4673.72
 1215.46        2973.25           1533         402.00      1726.33
 1215.49        2973.50           1536         278.00      1185.74
 1215.52        2973.75           1539         240.00      1020.08
 1215.55        2974.00           1543         176.00       741.08
 1215.58        2974.25           1546         143.00       597.22
 1215.61        2974.50           1549         110.00       453.36
 1215.64        2974.75           1553          91.00       370.54
 1215.67        2975.00           1556          70.00       278.99
 1215.71        2975.25           1559          63.00       248.48
 1215.74        2975.50           1563          53.00       204.88
 1215.77        2975.75           1566          56.00       217.96
 1215.80        2976.00           1569          57.00       222.32
 1215.83        2976.25           1573          55.00       213.60
 1215.86        2976.50           1576          53.00       204.88
 1215.89        2976.75           1579          47.00       178.73
 1215.92        2977.00           1583          54.00       209.24
 1215.95        2977.25           1586          56.00       217.96
 1215.99        2977.50           1590          57.00       222.32
 1216.02        2977.75           1593          50.00       191.81
 1216.05        2978.00           1596          49.00       187.45
 1216.08        2978.25           1600          57.00       222.32
 1216.11        2978.50           1603          54.00       209.24
 1216.14        2978.75           1606          57.00       222.32
 1216.17        2979.00           1610          51.00       196.17
 1216.20        2979.25           1613          56.00       217.96
 1216.23        2979.50           1616          49.00       187.45
 1216.26        2979.75           1620          55.00       213.60
 1216.30        2980.00           1623          52.00       200.52
 1216.33        2980.25           1626          53.00       204.88
 1216.36        2980.50           1630          53.00       204.88
 1216.39        2980.75           1633          46.00       174.37
 1216.42        2981.00           1637          49.00       187.45
 1216.45        2981.25           1640          51.00       196.17
 1216.48        2981.50           1643          46.00       174.37
 1216.51        2981.75           1647          52.00       200.52
 1216.54        2982.00           1650          54.00       209.24
 1216.57        2982.25           1653          51.00       196.17
 1216.60        2982.50           1657          51.00       196.17
 1216.64        2982.75           1660          48.00       183.09
 1216.67        2983.00           1663          47.00       178.73
 1216.70        2983.25           1667          47.00       178.73
 1216.73        2983.50           1670          59.00       231.04
 1216.76        2983.75           1673          42.00       156.93
 1216.79        2984.00           1677          56.00       217.96
HS scan finished at 20:17:01
end
