************************************************************
  HS Scan of (1) Internal mercury lamp
************************************************************
Integration time is 0.2294 seconds per sample
dh180417Manchester 53.47 2.23 2.750537pr1000
************************************************************
Dead Time -------------------------  3E-08 
Number of Cycles Used -------------  4 
Starting Wavelength (Angstroms) ---  2950 
Final Wavelength (Angstoms) -------  2984 
Wavelength Increment (Angstroms) --  .25 
Filter Wheel #1 Position ---------- (1) Ground quartz diffuser (ND=2.32)
Filter Wheel #2 Position ---------- (1) Neutral Density 0.494



************************************************************
HS scan start time = 02:55:26
Dark Count =  7.7 


Time (GMT)  Wavelength (Ang)  Step Number  Raw Counts  Counts/Second

  175.80        2950.00           1222          48.00       175.68
  175.87        2950.25           1226          44.00       158.24
  175.90        2950.50           1229          48.00       175.68
  175.93        2950.75           1232          44.00       158.24
  175.96        2951.00           1236          52.00       193.11
  175.99        2951.25           1239          38.00       132.08
  176.02        2951.50           1242          44.00       158.24
  176.05        2951.75           1246          46.00       166.96
  176.08        2952.00           1249          45.00       162.60
  176.11        2952.25           1252          45.00       162.60
  176.15        2952.50           1256          43.00       153.88
  176.18        2952.75           1259          44.00       158.24
  176.21        2953.00           1262          48.00       175.68
  176.24        2953.25           1266          43.00       153.88
  176.27        2953.50           1269          41.00       145.16
  176.30        2953.75           1272          48.00       175.68
  176.33        2954.00           1276          46.00       166.96
  176.36        2954.25           1279          46.00       166.96
  176.39        2954.50           1282          48.00       175.68
  176.42        2954.75           1286          44.00       158.24
  176.46        2955.00           1289          45.00       162.60
  176.49        2955.25           1292          48.00       175.68
  176.52        2955.50           1296          46.00       166.96
  176.55        2955.75           1299          45.00       162.60
  176.58        2956.00           1302          48.00       175.68
  176.61        2956.25           1306          47.00       171.32
  176.64        2956.50           1309          50.00       184.40
  176.67        2956.75           1312          43.00       153.88
  176.70        2957.00           1316          48.00       175.68
  176.73        2957.25           1319          43.00       153.88
  176.76        2957.50           1322          38.00       132.08
  176.79        2957.75           1326          46.00       166.96
  176.83        2958.00           1329          55.00       206.19
  176.86        2958.25           1332          52.00       193.11
  176.89        2958.50           1336          51.00       188.75
  176.92        2958.75           1339          49.00       180.04
  176.95        2959.00           1342          48.00       175.68
  176.98        2959.25           1346          58.00       219.27
  177.01        2959.50           1349          66.00       254.14
  177.04        2959.75           1352          79.00       310.81
  177.07        2960.00           1356         108.00       437.23
  177.10        2960.25           1359         152.00       629.04
  177.13        2960.50           1362         182.00       759.83
  177.17        2960.75           1366         245.00      1034.47
  177.20        2961.00           1369         279.00      1182.69
  177.23        2961.25           1372         327.00      1391.95
  177.26        2961.50           1376         418.00      1788.67
  177.29        2961.75           1379         600.00      2582.15
  177.32        2962.00           1382        1163.00      5036.94
  177.35        2962.25           1386        2747.00     11945.43
  177.38        2962.50           1389        4281.00     18638.58
  177.41        2962.75           1392        5882.00     25626.93
  177.45        2963.00           1396        8097.00     35300.22
  177.48        2963.25           1399        9741.00     42483.49
  177.51        2963.50           1402       11400.00     49735.45
  177.54        2963.75           1406       13687.00     59737.74
  177.57        2964.00           1409       15432.00     67373.62
  177.60        2964.25           1412       17243.00     75302.01
  177.63        2964.50           1416       19309.00     84351.38
  177.66        2964.75           1419       20901.00     91327.92
  177.69        2965.00           1422       22632.00     98916.91
  177.72        2965.25           1426       24857.00    108676.80
  177.76        2965.50           1429       26750.00    116984.80
  177.79        2965.75           1432       28426.00    124344.00
  177.82        2966.00           1436       30692.00    134298.90
  177.85        2966.25           1439       32205.00    140949.10
  177.88        2966.50           1442       33809.00    148002.30
  177.91        2966.75           1446       35454.00    155238.70
  177.94        2967.00           1449       35888.00    157148.50
  177.97        2967.25           1452       36021.00    157733.80
  178.00        2967.50           1456       36074.00    157967.00
  178.04        2967.75           1459       36123.00    158182.60
  178.07        2968.00           1462       35929.00    157328.90
  178.10        2968.25           1466       35027.00    153360.00
  178.13        2968.50           1469       33881.00    148318.90
  178.16        2968.75           1472       32336.00    141525.10
  178.19        2969.00           1476       30082.00    131618.50
  178.22        2969.25           1479       28482.00    124589.90
  178.25        2969.50           1482       26840.00    117379.90
  178.28        2969.75           1486       24630.00    107680.80
  178.31        2970.00           1489       22954.00    100329.00
  178.34        2970.25           1492       21348.00     93287.30
  178.38        2970.50           1496       19195.00     83851.91
  178.41        2970.75           1499       17689.00     77255.13
  178.44        2971.00           1502       16092.00     70262.60
  178.47        2971.25           1506       13752.00     60022.11
  178.50        2971.50           1509       11999.00     52354.62
  178.53        2971.75           1513        9707.00     42334.90
  178.56        2972.00           1516        8042.00     35059.96
  178.59        2972.25           1519        6508.00     28360.21
  178.62        2972.50           1523        4445.00     19354.30
  178.65        2972.75           1526        2833.00     12320.60
  178.68        2973.00           1529        1468.00      6366.95
  178.71        2973.25           1533         506.00      2172.33
  178.75        2973.50           1536         348.00      1483.50
  178.78        2973.75           1539         285.00      1208.85
  178.81        2974.00           1543         227.00       956.00
  178.84        2974.25           1546         180.00       751.11
  178.87        2974.50           1549         122.00       498.26
  178.90        2974.75           1553          84.00       332.61
  178.93        2975.00           1556          57.00       214.91
  178.96        2975.25           1559          60.00       227.99
  178.99        2975.50           1563          44.00       158.24
  179.02        2975.75           1566          53.00       197.47
  179.05        2976.00           1569          44.00       158.24
  179.09        2976.25           1573          48.00       175.68
  179.12        2976.50           1576          50.00       184.40
  179.15        2976.75           1579          54.00       201.83
  179.18        2977.00           1583          54.00       201.83
  179.21        2977.25           1586          52.00       193.11
  179.24        2977.50           1590          42.00       149.52
  179.27        2977.75           1593          50.00       184.40
  179.30        2978.00           1596          50.00       184.40
  179.33        2978.25           1600          45.00       162.60
  179.36        2978.50           1603          48.00       175.68
  179.39        2978.75           1606          46.00       166.96
  179.42        2979.00           1610          45.00       162.60
  179.45        2979.25           1613          43.00       153.88
  179.49        2979.50           1616          48.00       175.68
  179.52        2979.75           1620         105.00       424.16
  179.55        2980.00           1623          50.00       184.40
  179.58        2980.25           1626          45.00       162.60
  179.61        2980.50           1630          45.00       162.60
  179.64        2980.75           1633          53.00       197.47
  179.67        2981.00           1637          44.00       158.24
  179.70        2981.25           1640          43.00       153.88
  179.73        2981.50           1643          44.00       158.24
  179.76        2981.75           1647          45.00       162.60
  179.80        2982.00           1650          49.00       180.04
  179.83        2982.25           1653          50.00       184.40
  179.86        2982.50           1657          57.00       214.91
  179.89        2982.75           1660          49.00       180.04
  179.92        2983.00           1663          52.00       193.11
  179.95        2983.25           1667          42.00       149.52
  179.98        2983.50           1670          44.00       158.24
  180.01        2983.75           1673          46.00       166.96
  180.04        2984.00           1677          48.00       175.68
HS scan finished at 03:00:16
end
************************************************************
  HS Scan of (1) Internal mercury lamp
************************************************************
Integration time is 0.2294 seconds per sample
dh180417Manchester 53.47 2.23 2.804185pr1000
************************************************************
Dead Time -------------------------  3E-08 
Number of Cycles Used -------------  4 
Starting Wavelength (Angstroms) ---  2950 
Final Wavelength (Angstoms) -------  2984 
Wavelength Increment (Angstroms) --  .25 
Filter Wheel #1 Position ---------- (1) Ground quartz diffuser (ND=2.32)
Filter Wheel #2 Position ---------- (1) Neutral Density 0.494



************************************************************
HS scan start time = 20:12:04
Dark Count =  7.5 


Time (GMT)  Wavelength (Ang)  Step Number  Raw Counts  Counts/Second

 1212.43        2950.00           1222          47.00       172.19
 1212.50        2950.25           1226          39.00       137.32
 1212.53        2950.50           1229          46.00       167.83
 1212.56        2950.75           1232          49.00       180.91
 1212.59        2951.00           1236          40.00       141.67
 1212.62        2951.25           1239          48.00       176.55
 1212.65        2951.50           1242          46.00       167.83
 1212.68        2951.75           1246          52.00       193.99
 1212.71        2952.00           1249          48.00       176.55
 1212.74        2952.25           1252          42.00       150.39
 1212.77        2952.50           1256          45.00       163.47
 1212.80        2952.75           1259          55.00       207.06
 1212.84        2953.00           1262          45.00       163.47
 1212.87        2953.25           1266          42.00       150.39
 1212.90        2953.50           1269          47.00       172.19
 1212.93        2953.75           1272          45.00       163.47
 1212.96        2954.00           1276          42.00       150.39
 1212.99        2954.25           1279          42.00       150.39
 1213.02        2954.50           1282          54.00       202.70
 1213.05        2954.75           1286          46.00       167.83
 1213.08        2955.00           1289          43.00       154.75
 1213.11        2955.25           1292          48.00       176.55
 1213.14        2955.50           1296          42.00       150.39
 1213.17        2955.75           1299          46.00       167.83
 1213.20        2956.00           1302          51.00       189.63
 1213.23        2956.25           1306          39.00       137.32
 1213.27        2956.50           1309          45.00       163.47
 1213.30        2956.75           1312          56.00       211.42
 1213.33        2957.00           1316          44.00       159.11
 1213.36        2957.25           1319          44.00       159.11
 1213.39        2957.50           1322          45.00       163.47
 1213.42        2957.75           1326          45.00       163.47
 1213.45        2958.00           1329          45.00       163.47
 1213.48        2958.25           1332          47.00       172.19
 1213.51        2958.50           1336          51.00       189.63
 1213.54        2958.75           1339          46.00       167.83
 1213.57        2959.00           1342          42.00       150.39
 1213.60        2959.25           1346          51.00       189.63
 1213.64        2959.50           1349          60.00       228.86
 1213.67        2959.75           1352          60.00       228.86
 1213.70        2960.00           1356          96.00       385.79
 1213.73        2960.25           1359         135.00       555.81
 1213.76        2960.50           1362         160.00       664.79
 1213.79        2960.75           1366         214.00       900.20
 1213.82        2961.00           1369         262.00      1109.45
 1213.85        2961.25           1372         315.00      1340.51
 1213.88        2961.50           1376         368.00      1571.57
 1213.92        2961.75           1379         521.00      2238.60
 1213.95        2962.00           1382         995.00      4305.26
 1213.98        2962.25           1386        2442.00     10615.85
 1214.01        2962.50           1389        3886.00     16915.73
 1214.04        2962.75           1392        5480.00     23872.80
 1214.07        2963.00           1396        7754.00     33802.79
 1214.10        2963.25           1399        9495.00     41409.30
 1214.13        2963.50           1402       10930.00     47681.50
 1214.16        2963.75           1406       13276.00     57940.65
 1214.20        2964.00           1409       14991.00     65444.41
 1214.23        2964.25           1412       16741.00     73104.80
 1214.26        2964.50           1416       19005.00     83020.38
 1214.29        2964.75           1419       20766.00     90737.08
 1214.32        2965.00           1422       22305.00     97483.90
 1214.35        2965.25           1426       24727.00    108107.20
 1214.38        2965.50           1429       26393.00    115418.60
 1214.41        2965.75           1432       27863.00    121872.40
 1214.44        2966.00           1436       30021.00    131351.40
 1214.47        2966.25           1439       31626.00    138404.80
 1214.50        2966.50           1442       33235.00    145478.80
 1214.54        2966.75           1446       34966.00    153092.60
 1214.57        2967.00           1449       35605.00    155904.00
 1214.60        2967.25           1452       35861.00    157030.50
 1214.63        2967.50           1456       35947.00    157409.00
 1214.66        2967.75           1459       35616.00    155952.40
 1214.69        2968.00           1462       35621.00    155974.40
 1214.72        2968.25           1466       34965.00    153088.10
 1214.75        2968.50           1469       33731.00    147660.10
 1214.78        2968.75           1472       32109.00    140528.00
 1214.82        2969.00           1476       30076.00    131593.00
 1214.85        2969.25           1479       28319.00    123874.90
 1214.88        2969.50           1482       26937.00    117806.60
 1214.91        2969.75           1486       24555.00    107352.60
 1214.94        2970.00           1489       23004.00    100549.10
 1214.97        2970.25           1492       21194.00     92613.10
 1215.00        2970.50           1496       19025.00     83108.00
 1215.03        2970.75           1499       17233.00     75259.10
 1215.06        2971.00           1502       15565.00     67956.63
 1215.10        2971.25           1506       13385.00     58417.46
 1215.13        2971.50           1509       11723.00     51148.61
 1215.16        2971.75           1513        9696.00     42287.71
 1215.19        2972.00           1516        8169.00     35615.63
 1215.22        2972.25           1519        6313.00     27509.62
 1215.25        2972.50           1523        4365.00     19006.04
 1215.28        2972.75           1526        2772.00     12055.36
 1215.31        2973.00           1529        1389.00      6023.32
 1215.35        2973.25           1533         534.00      2295.28
 1215.38        2973.50           1536         370.00      1580.28
 1215.41        2973.75           1539         300.00      1275.11
 1215.44        2974.00           1543         275.00      1166.13
 1215.47        2974.25           1546         184.00       769.42
 1215.50        2974.50           1549         145.00       599.40
 1215.53        2974.75           1553          94.00       377.07
 1215.56        2975.00           1556          67.00       259.37
 1215.59        2975.25           1559          50.00       185.27
 1215.62        2975.50           1563          51.00       189.63
 1215.65        2975.75           1566          55.00       207.06
 1215.68        2976.00           1569          51.00       189.63
 1215.71        2976.25           1573          41.00       146.03
 1215.74        2976.50           1576          53.00       198.34
 1215.78        2976.75           1579          49.00       180.91
 1215.81        2977.00           1583          44.00       159.11
 1215.84        2977.25           1586          52.00       193.99
 1215.87        2977.50           1590          42.00       150.39
 1215.90        2977.75           1593          42.00       150.39
 1215.93        2978.00           1596          43.00       154.75
 1215.96        2978.25           1600          40.00       141.67
 1215.99        2978.50           1603          48.00       176.55
 1216.02        2978.75           1606          49.00       180.91
 1216.05        2979.00           1610          45.00       163.47
 1216.08        2979.25           1613          46.00       167.83
 1216.11        2979.50           1616          45.00       163.47
 1216.15        2979.75           1620          49.00       180.91
 1216.18        2980.00           1623          42.00       150.39
 1216.21        2980.25           1626          45.00       163.47
 1216.24        2980.50           1630          40.00       141.67
 1216.27        2980.75           1633          48.00       176.55
 1216.30        2981.00           1637          40.00       141.67
 1216.33        2981.25           1640          44.00       159.11
 1216.36        2981.50           1643          42.00       150.39
 1216.39        2981.75           1647          50.00       185.27
 1216.42        2982.00           1650          48.00       176.55
 1216.45        2982.25           1653          37.00       128.60
 1216.48        2982.50           1657          39.00       137.32
 1216.51        2982.75           1660          42.00       150.39
 1216.55        2983.00           1663          36.00       124.24
 1216.58        2983.25           1667          45.00       163.47
 1216.61        2983.50           1670          47.00       172.19
 1216.64        2983.75           1673          50.00       185.27
 1216.67        2984.00           1677          50.00       185.27
HS scan finished at 20:16:53
end
