************************************************************
  HS Scan of (1) Internal mercury lamp
************************************************************
Integration time is 0.2294 seconds per sample
dh190417Manchester 53.47 2.23 2.804185pr1000
************************************************************
Dead Time -------------------------  3E-08 
Number of Cycles Used -------------  4 
Starting Wavelength (Angstroms) ---  2950 
Final Wavelength (Angstoms) -------  2984 
Wavelength Increment (Angstroms) --  .25 
Filter Wheel #1 Position ---------- (1) Ground quartz diffuser (ND=2.32)
Filter Wheel #2 Position ---------- (1) Neutral Density 0.494



************************************************************
HS scan start time = 02:12:25
Dark Count =  4.9 


Time (GMT)  Wavelength (Ang)  Step Number  Raw Counts  Counts/Second

  132.79        2950.00           1222          48.00       187.88
  132.86        2950.25           1226          54.00       214.04
  132.89        2950.50           1229          41.00       157.37
  132.92        2950.75           1232          48.00       187.88
  132.95        2951.00           1236          41.00       157.37
  132.98        2951.25           1239          46.00       179.16
  133.01        2951.50           1242          43.00       166.09
  133.04        2951.75           1246          46.00       179.16
  133.07        2952.00           1249          39.00       148.65
  133.11        2952.25           1252          49.00       192.24
  133.14        2952.50           1256          52.00       205.32
  133.17        2952.75           1259          48.00       187.88
  133.20        2953.00           1262          44.00       170.45
  133.23        2953.25           1266          53.00       209.68
  133.26        2953.50           1269          47.00       183.52
  133.29        2953.75           1272          43.00       166.09
  133.32        2954.00           1276          44.00       170.45
  133.35        2954.25           1279          47.00       183.52
  133.38        2954.50           1282          49.00       192.24
  133.41        2954.75           1286          44.00       170.45
  133.44        2955.00           1289          50.00       196.60
  133.47        2955.25           1292          48.00       187.88
  133.50        2955.50           1296          50.00       196.60
  133.54        2955.75           1299          50.00       196.60
  133.57        2956.00           1302          43.00       166.09
  133.60        2956.25           1306          42.00       161.73
  133.63        2956.50           1309          43.00       166.09
  133.66        2956.75           1312          46.00       179.16
  133.69        2957.00           1316          45.00       174.80
  133.72        2957.25           1319          44.00       170.45
  133.75        2957.50           1322          43.00       166.09
  133.78        2957.75           1326          45.00       174.80
  133.81        2958.00           1329          44.00       170.45
  133.84        2958.25           1332          46.00       179.16
  133.88        2958.50           1336          43.00       166.09
  133.91        2958.75           1339          51.00       200.96
  133.94        2959.00           1342          47.00       183.52
  133.97        2959.25           1346          43.00       166.09
  134.00        2959.50           1349          53.00       209.68
  134.03        2959.75           1352          65.00       261.99
  134.06        2960.00           1356          81.00       331.74
  134.09        2960.25           1359         119.00       497.39
  134.12        2960.50           1362         152.00       641.25
  134.15        2960.75           1366         201.00       854.86
  134.18        2961.00           1369         236.00      1007.44
  134.21        2961.25           1372         296.00      1269.01
  134.24        2961.50           1376         391.00      1683.17
  134.27        2961.75           1379         614.00      2655.40
  134.31        2962.00           1382        1288.00      5594.23
  134.34        2962.25           1386        2952.00     12851.95
  134.37        2962.50           1389        4559.00     19864.06
  134.40        2962.75           1392        6259.00     27285.19
  134.43        2963.00           1396        8249.00     35976.47
  134.46        2963.25           1399        9858.00     43007.07
  134.49        2963.50           1402       11517.00     50259.25
  134.52        2963.75           1406       13801.00     60248.73
  134.56        2964.00           1409       15625.00     68230.63
  134.59        2964.25           1412       17500.00     76439.70
  134.62        2964.50           1416       19957.00     87202.99
  134.65        2964.75           1419       21593.00     94373.62
  134.68        2965.00           1422       23237.00    101582.40
  134.71        2965.25           1426       25528.00    111633.50
  134.74        2965.50           1429       27037.00    118257.10
  134.77        2965.75           1432       28827.00    126117.50
  134.80        2966.00           1436       31078.00    136007.60
  134.83        2966.25           1439       32598.00    142689.30
  134.87        2966.50           1442       33858.00    148230.10
  134.90        2966.75           1446       35706.00    156359.90
  134.93        2967.00           1449       35956.00    157460.00
  134.96        2967.25           1452       36266.00    158824.30
  134.99        2967.50           1456       36303.00    158987.10
  135.02        2967.75           1459       36254.00    158771.50
  135.05        2968.00           1462       35838.00    156940.80
  135.08        2968.25           1466       35083.00    153618.70
  135.11        2968.50           1469       33671.00    147407.60
  135.15        2968.75           1472       32452.00    142047.40
  135.18        2969.00           1476       30016.00    131340.80
  135.21        2969.25           1479       28720.00    125647.50
  135.24        2969.50           1482       26888.00    117602.90
  135.27        2969.75           1486       24490.00    107078.80
  135.30        2970.00           1489       22966.00    100393.90
  135.33        2970.25           1492       21299.00     93084.78
  135.36        2970.50           1496       19226.00     83999.99
  135.39        2970.75           1499       17397.00     75988.65
  135.43        2971.00           1502       15745.00     68755.90
  135.46        2971.25           1506       13476.00     58826.92
  135.49        2971.50           1509       11760.00     51321.76
  135.52        2971.75           1513        9660.00     42141.74
  135.55        2972.00           1516        8024.00     34993.56
  135.58        2972.25           1519        6442.00     28084.25
  135.61        2972.50           1523        4346.00     18934.47
  135.64        2972.75           1526        2777.00     12088.52
  135.67        2973.00           1529        1468.00      6379.16
  135.71        2973.25           1533         554.00      2393.81
  135.74        2973.50           1536         371.00      1595.98
  135.77        2973.75           1539         324.00      1391.08
  135.80        2974.00           1543         273.00      1168.74
  135.83        2974.25           1546         214.00       911.53
  135.86        2974.50           1549         168.00       711.00
  135.89        2974.75           1553         115.00       479.95
  135.92        2975.00           1556          78.00       318.66
  135.95        2975.25           1559          64.00       257.63
  135.98        2975.50           1563          52.00       205.32
  136.01        2975.75           1566          42.00       161.73
  136.04        2976.00           1569          50.00       196.60
  136.07        2976.25           1573          56.00       222.76
  136.10        2976.50           1576          54.00       214.04
  136.14        2976.75           1579          51.00       200.96
  136.17        2977.00           1583          47.00       183.52
  136.20        2977.25           1586          43.00       166.09
  136.23        2977.50           1590          40.00       153.01
  136.26        2977.75           1593          55.00       218.40
  136.29        2978.00           1596          51.00       200.96
  136.32        2978.25           1600          46.00       179.16
  136.35        2978.50           1603          44.00       170.45
  136.38        2978.75           1606          44.00       170.45
  136.41        2979.00           1610          49.00       192.24
  136.44        2979.25           1613          54.00       214.04
  136.47        2979.50           1616          44.00       170.45
  136.50        2979.75           1620          57.00       227.12
  136.53        2980.00           1623          55.00       218.40
  136.56        2980.25           1626          45.00       174.80
  136.59        2980.50           1630          39.00       148.65
  136.62        2980.75           1633          44.00       170.45
  136.65        2981.00           1637          47.00       183.52
  136.69        2981.25           1640          47.00       183.52
  136.72        2981.50           1643          44.00       170.45
  136.75        2981.75           1647          50.00       196.60
  136.78        2982.00           1650          51.00       200.96
  136.81        2982.25           1653          40.00       153.01
  136.84        2982.50           1657          42.00       161.73
  136.87        2982.75           1660          42.00       161.73
  136.90        2983.00           1663          47.00       183.52
  136.93        2983.25           1667          49.00       192.24
  136.96        2983.50           1670          47.00       183.52
  136.99        2983.75           1673          46.00       179.16
  137.02        2984.00           1677          51.00       200.96
HS scan finished at 02:17:15
end
************************************************************
  HS Scan of (1) Internal mercury lamp
************************************************************
Integration time is 0.2294 seconds per sample
dh190417Manchester 53.47 2.23 2.804185pr1000
************************************************************
Dead Time -------------------------  3E-08 
Number of Cycles Used -------------  4 
Starting Wavelength (Angstroms) ---  2950 
Final Wavelength (Angstoms) -------  2984 
Wavelength Increment (Angstroms) --  .25 
Filter Wheel #1 Position ---------- (1) Ground quartz diffuser (ND=2.32)
Filter Wheel #2 Position ---------- (1) Neutral Density 0.494



************************************************************
HS scan start time = 20:12:02
Dark Count =  7.1 


Time (GMT)  Wavelength (Ang)  Step Number  Raw Counts  Counts/Second

 1212.41        2950.00           1222          49.00       182.65
 1212.47        2950.25           1226          44.00       160.86
 1212.51        2950.50           1229          44.00       160.86
 1212.54        2950.75           1232          47.00       173.93
 1212.57        2951.00           1236          55.00       208.81
 1212.60        2951.25           1239          44.00       160.86
 1212.63        2951.50           1242          48.00       178.29
 1212.66        2951.75           1246          44.00       160.86
 1212.69        2952.00           1249          53.00       200.09
 1212.72        2952.25           1252          44.00       160.86
 1212.75        2952.50           1256          50.00       187.01
 1212.78        2952.75           1259          55.00       208.81
 1212.81        2953.00           1262          43.00       156.50
 1212.84        2953.25           1266          59.00       226.24
 1212.87        2953.50           1269          49.00       182.65
 1212.91        2953.75           1272          51.00       191.37
 1212.94        2954.00           1276          47.00       173.93
 1212.97        2954.25           1279          44.00       160.86
 1213.00        2954.50           1282          58.00       221.88
 1213.03        2954.75           1286          49.00       182.65
 1213.06        2955.00           1289          48.00       178.29
 1213.09        2955.25           1292          46.00       169.57
 1213.12        2955.50           1296          45.00       165.21
 1213.15        2955.75           1299          43.00       156.50
 1213.18        2956.00           1302          50.00       187.01
 1213.21        2956.25           1306          45.00       165.21
 1213.24        2956.50           1309          43.00       156.50
 1213.28        2956.75           1312          47.00       173.93
 1213.31        2957.00           1316          43.00       156.50
 1213.34        2957.25           1319          43.00       156.50
 1213.37        2957.50           1322          46.00       169.57
 1213.40        2957.75           1326          46.00       169.57
 1213.43        2958.00           1329          52.00       195.73
 1213.46        2958.25           1332          43.00       156.50
 1213.49        2958.50           1336          50.00       187.01
 1213.52        2958.75           1339          49.00       182.65
 1213.55        2959.00           1342          47.00       173.93
 1213.58        2959.25           1346          58.00       221.88
 1213.61        2959.50           1349          64.00       248.04
 1213.65        2959.75           1352          87.00       348.30
 1213.68        2960.00           1356         118.00       483.44
 1213.71        2960.25           1359         148.00       614.22
 1213.74        2960.50           1362         196.00       823.47
 1213.77        2960.75           1366         240.00      1015.29
 1213.80        2961.00           1369         301.00      1281.22
 1213.83        2961.25           1372         349.00      1490.48
 1213.86        2961.50           1376         414.00      1773.85
 1213.89        2961.75           1379         570.00      2453.97
 1213.92        2962.00           1382        1100.00      4764.85
 1213.96        2962.25           1386        2660.00     11568.53
 1213.99        2962.50           1389        4240.00     18462.27
 1214.02        2962.75           1392        5952.00     25935.17
 1214.05        2963.00           1396        7967.00     34734.96
 1214.08        2963.25           1399        9559.00     41690.74
 1214.11        2963.50           1402       11294.00     49274.62
 1214.14        2963.75           1406       13526.00     59036.03
 1214.17        2964.00           1409       15133.00     66067.62
 1214.20        2964.25           1412       16809.00     73404.28
 1214.23        2964.50           1416       19049.00     83214.90
 1214.26        2964.75           1419       20741.00     90629.26
 1214.30        2965.00           1422       22472.00     98217.93
 1214.33        2965.25           1426       24657.00    107801.90
 1214.36        2965.50           1429       26203.00    114586.30
 1214.39        2965.75           1432       28052.00    122704.10
 1214.42        2966.00           1436       30131.00    131836.40
 1214.45        2966.25           1439       31761.00    139000.00
 1214.48        2966.50           1442       33294.00    145740.00
 1214.51        2966.75           1446       34880.00    152715.90
 1214.54        2967.00           1449       35744.00    156517.40
 1214.58        2967.25           1452       36085.00    158018.00
 1214.61        2967.50           1456       35967.00    157498.70
 1214.64        2967.75           1459       35991.00    157604.40
 1214.67        2968.00           1462       35755.00    156565.90
 1214.70        2968.25           1466       35257.00    154374.60
 1214.73        2968.50           1469       33952.00    148633.80
 1214.76        2968.75           1472       32301.00    141373.80
 1214.79        2969.00           1476       30362.00    132851.50
 1214.82        2969.25           1479       28841.00    126169.40
 1214.85        2969.50           1482       27010.00    118128.90
 1214.89        2969.75           1486       24700.00    107990.50
 1214.92        2970.00           1489       23237.00    101572.80
 1214.95        2970.25           1492       21693.00     94802.38
 1214.98        2970.50           1496       19560.00     85453.75
 1215.01        2970.75           1499       17741.00     77485.50
 1215.04        2971.00           1502       15948.00     69634.85
 1215.07        2971.25           1506       13827.00     60352.86
 1215.10        2971.50           1509       12210.00     53279.96
 1215.13        2971.75           1513       10007.00     43648.67
 1215.16        2972.00           1516        8364.00     36469.26
 1215.20        2972.25           1519        6644.00     28956.70
 1215.23        2972.50           1523        4440.00     19335.10
 1215.26        2972.75           1526        2837.00     12340.66
 1215.29        2973.00           1529        1365.00      5920.41
 1215.32        2973.25           1533         483.00      2074.67
 1215.35        2973.50           1536         326.00      1390.21
 1215.38        2973.75           1539         263.00      1115.56
 1215.41        2974.00           1543         217.00       915.02
 1215.44        2974.25           1546         151.00       627.30
 1215.47        2974.50           1549         118.00       483.44
 1215.51        2974.75           1553          81.00       322.15
 1215.54        2975.00           1556          60.00       230.60
 1215.57        2975.25           1559          51.00       191.37
 1215.60        2975.50           1563          50.00       187.01
 1215.63        2975.75           1566          43.00       156.50
 1215.66        2976.00           1569          51.00       191.37
 1215.69        2976.25           1573          49.00       182.65
 1215.72        2976.50           1576          52.00       195.73
 1215.75        2976.75           1579          48.00       178.29
 1215.78        2977.00           1583          52.00       195.73
 1215.82        2977.25           1586          52.00       195.73
 1215.85        2977.50           1590          47.00       173.93
 1215.88        2977.75           1593          49.00       182.65
 1215.91        2978.00           1596          42.00       152.14
 1215.94        2978.25           1600          49.00       182.65
 1215.97        2978.50           1603          48.00       178.29
 1216.00        2978.75           1606          49.00       182.65
 1216.03        2979.00           1610          42.00       152.14
 1216.06        2979.25           1613          51.00       191.37
 1216.09        2979.50           1616          47.00       173.93
 1216.12        2979.75           1620          42.00       152.14
 1216.15        2980.00           1623          47.00       173.93
 1216.19        2980.25           1626          46.00       169.57
 1216.22        2980.50           1630          44.00       160.86
 1216.25        2980.75           1633          40.00       143.42
 1216.28        2981.00           1637          42.00       152.14
 1216.31        2981.25           1640          48.00       178.29
 1216.34        2981.50           1643          48.00       178.29
 1216.37        2981.75           1647          47.00       173.93
 1216.40        2982.00           1650          39.00       139.06
 1216.43        2982.25           1653          43.00       156.50
 1216.46        2982.50           1657          48.00       178.29
 1216.49        2982.75           1660          56.00       213.17
 1216.53        2983.00           1663          39.00       139.06
 1216.56        2983.25           1667          44.00       160.86
 1216.59        2983.50           1670          44.00       160.86
 1216.62        2983.75           1673          51.00       191.37
 1216.65        2984.00           1677          45.00       165.21
HS scan finished at 20:16:52
end
