************************************************************
  HS Scan of (1) Internal mercury lamp
************************************************************
Integration time is 0.2294 seconds per sample
dh120419Manchester 53.47 2.23 2.804185pr1000
************************************************************
Dead Time -------------------------  3E-08 
Number of Cycles Used -------------  4 
Starting Wavelength (Angstroms) ---  2950 
Final Wavelength (Angstoms) -------  2984 
Wavelength Increment (Angstroms) --  .25 
Filter Wheel #1 Position ---------- (1) Ground quartz diffuser (ND=2.32)
Filter Wheel #2 Position ---------- (1) Neutral Density 0.494



************************************************************
HS scan start time = 02:14:36
Dark Count =  5.7 


Time (GMT)  Wavelength (Ang)  Step Number  Raw Counts  Counts/Second

  134.97        2950.00           1222          55.00       214.91
  135.04        2950.25           1226          52.00       201.83
  135.07        2950.50           1229          53.00       206.19
  135.10        2950.75           1232          58.00       227.99
  135.13        2951.00           1236          55.00       214.91
  135.16        2951.25           1239          63.00       249.78
  135.19        2951.50           1242          59.00       232.35
  135.23        2951.75           1246          60.00       236.71
  135.26        2952.00           1249          47.00       180.04
  135.29        2952.25           1252          67.00       267.22
  135.32        2952.50           1256          52.00       201.83
  135.35        2952.75           1259          51.00       197.47
  135.38        2953.00           1262          49.00       188.75
  135.41        2953.25           1266          59.00       232.35
  135.44        2953.50           1269          53.00       206.19
  135.47        2953.75           1272          52.00       201.83
  135.51        2954.00           1276          54.00       210.55
  135.54        2954.25           1279          47.00       180.04
  135.57        2954.50           1282          57.00       223.63
  135.60        2954.75           1286          63.00       249.78
  135.63        2955.00           1289          56.00       219.27
  135.66        2955.25           1292          52.00       201.83
  135.69        2955.50           1296          59.00       232.35
  135.72        2955.75           1299          56.00       219.27
  135.75        2956.00           1302          54.00       210.55
  135.78        2956.25           1306          52.00       201.83
  135.81        2956.50           1309          54.00       210.55
  135.84        2956.75           1312          52.00       201.83
  135.88        2957.00           1316          55.00       214.91
  135.91        2957.25           1319          61.00       241.07
  135.94        2957.50           1322          62.00       245.42
  135.97        2957.75           1326          52.00       201.83
  136.00        2958.00           1329          52.00       201.83
  136.03        2958.25           1332          54.00       210.55
  136.06        2958.50           1336          55.00       214.91
  136.09        2958.75           1339          60.00       236.71
  136.12        2959.00           1342          52.00       201.83
  136.15        2959.25           1346          56.00       219.27
  136.18        2959.50           1349          54.00       210.55
  136.22        2959.75           1352          72.00       289.02
  136.25        2960.00           1356          85.00       345.69
  136.28        2960.25           1359         112.00       463.39
  136.31        2960.50           1362         139.00       581.09
  136.34        2960.75           1366         179.00       755.47
  136.37        2961.00           1369         213.00       903.69
  136.40        2961.25           1372         265.00      1130.38
  136.43        2961.50           1376         320.00      1370.15
  136.46        2961.75           1379         574.00      2477.52
  136.50        2962.00           1382        1305.00      5664.87
  136.53        2962.25           1386        2718.00     11827.65
  136.56        2962.50           1389        3956.00     17229.04
  136.59        2962.75           1392        5205.00     22680.21
  136.62        2963.00           1396        6799.00     29639.68
  136.65        2963.25           1399        7958.00     34701.76
  136.68        2963.50           1402        9301.00     40569.40
  136.71        2963.75           1406       11156.00     48677.40
  136.74        2964.00           1409       12265.00     53526.60
  136.77        2964.25           1412       13529.00     59055.28
  136.80        2964.50           1416       15328.00     66927.18
  136.84        2964.75           1419       16419.00     71702.90
  136.87        2965.00           1422       17753.00     77544.18
  136.90        2965.25           1426       19329.00     84447.77
  136.93        2965.50           1429       20667.00     90311.05
  136.96        2965.75           1432       21981.00     96071.18
  136.99        2966.00           1436       23493.00    102701.70
  137.02        2966.25           1439       24744.00    108189.70
  137.05        2966.50           1442       25832.00    112964.10
  137.08        2966.75           1446       26672.00    116651.20
  137.12        2967.00           1449       26808.00    117248.20
  137.15        2967.25           1452       26815.00    117279.00
  137.18        2967.50           1456       26728.00    116897.00
  137.21        2967.75           1459       26680.00    116686.30
  137.24        2968.00           1462       26503.00    115909.30
  137.27        2968.25           1466       25440.00    111243.80
  137.30        2968.50           1469       24107.00    105395.10
  137.33        2968.75           1472       22928.00    100223.70
  137.36        2969.00           1476       21309.00     93125.10
  137.40        2969.25           1479       20299.00     88698.22
  137.43        2969.50           1482       18829.00     82257.23
  137.46        2969.75           1486       17294.00     75534.10
  137.49        2970.00           1489       16055.00     70109.38
  137.52        2970.25           1492       14756.00     64423.87
  137.55        2970.50           1496       13168.00     57476.09
  137.58        2970.75           1499       12170.00     53111.15
  137.61        2971.00           1502       10733.00     46828.17
  137.64        2971.25           1506        9071.00     39564.37
  137.68        2971.50           1509        7873.00     34330.46
  137.71        2971.75           1513        6216.00     27093.94
  137.74        2972.00           1516        4758.00     20729.10
  137.77        2972.25           1519        3701.00     16116.34
  137.80        2972.50           1523        2140.00      9306.43
  137.83        2972.75           1526        1140.00      4945.37
  137.86        2973.00           1529         540.00      2329.28
  137.89        2973.25           1533         323.00      1383.23
  137.92        2973.50           1536         270.00      1152.18
  137.96        2973.75           1539         232.00       986.52
  137.99        2974.00           1543         196.00       829.58
  138.02        2974.25           1546         157.00       659.56
  138.05        2974.50           1549         124.00       515.70
  138.08        2974.75           1553          90.00       367.48
  138.11        2975.00           1556          78.00       315.17
  138.14        2975.25           1559          58.00       227.99
  138.17        2975.50           1563          50.00       193.11
  138.20        2975.75           1566          59.00       232.35
  138.24        2976.00           1569          53.00       206.19
  138.27        2976.25           1573          56.00       219.27
  138.30        2976.50           1576          50.00       193.11
  138.33        2976.75           1579          52.00       201.83
  138.36        2977.00           1583          57.00       223.63
  138.39        2977.25           1586          53.00       206.19
  138.42        2977.50           1590          55.00       214.91
  138.45        2977.75           1593          41.00       153.88
  138.48        2978.00           1596          56.00       219.27
  138.52        2978.25           1600          49.00       188.75
  138.55        2978.50           1603          63.00       249.78
  138.58        2978.75           1606          51.00       197.47
  138.61        2979.00           1610          60.00       236.71
  138.64        2979.25           1613          58.00       227.99
  138.67        2979.50           1616          53.00       206.19
  138.70        2979.75           1620          52.00       201.83
  138.73        2980.00           1623          48.00       184.40
  138.76        2980.25           1626          49.00       188.75
  138.80        2980.50           1630          44.00       166.96
  138.83        2980.75           1633          50.00       193.11
  138.86        2981.00           1637          58.00       227.99
  138.89        2981.25           1640          59.00       232.35
  138.92        2981.50           1643          54.00       210.55
  138.95        2981.75           1647          60.00       236.71
  138.98        2982.00           1650          53.00       206.19
  139.01        2982.25           1653          51.00       197.47
  139.04        2982.50           1657          50.00       193.11
  139.07        2982.75           1660          52.00       201.83
  139.10        2983.00           1663          56.00       219.27
  139.14        2983.25           1667          51.00       197.47
  139.17        2983.50           1670          48.00       184.40
  139.20        2983.75           1673          52.00       201.83
  139.23        2984.00           1677          56.00       219.27
HS scan finished at 02:19:27
end
************************************************************
  HS Scan of (1) Internal mercury lamp
************************************************************
Integration time is 0.2294 seconds per sample
dh120419Manchester 53.47 2.23 2.804185pr1000
************************************************************
Dead Time -------------------------  3E-08 
Number of Cycles Used -------------  4 
Starting Wavelength (Angstroms) ---  2950 
Final Wavelength (Angstoms) -------  2984 
Wavelength Increment (Angstroms) --  .25 
Filter Wheel #1 Position ---------- (1) Ground quartz diffuser (ND=2.32)
Filter Wheel #2 Position ---------- (1) Neutral Density 0.494



************************************************************
HS scan start time = 20:13:21
Dark Count =  7.8 


Time (GMT)  Wavelength (Ang)  Step Number  Raw Counts  Counts/Second

 1213.72        2950.00           1222          56.00       210.11
 1213.79        2950.25           1226          60.00       227.55
 1213.82        2950.50           1229          64.00       244.99
 1213.85        2950.75           1232          50.00       183.96
 1213.88        2951.00           1236          59.00       223.19
 1213.91        2951.25           1239          55.00       205.76
 1213.94        2951.50           1242          46.00       166.52
 1213.98        2951.75           1246          58.00       218.83
 1214.01        2952.00           1249          50.00       183.96
 1214.04        2952.25           1252          53.00       197.04
 1214.07        2952.50           1256          52.00       192.68
 1214.10        2952.75           1259          61.00       231.91
 1214.13        2953.00           1262          56.00       210.11
 1214.16        2953.25           1266          63.00       240.63
 1214.19        2953.50           1269          53.00       197.04
 1214.22        2953.75           1272          58.00       218.83
 1214.25        2954.00           1276          58.00       218.83
 1214.28        2954.25           1279          47.00       170.88
 1214.31        2954.50           1282          54.00       201.40
 1214.34        2954.75           1286          57.00       214.47
 1214.38        2955.00           1289          50.00       183.96
 1214.41        2955.25           1292          51.00       188.32
 1214.44        2955.50           1296          56.00       210.11
 1214.47        2955.75           1299          45.00       162.16
 1214.50        2956.00           1302          54.00       201.40
 1214.53        2956.25           1306          57.00       214.47
 1214.56        2956.50           1309          67.00       258.07
 1214.59        2956.75           1312          60.00       227.55
 1214.62        2957.00           1316          58.00       218.83
 1214.65        2957.25           1319          54.00       201.40
 1214.68        2957.50           1322          59.00       223.19
 1214.71        2957.75           1326          54.00       201.40
 1214.75        2958.00           1329          54.00       201.40
 1214.78        2958.25           1332          57.00       214.47
 1214.81        2958.50           1336          56.00       210.11
 1214.84        2958.75           1339          63.00       240.63
 1214.87        2959.00           1342          54.00       201.40
 1214.90        2959.25           1346          52.00       192.68
 1214.93        2959.50           1349          55.00       205.76
 1214.96        2959.75           1352          63.00       240.63
 1214.99        2960.00           1356          90.00       358.33
 1215.02        2960.25           1359         105.00       423.72
 1215.05        2960.50           1362         148.00       611.17
 1215.09        2960.75           1366         182.00       759.39
 1215.12        2961.00           1369         223.00       938.13
 1215.15        2961.25           1372         246.00      1038.39
 1215.18        2961.50           1376         278.00      1177.90
 1215.21        2961.75           1379         383.00      1635.65
 1215.24        2962.00           1382         700.00      3017.71
 1215.27        2962.25           1386        2010.00      8730.27
 1215.30        2962.50           1389        3196.00     13903.79
 1215.33        2962.75           1392        4256.00     18529.04
 1215.37        2963.00           1396        5763.00     25106.96
 1215.40        2963.25           1399        6968.00     30368.55
 1215.43        2963.50           1402        8284.00     36116.70
 1215.46        2963.75           1406        9881.00     43094.92
 1215.49        2964.00           1409       11162.00     48694.45
 1215.52        2964.25           1412       12566.00     54833.81
 1215.55        2964.50           1416       14291.00     62379.93
 1215.58        2964.75           1419       15485.00     67605.16
 1215.61        2965.00           1422       16798.00     73353.05
 1215.64        2965.25           1426       18559.00     81065.27
 1215.67        2965.50           1429       19635.00     85779.31
 1215.71        2965.75           1432       20943.00     91511.56
 1215.74        2966.00           1436       22492.00     98302.55
 1215.77        2966.25           1439       23661.00    103429.40
 1215.80        2966.50           1442       24771.00    108299.00
 1215.83        2966.75           1446       26191.00    114530.60
 1215.86        2967.00           1449       26584.00    116255.70
 1215.89        2967.25           1452       26553.00    116119.60
 1215.92        2967.50           1456       26852.00    117432.20
 1215.95        2967.75           1459       26790.00    117160.00
 1215.98        2968.00           1462       26689.00    116716.60
 1216.02        2968.25           1466       25884.00    113183.10
 1216.05        2968.50           1469       24932.00    109005.40
 1216.08        2968.75           1472       23818.00    104118.10
 1216.11        2969.00           1476       22188.00     96969.57
 1216.14        2969.25           1479       21031.00     91897.30
 1216.17        2969.50           1482       19669.00     85928.28
 1216.20        2969.75           1486       18063.00     78892.70
 1216.23        2970.00           1489       16995.00     74215.62
 1216.27        2970.25           1492       15813.00     69040.85
 1216.30        2970.50           1496       14285.00     62353.67
 1216.33        2970.75           1499       12918.00     56373.38
 1216.36        2971.00           1502       11545.00     50368.99
 1216.39        2971.25           1506        9962.00     43448.92
 1216.42        2971.50           1509        8650.00     37715.71
 1216.45        2971.75           1513        7019.00     30591.27
 1216.48        2972.00           1516        5875.00     25595.93
 1216.51        2972.25           1519        4654.00     20266.03
 1216.54        2972.50           1523        3132.00     13624.57
 1216.57        2972.75           1526        1995.00      8664.85
 1216.60        2973.00           1529         957.00      4138.26
 1216.63        2973.25           1533         383.00      1635.65
 1216.67        2973.50           1536         268.00      1134.30
 1216.70        2973.75           1539         237.00       999.16
 1216.73        2974.00           1543         197.00       824.78
 1216.76        2974.25           1546         158.00       654.76
 1216.79        2974.50           1549         111.00       449.88
 1216.82        2974.75           1553          79.00       310.38
 1216.85        2975.00           1556          69.00       266.79
 1216.88        2975.25           1559          62.00       236.27
 1216.92        2975.50           1563          56.00       210.11
 1216.95        2975.75           1566          57.00       214.47
 1216.98        2976.00           1569          51.00       188.32
 1217.01        2976.25           1573          52.00       192.68
 1217.04        2976.50           1576          51.00       188.32
 1217.07        2976.75           1579          57.00       214.47
 1217.10        2977.00           1583          57.00       214.47
 1217.13        2977.25           1586          50.00       183.96
 1217.16        2977.50           1590          60.00       227.55
 1217.19        2977.75           1593          49.00       179.60
 1217.23        2978.00           1596          47.00       170.88
 1217.26        2978.25           1600          47.00       170.88
 1217.29        2978.50           1603          61.00       231.91
 1217.32        2978.75           1606          51.00       188.32
 1217.35        2979.00           1610          49.00       179.60
 1217.38        2979.25           1613          51.00       188.32
 1217.41        2979.50           1616          47.00       170.88
 1217.44        2979.75           1620          55.00       205.76
 1217.47        2980.00           1623          51.00       188.32
 1217.51        2980.25           1626          61.00       231.91
 1217.54        2980.50           1630          55.00       205.76
 1217.57        2980.75           1633          53.00       197.04
 1217.60        2981.00           1637          52.00       192.68
 1217.63        2981.25           1640          54.00       201.40
 1217.66        2981.50           1643          45.00       162.16
 1217.69        2981.75           1647          50.00       183.96
 1217.72        2982.00           1650          51.00       188.32
 1217.75        2982.25           1653          60.00       227.55
 1217.78        2982.50           1657          54.00       201.40
 1217.81        2982.75           1660          49.00       179.60
 1217.85        2983.00           1663          39.00       136.01
 1217.88        2983.25           1667          52.00       192.68
 1217.91        2983.50           1670          50.00       183.96
 1217.94        2983.75           1673          54.00       201.40
 1217.97        2984.00           1677          52.00       192.68
HS scan finished at 20:18:11
end
