************************************************************
  HS Scan of (1) Internal mercury lamp
************************************************************
Integration time is 0.2294 seconds per sample
dh110417Manchester 53.47 2.23 2.804185pr1000
************************************************************
Dead Time -------------------------  3E-08 
Number of Cycles Used -------------  4 
Starting Wavelength (Angstroms) ---  2950 
Final Wavelength (Angstoms) -------  2984 
Wavelength Increment (Angstroms) --  .25 
Filter Wheel #1 Position ---------- (1) Ground quartz diffuser (ND=2.32)
Filter Wheel #2 Position ---------- (1) Neutral Density 0.494



************************************************************
HS scan start time = 02:58:40
Dark Count =  4.3 


Time (GMT)  Wavelength (Ang)  Step Number  Raw Counts  Counts/Second

  179.04        2950.00           1222          49.00       194.86
  179.11        2950.25           1226          46.00       181.78
  179.14        2950.50           1229          49.00       194.86
  179.17        2950.75           1232          45.00       177.42
  179.20        2951.00           1236          48.00       190.50
  179.23        2951.25           1239          45.00       177.42
  179.26        2951.50           1242          42.00       164.34
  179.29        2951.75           1246          44.00       173.06
  179.32        2952.00           1249          53.00       212.29
  179.35        2952.25           1252          41.00       159.98
  179.38        2952.50           1256          47.00       186.14
  179.42        2952.75           1259          44.00       173.06
  179.45        2953.00           1262          48.00       190.50
  179.48        2953.25           1266          44.00       173.06
  179.51        2953.50           1269          49.00       194.86
  179.54        2953.75           1272          43.00       168.70
  179.57        2954.00           1276          49.00       194.86
  179.60        2954.25           1279          49.00       194.86
  179.63        2954.50           1282          44.00       173.06
  179.66        2954.75           1286          45.00       177.42
  179.69        2955.00           1289          44.00       173.06
  179.72        2955.25           1292          43.00       168.70
  179.75        2955.50           1296          46.00       181.78
  179.78        2955.75           1299          44.00       173.06
  179.81        2956.00           1302          49.00       194.86
  179.84        2956.25           1306          49.00       194.86
  179.88        2956.50           1309          49.00       194.86
  179.91        2956.75           1312          44.00       173.06
  179.94        2957.00           1316          45.00       177.42
  179.97        2957.25           1319          51.00       203.58
  180.00        2957.50           1322          45.00       177.42
  180.03        2957.75           1326          40.00       155.62
  180.06        2958.00           1329          48.00       190.50
  180.09        2958.25           1332          51.00       203.58
  180.12        2958.50           1336          46.00       181.78
  180.15        2958.75           1339          48.00       190.50
  180.18        2959.00           1342          45.00       177.42
  180.21        2959.25           1346          50.00       199.22
  180.24        2959.50           1349          46.00       181.78
  180.28        2959.75           1352          46.00       181.78
  180.31        2960.00           1356          55.00       221.01
  180.34        2960.25           1359          77.00       316.92
  180.37        2960.50           1362         109.00       456.41
  180.40        2960.75           1366         148.00       626.43
  180.43        2961.00           1369         187.00       796.44
  180.46        2961.25           1372         236.00      1010.06
  180.49        2961.50           1376         387.00      1668.35
  180.52        2961.75           1379         775.00      3359.97
  180.55        2962.00           1382        1689.00      7345.56
  180.58        2962.25           1386        3705.00     16139.90
  180.61        2962.50           1389        5392.00     23502.62
  180.64        2962.75           1392        7035.00     30676.44
  180.68        2963.00           1396        9101.00     39701.58
  180.71        2963.25           1399       10721.00     46781.83
  180.74        2963.50           1402       12521.00     54652.31
  180.77        2963.75           1406       14679.00     64093.05
  180.80        2964.00           1409       16487.00     72006.74
  180.83        2964.25           1412       18189.00     79459.90
  180.86        2964.50           1416       20392.00     89111.93
  180.89        2964.75           1419       22021.00     96252.69
  180.93        2965.00           1422       23998.00    104923.00
  180.96        2965.25           1426       26144.00    114339.70
  180.99        2965.50           1429       27687.00    121113.60
  181.02        2965.75           1432       29670.00    129823.30
  181.05        2966.00           1436       31635.00    138458.40
  181.08        2966.25           1439       33335.00    145932.60
  181.11        2966.50           1442       34634.00    151646.10
  181.14        2966.75           1446       36024.00    157761.90
  181.17        2967.00           1449       36142.00    158281.20
  181.21        2967.25           1452       36220.00    158624.50
  181.24        2967.50           1456       36283.00    158901.70
  181.27        2967.75           1459       36053.00    157889.50
  181.30        2968.00           1462       35709.00    156375.80
  181.33        2968.25           1466       34224.00    149842.50
  181.36        2968.50           1469       32802.00    143588.90
  181.39        2968.75           1472       31318.00    137065.10
  181.42        2969.00           1476       29358.00    128452.60
  181.45        2969.25           1479       27616.00    120801.90
  181.48        2969.50           1482       26176.00    114480.10
  181.52        2969.75           1486       23982.00    104852.90
  181.55        2970.00           1489       22341.00     97655.78
  181.58        2970.25           1492       20682.00     90382.92
  181.61        2970.50           1496       18481.00     80738.93
  181.64        2970.75           1499       16722.00     73035.61
  181.67        2971.00           1502       15004.00     65515.31
  181.70        2971.25           1506       12850.00     56091.26
  181.73        2971.50           1509       10985.00     47935.93
  181.76        2971.75           1513        8757.00     38198.50
  181.80        2972.00           1516        7052.00     30750.68
  181.83        2972.25           1519        5543.00     24161.80
  181.86        2972.50           1523        3451.00     15031.63
  181.89        2972.75           1526        2042.00      8885.11
  181.92        2973.00           1529        1018.00      4419.51
  181.95        2973.25           1533         555.00      2400.78
  181.98        2973.50           1536         452.00      1951.73
  182.01        2973.75           1539         366.00      1576.80
  182.04        2974.00           1543         325.00      1398.05
  182.07        2974.25           1546         249.00      1066.73
  182.10        2974.50           1549         213.00       909.79
  182.13        2974.75           1553         153.00       648.23
  182.17        2975.00           1556         116.00       486.93
  182.20        2975.25           1559          83.00       343.07
  182.23        2975.50           1563          64.00       260.25
  182.26        2975.75           1566          45.00       177.42
  182.29        2976.00           1569          49.00       194.86
  182.32        2976.25           1573          45.00       177.42
  182.35        2976.50           1576          54.00       216.65
  182.38        2976.75           1579          48.00       190.50
  182.41        2977.00           1583          49.00       194.86
  182.44        2977.25           1586          46.00       181.78
  182.47        2977.50           1590          51.00       203.58
  182.50        2977.75           1593          51.00       203.58
  182.53        2978.00           1596          51.00       203.58
  182.56        2978.25           1600          56.00       225.37
  182.59        2978.50           1603          48.00       190.50
  182.62        2978.75           1606          47.00       186.14
  182.65        2979.00           1610          49.00       194.86
  182.68        2979.25           1613          57.00       229.73
  182.72        2979.50           1616          50.00       199.22
  182.75        2979.75           1620          44.00       173.06
  182.78        2980.00           1623          48.00       190.50
  182.81        2980.25           1626          42.00       164.34
  182.84        2980.50           1630          46.00       181.78
  182.87        2980.75           1633          51.00       203.58
  182.90        2981.00           1637          42.00       164.34
  182.93        2981.25           1640          51.00       203.58
  182.96        2981.50           1643          49.00       194.86
  182.99        2981.75           1647          43.00       168.70
  183.02        2982.00           1650          44.00       173.06
  183.06        2982.25           1653          54.00       216.65
  183.09        2982.50           1657          60.00       242.81
  183.12        2982.75           1660          46.00       181.78
  183.15        2983.00           1663          50.00       199.22
  183.18        2983.25           1667          49.00       194.86
  183.21        2983.50           1670          44.00       173.06
  183.24        2983.75           1673          53.00       212.29
  183.27        2984.00           1677          44.00       173.06
HS scan finished at 03:03:29
end
************************************************************
  HS Scan of (1) Internal mercury lamp
************************************************************
Integration time is 0.2294 seconds per sample
dh110417Manchester 53.47 2.23 2.804185pr1000
************************************************************
Dead Time -------------------------  3E-08 
Number of Cycles Used -------------  4 
Starting Wavelength (Angstroms) ---  2950 
Final Wavelength (Angstoms) -------  2984 
Wavelength Increment (Angstroms) --  .25 
Filter Wheel #1 Position ---------- (1) Ground quartz diffuser (ND=2.32)
Filter Wheel #2 Position ---------- (1) Neutral Density 0.494



************************************************************
HS scan start time = 20:12:00
Dark Count =  5.6 


Time (GMT)  Wavelength (Ang)  Step Number  Raw Counts  Counts/Second

 1212.37        2950.00           1222          45.00       171.75
 1212.44        2950.25           1226          51.00       197.91
 1212.47        2950.50           1229          44.00       167.39
 1212.50        2950.75           1232          50.00       193.55
 1212.53        2951.00           1236          40.00       149.96
 1212.56        2951.25           1239          58.00       228.42
 1212.59        2951.50           1242          48.00       184.83
 1212.62        2951.75           1246          45.00       171.75
 1212.65        2952.00           1249          46.00       176.11
 1212.68        2952.25           1252          52.00       202.27
 1212.71        2952.50           1256          47.00       180.47
 1212.74        2952.75           1259          43.00       163.03
 1212.77        2953.00           1262          47.00       180.47
 1212.80        2953.25           1266          44.00       167.39
 1212.84        2953.50           1269          48.00       184.83
 1212.87        2953.75           1272          53.00       206.63
 1212.90        2954.00           1276          42.00       158.68
 1212.93        2954.25           1279          42.00       158.68
 1212.96        2954.50           1282          59.00       232.78
 1212.99        2954.75           1286          41.00       154.32
 1213.02        2955.00           1289          39.00       145.60
 1213.05        2955.25           1292          45.00       171.75
 1213.08        2955.50           1296          47.00       180.47
 1213.11        2955.75           1299          46.00       176.11
 1213.14        2956.00           1302          43.00       163.03
 1213.17        2956.25           1306          47.00       180.47
 1213.21        2956.50           1309          48.00       184.83
 1213.24        2956.75           1312          46.00       176.11
 1213.27        2957.00           1316          49.00       189.19
 1213.30        2957.25           1319          43.00       163.03
 1213.33        2957.50           1322          50.00       193.55
 1213.36        2957.75           1326          46.00       176.11
 1213.39        2958.00           1329          44.00       167.39
 1213.42        2958.25           1332          51.00       197.91
 1213.45        2958.50           1336          53.00       206.63
 1213.48        2958.75           1339          49.00       189.19
 1213.52        2959.00           1342          48.00       184.83
 1213.55        2959.25           1346          64.00       254.58
 1213.58        2959.50           1349          58.00       228.42
 1213.61        2959.75           1352          63.00       250.22
 1213.64        2960.00           1356          85.00       346.12
 1213.67        2960.25           1359         131.00       546.65
 1213.70        2960.50           1362         162.00       681.79
 1213.73        2960.75           1366         235.00      1000.03
 1213.76        2961.00           1369         270.00      1152.61
 1213.79        2961.25           1372         296.00      1265.96
 1213.82        2961.50           1376         403.00      1732.44
 1213.85        2961.75           1379         590.00      2547.71
 1213.89        2962.00           1382        1134.00      4919.65
 1213.92        2962.25           1386        2756.00     11993.85
 1213.95        2962.50           1389        4297.00     18717.57
 1213.98        2962.75           1392        5890.00     25671.03
 1214.01        2963.00           1396        8161.00     35588.98
 1214.04        2963.25           1399        9892.00     43152.61
 1214.07        2963.50           1402       11627.00     50737.15
 1214.10        2963.75           1406       13741.00     59983.18
 1214.13        2964.00           1409       15421.00     67334.66
 1214.17        2964.25           1412       17266.00     75411.93
 1214.20        2964.50           1416       19324.00     84426.29
 1214.23        2964.75           1419       20978.00     91674.62
 1214.26        2965.00           1422       22571.00     98658.62
 1214.29        2965.25           1426       24943.00    109063.30
 1214.32        2965.50           1429       26536.00    116054.60
 1214.35        2965.75           1432       28350.00    124019.40
 1214.38        2966.00           1436       30562.00    133736.90
 1214.41        2966.25           1439       31963.00    139894.50
 1214.44        2966.50           1442       33415.00    146278.70
 1214.47        2966.75           1446       35101.00    153694.80
 1214.50        2967.00           1449       35530.00    155582.40
 1214.53        2967.25           1452       35907.00    157241.30
 1214.57        2967.50           1456       35969.00    157514.20
 1214.60        2967.75           1459       35895.00    157188.50
 1214.63        2968.00           1462       35515.00    155516.40
 1214.66        2968.25           1466       34476.00    150945.30
 1214.69        2968.50           1469       33202.00    145342.00
 1214.72        2968.75           1472       31642.00    138483.50
 1214.75        2969.00           1476       29705.00    129971.40
 1214.78        2969.25           1479       27995.00    122460.40
 1214.81        2969.50           1482       26382.00    115378.60
 1214.85        2969.75           1486       24383.00    106606.30
 1214.88        2970.00           1489       22704.00     99241.84
 1214.91        2970.25           1492       21183.00     92573.22
 1214.94        2970.50           1496       18929.00     82695.76
 1214.97        2970.75           1499       17365.00     75845.45
 1215.00        2971.00           1502       15633.00     68262.58
 1215.03        2971.25           1506       13339.00     58224.55
 1215.06        2971.50           1509       11665.00     50903.32
 1215.09        2971.75           1513        9391.00     40963.13
 1215.12        2972.00           1516        7878.00     34352.74
 1215.15        2972.25           1519        6216.00     27094.38
 1215.19        2972.50           1523        3982.00     17342.94
 1215.22        2972.75           1526        2472.00     10755.00
 1215.25        2973.00           1529        1223.00      5307.73
 1215.28        2973.25           1533         483.00      2081.21
 1215.31        2973.50           1536         345.00      1479.58
 1215.34        2973.75           1539         288.00      1231.08
 1215.37        2974.00           1543         233.00       991.31
 1215.40        2974.25           1546         156.00       655.64
 1215.43        2974.50           1549         140.00       585.89
 1215.47        2974.75           1553          85.00       346.12
 1215.50        2975.00           1556          67.00       267.66
 1215.53        2975.25           1559          56.00       219.71
 1215.56        2975.50           1563          47.00       180.47
 1215.59        2975.75           1566          53.00       206.63
 1215.62        2976.00           1569          50.00       193.55
 1215.65        2976.25           1573          43.00       163.03
 1215.68        2976.50           1576          49.00       189.19
 1215.71        2976.75           1579          40.00       149.96
 1215.74        2977.00           1583          42.00       158.68
 1215.77        2977.25           1586          45.00       171.75
 1215.81        2977.50           1590          52.00       202.27
 1215.84        2977.75           1593          48.00       184.83
 1215.87        2978.00           1596          45.00       171.75
 1215.90        2978.25           1600          46.00       176.11
 1215.93        2978.50           1603          50.00       193.55
 1215.96        2978.75           1606          49.00       189.19
 1215.99        2979.00           1610          46.00       176.11
 1216.02        2979.25           1613          44.00       167.39
 1216.05        2979.50           1616          53.00       206.63
 1216.08        2979.75           1620          43.00       163.03
 1216.12        2980.00           1623          43.00       163.03
 1216.15        2980.25           1626          46.00       176.11
 1216.18        2980.50           1630          45.00       171.75
 1216.21        2980.75           1633          48.00       184.83
 1216.24        2981.00           1637          55.00       215.35
 1216.27        2981.25           1640          46.00       176.11
 1216.30        2981.50           1643          53.00       206.63
 1216.33        2981.75           1647          39.00       145.60
 1216.36        2982.00           1650          43.00       163.03
 1216.39        2982.25           1653          43.00       163.03
 1216.42        2982.50           1657          46.00       176.11
 1216.45        2982.75           1660          41.00       154.32
 1216.48        2983.00           1663          48.00       184.83
 1216.52        2983.25           1667          46.00       176.11
 1216.55        2983.50           1670          44.00       167.39
 1216.58        2983.75           1673          52.00       202.27
 1216.61        2984.00           1677          44.00       167.39
HS scan finished at 20:16:49
end
