************************************************************
  HS Scan of (1) Internal mercury lamp
************************************************************
Integration time is 0.2294 seconds per sample
dh130417Manchester 53.47 2.23 2.750537pr1000
************************************************************
Dead Time -------------------------  3E-08 
Number of Cycles Used -------------  4 
Starting Wavelength (Angstroms) ---  2950 
Final Wavelength (Angstoms) -------  2984 
Wavelength Increment (Angstroms) --  .25 
Filter Wheel #1 Position ---------- (1) Ground quartz diffuser (ND=2.32)
Filter Wheel #2 Position ---------- (1) Neutral Density 0.494



************************************************************
HS scan start time = 01:32:41
Dark Count =  6.9 


Time (GMT)  Wavelength (Ang)  Step Number  Raw Counts  Counts/Second

   93.06        2950.00           1222          43.00       157.37
   93.12        2950.25           1226          46.00       170.45
   93.15        2950.50           1229          42.00       153.01
   93.18        2950.75           1232          50.00       187.88
   93.22        2951.00           1236          48.00       179.16
   93.25        2951.25           1239          44.00       161.73
   93.28        2951.50           1242          43.00       157.37
   93.31        2951.75           1246          48.00       179.16
   93.34        2952.00           1249          54.00       205.32
   93.37        2952.25           1252          49.00       183.52
   93.40        2952.50           1256          53.00       200.96
   93.43        2952.75           1259          59.00       227.12
   93.46        2953.00           1262          58.00       222.76
   93.49        2953.25           1266          45.00       166.09
   93.52        2953.50           1269          54.00       205.32
   93.56        2953.75           1272          43.00       157.37
   93.59        2954.00           1276          48.00       179.16
   93.62        2954.25           1279          47.00       174.80
   93.65        2954.50           1282          50.00       187.88
   93.68        2954.75           1286          54.00       205.32
   93.71        2955.00           1289          54.00       205.32
   93.74        2955.25           1292          53.00       200.96
   93.77        2955.50           1296          43.00       157.37
   93.80        2955.75           1299          53.00       200.96
   93.84        2956.00           1302          43.00       157.37
   93.87        2956.25           1306          48.00       179.16
   93.90        2956.50           1309          46.00       170.45
   93.93        2956.75           1312          43.00       157.37
   93.96        2957.00           1316          41.00       148.65
   93.99        2957.25           1319          42.00       153.01
   94.02        2957.50           1322          50.00       187.88
   94.05        2957.75           1326          48.00       179.16
   94.08        2958.00           1329          46.00       170.45
   94.12        2958.25           1332          48.00       179.16
   94.15        2958.50           1336          54.00       205.32
   94.18        2958.75           1339          51.00       192.24
   94.21        2959.00           1342          47.00       174.80
   94.24        2959.25           1346          51.00       192.24
   94.27        2959.50           1349          52.00       196.60
   94.30        2959.75           1352          68.00       266.35
   94.33        2960.00           1356          98.00       397.13
   94.36        2960.25           1359         123.00       506.11
   94.39        2960.50           1362         166.00       693.56
   94.42        2960.75           1366         214.00       902.81
   94.45        2961.00           1369         269.00      1142.59
   94.49        2961.25           1372         317.00      1351.84
   94.52        2961.50           1376         408.00      1748.57
   94.55        2961.75           1379         570.00      2454.85
   94.58        2962.00           1382        1010.00      4373.29
   94.61        2962.25           1386        2545.00     11067.76
   94.64        2962.50           1389        4100.00     17852.19
   94.67        2962.75           1392        5620.00     24486.60
   94.70        2963.00           1396        7704.00     33587.01
   94.73        2963.25           1399        9512.00     41486.22
   94.76        2963.50           1402       11100.00     48427.33
   94.79        2963.75           1406       13350.00     58266.98
   94.83        2964.00           1409       14962.00     65320.12
   94.86        2964.25           1412       16829.00     73492.72
   94.89        2964.50           1416       18909.00     82602.43
   94.92        2964.75           1419       20685.00     90384.68
   94.95        2965.00           1422       22330.00     97596.15
   94.98        2965.25           1426       24438.00    106841.90
   95.01        2965.50           1429       26149.00    114350.20
   95.04        2965.75           1432       27999.00    122472.30
   95.07        2966.00           1436       29975.00    131151.90
   95.10        2966.25           1439       31695.00    138710.70
   95.13        2966.50           1442       33043.00    144637.10
   95.16        2966.75           1446       35001.00    153249.20
   95.20        2967.00           1449       35656.00    156131.10
   95.23        2967.25           1452       35699.00    156320.30
   95.26        2967.50           1456       35927.00    157323.60
   95.29        2967.75           1459       35966.00    157495.20
   95.32        2968.00           1462       35847.00    156971.60
   95.35        2968.25           1466       35021.00    153337.10
   95.38        2968.50           1469       33795.00    147944.20
   95.41        2968.75           1472       32401.00    141814.40
   95.44        2969.00           1476       30287.00    132522.80
   95.47        2969.25           1479       28586.00    125050.20
   95.51        2969.50           1482       26746.00    116970.80
   95.54        2969.75           1486       24542.00    107298.20
   95.57        2970.00           1489       22856.00     99902.72
   95.60        2970.25           1492       21276.00     92975.19
   95.63        2970.50           1496       19076.00     83334.06
   95.66        2970.75           1499       17533.00     76575.46
   95.69        2971.00           1502       15884.00     69355.58
   95.72        2971.25           1506       13634.00     59509.37
   95.75        2971.50           1509       12105.00     52821.65
   95.78        2971.75           1513        9802.00     42753.58
   95.82        2972.00           1516        8115.00     35382.35
   95.85        2972.25           1519        6604.00     28782.91
   95.88        2972.50           1523        4368.00     19021.75
   95.91        2972.75           1526        2765.00     12027.44
   95.94        2973.00           1529        1470.00      6379.16
   95.97        2973.25           1533         543.00      2337.13
   96.00        2973.50           1536         341.00      1456.47
   96.03        2973.75           1539         264.00      1120.79
   96.06        2974.00           1543         243.00      1029.24
   96.09        2974.25           1546         163.00       680.48
   96.13        2974.50           1549         119.00       488.67
   96.16        2974.75           1553          91.00       366.61
   96.19        2975.00           1556          59.00       227.12
   96.22        2975.25           1559          57.00       218.40
   96.25        2975.50           1563          46.00       170.45
   96.28        2975.75           1566          52.00       196.60
   96.31        2976.00           1569          48.00       179.16
   96.34        2976.25           1573          43.00       157.37
   96.37        2976.50           1576          47.00       174.80
   96.40        2976.75           1579          42.00       153.01
   96.44        2977.00           1583          44.00       161.73
   96.47        2977.25           1586          49.00       183.52
   96.50        2977.50           1590          49.00       183.52
   96.53        2977.75           1593          44.00       161.73
   96.56        2978.00           1596          51.00       192.24
   96.59        2978.25           1600          59.00       227.12
   96.62        2978.50           1603          42.00       153.01
   96.65        2978.75           1606          41.00       148.65
   96.68        2979.00           1610          46.00       170.45
   96.71        2979.25           1613          45.00       166.09
   96.74        2979.50           1616          46.00       170.45
   96.78        2979.75           1620          46.00       170.45
   96.81        2980.00           1623          44.00       161.73
   96.84        2980.25           1626          52.00       196.60
   96.87        2980.50           1630          42.00       153.01
   96.90        2980.75           1633          42.00       153.01
   96.93        2981.00           1637          47.00       174.80
   96.96        2981.25           1640          53.00       200.96
   96.99        2981.50           1643          59.00       227.12
   97.02        2981.75           1647          41.00       148.65
   97.05        2982.00           1650          50.00       187.88
   97.08        2982.25           1653          50.00       187.88
   97.12        2982.50           1657          44.00       161.73
   97.15        2982.75           1660          47.00       174.80
   97.18        2983.00           1663          49.00       183.52
   97.21        2983.25           1667          41.00       148.65
   97.24        2983.50           1670          46.00       170.45
   97.27        2983.75           1673          42.00       153.01
   97.30        2984.00           1677          44.00       161.73
HS scan finished at 01:37:31
end
************************************************************
  HS Scan of (1) Internal mercury lamp
************************************************************
Integration time is 0.2294 seconds per sample
dh130417Manchester 53.47 2.23 2.804185pr1000
************************************************************
Dead Time -------------------------  3E-08 
Number of Cycles Used -------------  4 
Starting Wavelength (Angstroms) ---  2950 
Final Wavelength (Angstoms) -------  2984 
Wavelength Increment (Angstroms) --  .25 
Filter Wheel #1 Position ---------- (1) Ground quartz diffuser (ND=2.32)
Filter Wheel #2 Position ---------- (1) Neutral Density 0.494



************************************************************
HS scan start time = 20:12:03
Dark Count =  7.3 


Time (GMT)  Wavelength (Ang)  Step Number  Raw Counts  Counts/Second

 1212.42        2950.00           1222          46.00       168.70
 1212.49        2950.25           1226          57.00       216.65
 1212.52        2950.50           1229          47.00       173.06
 1212.55        2950.75           1232          46.00       168.70
 1212.58        2951.00           1236          45.00       164.34
 1212.61        2951.25           1239          47.00       173.06
 1212.64        2951.50           1242          50.00       186.14
 1212.67        2951.75           1246          47.00       173.06
 1212.70        2952.00           1249          52.00       194.86
 1212.73        2952.25           1252          49.00       181.78
 1212.77        2952.50           1256          45.00       164.34
 1212.80        2952.75           1259          45.00       164.34
 1212.83        2953.00           1262          42.00       151.26
 1212.86        2953.25           1266          43.00       155.62
 1212.89        2953.50           1269          45.00       164.34
 1212.92        2953.75           1272          48.00       177.42
 1212.95        2954.00           1276          50.00       186.14
 1212.98        2954.25           1279          45.00       164.34
 1213.01        2954.50           1282          45.00       164.34
 1213.04        2954.75           1286          48.00       177.42
 1213.07        2955.00           1289          47.00       173.06
 1213.10        2955.25           1292          42.00       151.26
 1213.13        2955.50           1296          45.00       164.34
 1213.16        2955.75           1299          45.00       164.34
 1213.20        2956.00           1302          47.00       173.06
 1213.23        2956.25           1306          55.00       207.94
 1213.26        2956.50           1309          58.00       221.01
 1213.29        2956.75           1312          45.00       164.34
 1213.32        2957.00           1316          44.00       159.98
 1213.35        2957.25           1319          44.00       159.98
 1213.38        2957.50           1322          46.00       168.70
 1213.41        2957.75           1326          46.00       168.70
 1213.44        2958.00           1329          44.00       159.98
 1213.47        2958.25           1332          55.00       207.94
 1213.50        2958.50           1336          37.00       129.47
 1213.53        2958.75           1339          47.00       173.06
 1213.57        2959.00           1342          43.00       155.62
 1213.60        2959.25           1346          50.00       186.14
 1213.63        2959.50           1349          55.00       207.94
 1213.66        2959.75           1352          61.00       234.09
 1213.69        2960.00           1356          87.00       347.43
 1213.72        2960.25           1359         113.00       460.77
 1213.75        2960.50           1362         150.00       622.07
 1213.78        2960.75           1366         217.00       914.15
 1213.81        2961.00           1369         246.00      1040.57
 1213.84        2961.25           1372         302.00      1284.71
 1213.88        2961.50           1376         385.00      1646.55
 1213.91        2961.75           1379         608.00      2618.78
 1213.94        2962.00           1382        1235.00      5352.65
 1213.97        2962.25           1386        2818.00     12256.90
 1214.00        2962.50           1389        4420.00     19246.94
 1214.03        2962.75           1392        5951.00     25929.93
 1214.06        2963.00           1396        8101.00     35319.45
 1214.09        2963.25           1399        9688.00     42253.62
 1214.12        2963.50           1402       11350.00     49518.59
 1214.15        2963.75           1406       13882.00     60592.61
 1214.18        2964.00           1409       15538.00     67839.33
 1214.22        2964.25           1412       17450.00     76210.22
 1214.25        2964.50           1416       19466.00     85041.01
 1214.28        2964.75           1419       21066.00     92052.90
 1214.31        2965.00           1422       22919.00    100177.20
 1214.34        2965.25           1426       25097.00    109731.60
 1214.37        2965.50           1429       26937.00    117807.50
 1214.40        2965.75           1432       28573.00    124991.40
 1214.43        2966.00           1436       30598.00    133887.60
 1214.46        2966.25           1439       32328.00    141491.60
 1214.50        2966.50           1442       33761.00    147792.90
 1214.53        2966.75           1446       35572.00    155759.70
 1214.56        2967.00           1449       35697.00    156309.70
 1214.59        2967.25           1452       35772.00    156639.80
 1214.62        2967.50           1456       35876.00    157097.40
 1214.65        2967.75           1459       36014.00    157704.70
 1214.68        2968.00           1462       35738.00    156490.10
 1214.71        2968.25           1466       34779.00    152270.70
 1214.74        2968.50           1469       33560.00    146908.90
 1214.78        2968.75           1472       31969.00    139913.40
 1214.81        2969.00           1476       29927.00    130939.20
 1214.84        2969.25           1479       28512.00    124723.40
 1214.87        2969.50           1482       26311.00    115059.50
 1214.90        2969.75           1486       24393.00    106642.70
 1214.93        2970.00           1489       22670.00     99085.30
 1214.96        2970.25           1492       21188.00     92587.68
 1214.99        2970.50           1496       18868.00     82421.07
 1215.02        2970.75           1499       17265.00     75400.10
 1215.06        2971.00           1502       15580.00     68023.16
 1215.09        2971.25           1506       13374.00     58370.22
 1215.12        2971.50           1509       11859.00     51744.17
 1215.15        2971.75           1513        9607.00     41899.63
 1215.18        2972.00           1516        8027.00     34996.18
 1215.21        2972.25           1519        6532.00     28466.76
 1215.24        2972.50           1523        4328.00     18845.44
 1215.27        2972.75           1526        2680.00     11654.90
 1215.30        2973.00           1529        1359.00      5893.37
 1215.33        2973.25           1533         494.00      2121.76
 1215.37        2973.50           1536         373.00      1594.24
 1215.40        2973.75           1539         306.00      1302.14
 1215.43        2974.00           1543         247.00      1044.93
 1215.46        2974.25           1546         184.00       770.29
 1215.49        2974.50           1549         137.00       565.40
 1215.52        2974.75           1553          93.00       373.59
 1215.55        2975.00           1556          85.00       338.71
 1215.58        2975.25           1559          58.00       221.01
 1215.62        2975.50           1563          53.00       199.22
 1215.65        2975.75           1566          51.00       190.50
 1215.68        2976.00           1569          44.00       159.98
 1215.71        2976.25           1573          54.00       203.58
 1215.74        2976.50           1576          48.00       177.42
 1215.77        2976.75           1579          51.00       190.50
 1215.80        2977.00           1583          47.00       173.06
 1215.83        2977.25           1586          42.00       151.26
 1215.86        2977.50           1590          53.00       199.22
 1215.89        2977.75           1593          43.00       155.62
 1215.92        2978.00           1596          47.00       173.06
 1215.95        2978.25           1600          51.00       190.50
 1215.99        2978.50           1603          55.00       207.94
 1216.02        2978.75           1606          40.00       142.55
 1216.05        2979.00           1610          44.00       159.98
 1216.08        2979.25           1613          47.00       173.06
 1216.11        2979.50           1616          56.00       212.29
 1216.14        2979.75           1620          40.00       142.55
 1216.17        2980.00           1623          46.00       168.70
 1216.20        2980.25           1626          41.00       146.91
 1216.23        2980.50           1630          56.00       212.29
 1216.26        2980.75           1633          50.00       186.14
 1216.29        2981.00           1637          57.00       216.65
 1216.32        2981.25           1640          42.00       151.26
 1216.35        2981.50           1643          47.00       173.06
 1216.39        2981.75           1647          39.00       138.19
 1216.42        2982.00           1650          42.00       151.26
 1216.45        2982.25           1653          42.00       151.26
 1216.48        2982.50           1657          50.00       186.14
 1216.51        2982.75           1660          39.00       138.19
 1216.54        2983.00           1663          40.00       142.55
 1216.57        2983.25           1667          52.00       194.86
 1216.60        2983.50           1670          41.00       146.91
 1216.63        2983.75           1673          44.00       159.98
 1216.66        2984.00           1677          45.00       164.34
HS scan finished at 20:16:53
end
