************************************************************
  HS Scan of (1) Internal mercury lamp
************************************************************
Integration time is 0.2294 seconds per sample
dh150418Manchester 53.47 2.23 2.804185pr1000
************************************************************
Dead Time -------------------------  3E-08 
Number of Cycles Used -------------  4 
Starting Wavelength (Angstroms) ---  2950 
Final Wavelength (Angstoms) -------  2984 
Wavelength Increment (Angstroms) --  .25 
Filter Wheel #1 Position ---------- (1) Ground quartz diffuser (ND=2.32)
Filter Wheel #2 Position ---------- (1) Neutral Density 0.494



************************************************************
HS scan start time = 01:25:12
Dark Count =  6.8 


Time (GMT)  Wavelength (Ang)  Step Number  Raw Counts  Counts/Second

   85.58        2950.00           1222          62.00       240.63
   85.64        2950.25           1226          57.00       218.83
   85.67        2950.50           1229          60.00       231.91
   85.70        2950.75           1232          60.00       231.91
   85.73        2951.00           1236          57.00       218.83
   85.77        2951.25           1239          59.00       227.55
   85.80        2951.50           1242          69.00       271.14
   85.83        2951.75           1246          64.00       249.35
   85.86        2952.00           1249          56.00       214.47
   85.89        2952.25           1252          61.00       236.27
   85.92        2952.50           1256          57.00       218.83
   85.95        2952.75           1259          57.00       218.83
   85.98        2953.00           1262          61.00       236.27
   86.01        2953.25           1266          74.00       292.94
   86.04        2953.50           1269          59.00       227.55
   86.07        2953.75           1272          64.00       249.35
   86.10        2954.00           1276          59.00       227.55
   86.13        2954.25           1279          68.00       266.79
   86.16        2954.50           1282          54.00       205.76
   86.19        2954.75           1286          53.00       201.40
   86.22        2955.00           1289          59.00       227.55
   86.25        2955.25           1292          52.00       197.04
   86.28        2955.50           1296          59.00       227.55
   86.31        2955.75           1299          63.00       244.99
   86.35        2956.00           1302          60.00       231.91
   86.38        2956.25           1306          66.00       258.07
   86.41        2956.50           1309          62.00       240.63
   86.44        2956.75           1312          67.00       262.43
   86.47        2957.00           1316          50.00       188.32
   86.50        2957.25           1319          54.00       205.76
   86.53        2957.50           1322          61.00       236.27
   86.56        2957.75           1326          57.00       218.83
   86.59        2958.00           1329          58.00       223.19
   86.62        2958.25           1332          57.00       218.83
   86.66        2958.50           1336          59.00       227.55
   86.69        2958.75           1339          57.00       218.83
   86.72        2959.00           1342          56.00       214.47
   86.75        2959.25           1346          68.00       266.79
   86.78        2959.50           1349          76.00       301.66
   86.81        2959.75           1352          88.00       353.97
   86.84        2960.00           1356         120.00       493.47
   86.87        2960.25           1359         135.00       558.86
   86.90        2960.50           1362         186.00       781.19
   86.93        2960.75           1366         226.00       955.56
   86.96        2961.00           1369         289.00      1230.21
   86.99        2961.25           1372         328.00      1400.23
   87.02        2961.50           1376         367.00      1570.26
   87.05        2961.75           1379         511.00      2198.05
   87.08        2962.00           1382        1085.00      4700.75
   87.12        2962.25           1386        2770.00     12049.69
   87.15        2962.50           1389        4229.00     18415.58
   87.18        2962.75           1392        5760.00     25098.23
   87.21        2963.00           1396        7652.00     33360.31
   87.24        2963.25           1399        9187.00     40066.44
   87.27        2963.50           1402       10644.00     46434.30
   87.30        2963.75           1406       12663.00     55262.43
   87.33        2964.00           1409       14094.00     61522.34
   87.36        2964.25           1412       15541.00     67854.65
   87.39        2964.50           1416       17488.00     76378.81
   87.43        2964.75           1419       18874.00     82449.55
   87.46        2965.00           1422       20515.00     89640.04
   87.49        2965.25           1426       22486.00     98280.63
   87.52        2965.50           1429       23940.00    104657.60
   87.55        2965.75           1432       25396.00    111045.90
   87.58        2966.00           1436       27320.00    119491.20
   87.61        2966.25           1439       28949.00    126645.00
   87.64        2966.50           1442       30262.00    132413.40
   87.67        2966.75           1446       31708.00    138768.30
   87.70        2967.00           1449       32036.00    140210.10
   87.73        2967.25           1452       31991.00    140012.30
   87.76        2967.50           1456       32189.00    140882.80
   87.80        2967.75           1459       31991.00    140012.30
   87.83        2968.00           1462       31975.00    139942.00
   87.86        2968.25           1466       31174.00    136421.20
   87.89        2968.50           1469       29812.00    130436.20
   87.92        2968.75           1472       28325.00    123904.40
   87.95        2969.00           1476       26340.00    115189.00
   87.98        2969.25           1479       24774.00    108316.50
   88.01        2969.50           1482       23246.00    101613.60
   88.04        2969.75           1486       21492.00     93922.51
   88.07        2970.00           1489       19944.00     87137.69
   88.10        2970.25           1492       18755.00     81928.23
   88.14        2970.50           1496       16690.00     72884.56
   88.17        2970.75           1499       15231.00     66497.83
   88.20        2971.00           1502       13836.00     60393.55
   88.23        2971.25           1506       11760.00     51313.46
   88.26        2971.50           1509       10191.00     44454.19
   88.29        2971.75           1513        8303.00     36204.08
   88.32        2972.00           1516        6834.00     29787.73
   88.35        2972.25           1519        5271.00     22963.51
   88.38        2972.50           1523        3376.00     14693.49
   88.41        2972.75           1526        1898.00      8246.15
   88.44        2973.00           1529         789.00      3410.11
   88.47        2973.25           1533         378.00      1618.21
   88.51        2973.50           1536         293.00      1247.65
   88.54        2973.75           1539         263.00      1116.86
   88.57        2974.00           1543         206.00       868.37
   88.60        2974.25           1546         165.00       689.64
   88.63        2974.50           1549         119.00       489.11
   88.66        2974.75           1553          82.00       327.81
   88.69        2975.00           1556          64.00       249.35
   88.72        2975.25           1559          64.00       249.35
   88.75        2975.50           1563          59.00       227.55
   88.78        2975.75           1566          56.00       214.47
   88.81        2976.00           1569          56.00       214.47
   88.84        2976.25           1573          49.00       183.96
   88.87        2976.50           1576          56.00       214.47
   88.90        2976.75           1579          62.00       240.63
   88.93        2977.00           1583          52.00       197.04
   88.96        2977.25           1586          60.00       231.91
   89.00        2977.50           1590          53.00       201.40
   89.03        2977.75           1593          48.00       179.60
   89.06        2978.00           1596          53.00       201.40
   89.09        2978.25           1600          58.00       223.19
   89.12        2978.50           1603          52.00       197.04
   89.15        2978.75           1606          56.00       214.47
   89.18        2979.00           1610          53.00       201.40
   89.21        2979.25           1613          51.00       192.68
   89.24        2979.50           1616          62.00       240.63
   89.27        2979.75           1620          54.00       205.76
   89.30        2980.00           1623          61.00       236.27
   89.33        2980.25           1626          55.00       210.11
   89.37        2980.50           1630          47.00       175.24
   89.40        2980.75           1633          55.00       210.11
   89.43        2981.00           1637          52.00       197.04
   89.46        2981.25           1640          49.00       183.96
   89.49        2981.50           1643          55.00       210.11
   89.52        2981.75           1647          51.00       192.68
   89.55        2982.00           1650          51.00       192.68
   89.58        2982.25           1653          55.00       210.11
   89.61        2982.50           1657          53.00       201.40
   89.64        2982.75           1660          56.00       214.47
   89.67        2983.00           1663          56.00       214.47
   89.70        2983.25           1667          53.00       201.40
   89.73        2983.50           1670          57.00       218.83
   89.76        2983.75           1673          59.00       227.55
   89.79        2984.00           1677          49.00       183.96
HS scan finished at 01:30:01
end
************************************************************
  HS Scan of (1) Internal mercury lamp
************************************************************
Integration time is 0.2294 seconds per sample
dh150418Manchester 53.47 2.23 2.804185pr1000
************************************************************
Dead Time -------------------------  3E-08 
Number of Cycles Used -------------  4 
Starting Wavelength (Angstroms) ---  2950 
Final Wavelength (Angstoms) -------  2984 
Wavelength Increment (Angstroms) --  .25 
Filter Wheel #1 Position ---------- (1) Ground quartz diffuser (ND=2.32)
Filter Wheel #2 Position ---------- (1) Neutral Density 0.494



************************************************************
HS scan start time = 20:12:04
Dark Count =  6.7 


Time (GMT)  Wavelength (Ang)  Step Number  Raw Counts  Counts/Second

 1212.43        2950.00           1222          58.00       223.63
 1212.50        2950.25           1226          65.00       254.14
 1212.53        2950.50           1229          49.00       184.40
 1212.56        2950.75           1232          58.00       223.63
 1212.59        2951.00           1236          62.00       241.07
 1212.62        2951.25           1239          67.00       262.86
 1212.65        2951.50           1242          53.00       201.83
 1212.68        2951.75           1246          57.00       219.27
 1212.71        2952.00           1249          72.00       284.66
 1212.75        2952.25           1252          68.00       267.22
 1212.78        2952.50           1256          55.00       210.55
 1212.81        2952.75           1259          56.00       214.91
 1212.84        2953.00           1262          53.00       201.83
 1212.87        2953.25           1266          62.00       241.07
 1212.90        2953.50           1269          54.00       206.19
 1212.93        2953.75           1272          58.00       223.63
 1212.96        2954.00           1276          54.00       206.19
 1212.99        2954.25           1279          59.00       227.99
 1213.02        2954.50           1282          67.00       262.86
 1213.05        2954.75           1286          59.00       227.99
 1213.08        2955.00           1289          50.00       188.75
 1213.12        2955.25           1292          57.00       219.27
 1213.15        2955.50           1296          60.00       232.35
 1213.18        2955.75           1299          61.00       236.71
 1213.21        2956.00           1302          63.00       245.42
 1213.24        2956.25           1306          61.00       236.71
 1213.27        2956.50           1309          55.00       210.55
 1213.30        2956.75           1312          66.00       258.50
 1213.33        2957.00           1316          54.00       206.19
 1213.36        2957.25           1319          59.00       227.99
 1213.39        2957.50           1322          63.00       245.42
 1213.42        2957.75           1326          56.00       214.91
 1213.45        2958.00           1329          61.00       236.71
 1213.48        2958.25           1332          55.00       210.55
 1213.52        2958.50           1336          55.00       210.55
 1213.55        2958.75           1339          54.00       206.19
 1213.58        2959.00           1342          71.00       280.30
 1213.61        2959.25           1346          62.00       241.07
 1213.64        2959.50           1349          66.00       258.50
 1213.67        2959.75           1352          85.00       341.33
 1213.70        2960.00           1356         103.00       419.80
 1213.73        2960.25           1359         127.00       524.42
 1213.76        2960.50           1362         174.00       729.31
 1213.79        2960.75           1366         226.00       956.00
 1213.82        2961.00           1369         273.00      1160.89
 1213.85        2961.25           1372         292.00      1243.73
 1213.88        2961.50           1376         395.00      1692.76
 1213.92        2961.75           1379         672.00      2900.43
 1213.95        2962.00           1382        1511.00      6558.83
 1213.98        2962.25           1386        3363.00     14637.20
 1214.01        2962.50           1389        4758.00     20724.74
 1214.04        2962.75           1392        6110.00     26626.76
 1214.07        2963.00           1396        7882.00     34365.40
 1214.10        2963.25           1399        9441.00     41176.82
 1214.13        2963.50           1402       10780.00     47029.26
 1214.16        2963.75           1406       12854.00     56098.26
 1214.20        2964.00           1409       14473.00     63181.11
 1214.23        2964.25           1412       16164.00     70582.16
 1214.26        2964.50           1416       18150.00     79278.57
 1214.29        2964.75           1419       19672.00     85946.26
 1214.32        2965.00           1422       21285.00     93015.52
 1214.35        2965.25           1426       23270.00    101719.30
 1214.38        2965.50           1429       24677.00    107891.40
 1214.41        2965.75           1432       26185.00    114509.10
 1214.44        2966.00           1436       28212.00    123408.50
 1214.47        2966.25           1439       29424.00    128732.00
 1214.50        2966.50           1442       30661.00    134167.10
 1214.53        2966.75           1446       31939.00    139784.20
 1214.57        2967.00           1449       32182.00    140852.40
 1214.60        2967.25           1452       32117.00    140566.70
 1214.63        2967.50           1456       32097.00    140478.80
 1214.66        2967.75           1459       32050.00    140272.10
 1214.69        2968.00           1462       31725.00    138843.50
 1214.72        2968.25           1466       30682.00    134259.40
 1214.75        2968.50           1469       29200.00    127748.00
 1214.78        2968.75           1472       27807.00    121630.00
 1214.81        2969.00           1476       25945.00    113455.70
 1214.85        2969.25           1479       24405.00    106698.00
 1214.88        2969.50           1482       23049.00    100750.00
 1214.91        2969.75           1486       21040.00     91941.57
 1214.94        2970.00           1489       19473.00     85074.31
 1214.97        2970.25           1492       18060.00     78884.38
 1215.00        2970.50           1496       16089.00     70253.85
 1215.03        2970.75           1499       14660.00     63999.40
 1215.06        2971.00           1502       13080.00     57086.79
 1215.09        2971.25           1506       11099.00     48423.83
 1215.12        2971.50           1509        9576.00     41766.78
 1215.16        2971.75           1513        7630.00     33264.65
 1215.19        2972.00           1516        6121.00     26674.78
 1215.22        2972.25           1519        4670.00     20340.66
 1215.25        2972.50           1523        2848.00     12390.40
 1215.28        2972.75           1526        1597.00      6933.87
 1215.31        2973.00           1529         660.00      2848.11
 1215.34        2973.25           1533         352.00      1505.30
 1215.37        2973.50           1536         297.00      1265.52
 1215.40        2973.75           1539         263.00      1117.30
 1215.43        2974.00           1543         224.00       947.28
 1215.46        2974.25           1546         171.00       716.23
 1215.49        2974.50           1549         126.00       520.06
 1215.52        2974.75           1553          88.00       354.41
 1215.56        2975.00           1556          75.00       297.74
 1215.59        2975.25           1559          73.00       289.02
 1215.62        2975.50           1563          65.00       254.14
 1215.65        2975.75           1566          65.00       254.14
 1215.68        2976.00           1569          53.00       201.83
 1215.71        2976.25           1573          56.00       214.91
 1215.74        2976.50           1576          63.00       245.42
 1215.77        2976.75           1579          58.00       223.63
 1215.80        2977.00           1583          55.00       210.55
 1215.83        2977.25           1586          57.00       219.27
 1215.87        2977.50           1590          54.00       206.19
 1215.90        2977.75           1593          60.00       232.35
 1215.93        2978.00           1596          59.00       227.99
 1215.96        2978.25           1600          60.00       232.35
 1215.99        2978.50           1603          55.00       210.55
 1216.02        2978.75           1606          59.00       227.99
 1216.05        2979.00           1610          60.00       232.35
 1216.08        2979.25           1613          56.00       214.91
 1216.11        2979.50           1616          55.00       210.55
 1216.14        2979.75           1620          49.00       184.40
 1216.17        2980.00           1623          50.00       188.75
 1216.20        2980.25           1626          52.00       197.47
 1216.23        2980.50           1630          59.00       227.99
 1216.26        2980.75           1633          63.00       245.42
 1216.30        2981.00           1637          61.00       236.71
 1216.33        2981.25           1640          58.00       223.63
 1216.36        2981.50           1643          52.00       197.47
 1216.39        2981.75           1647          52.00       197.47
 1216.42        2982.00           1650          55.00       210.55
 1216.45        2982.25           1653          56.00       214.91
 1216.48        2982.50           1657          54.00       206.19
 1216.51        2982.75           1660          43.00       158.24
 1216.54        2983.00           1663          52.00       197.47
 1216.57        2983.25           1667          54.00       206.19
 1216.60        2983.50           1670          52.00       197.47
 1216.63        2983.75           1673          56.00       214.91
 1216.67        2984.00           1677          54.00       206.19
HS scan finished at 20:16:53
end
