************************************************************
  HS Scan of (1) Internal mercury lamp
************************************************************
Integration time is 0.2294 seconds per sample
dh100417Manchester 53.47 2.23 2.750537pr1000
************************************************************
Dead Time -------------------------  3E-08 
Number of Cycles Used -------------  4 
Starting Wavelength (Angstroms) ---  2950 
Final Wavelength (Angstoms) -------  2984 
Wavelength Increment (Angstroms) --  .25 
Filter Wheel #1 Position ---------- (1) Ground quartz diffuser (ND=2.32)
Filter Wheel #2 Position ---------- (1) Neutral Density 0.494



************************************************************
HS scan start time = 01:38:44
Dark Count =  4.6 


Time (GMT)  Wavelength (Ang)  Step Number  Raw Counts  Counts/Second

   99.10        2950.00           1222          47.00       184.83
   99.17        2950.25           1226          43.00       167.39
   99.20        2950.50           1229          45.00       176.11
   99.23        2950.75           1232          53.00       210.99
   99.26        2951.00           1236          47.00       184.83
   99.29        2951.25           1239          44.00       171.75
   99.32        2951.50           1242          51.00       202.27
   99.35        2951.75           1246          47.00       184.83
   99.39        2952.00           1249          45.00       176.11
   99.42        2952.25           1252          43.00       167.39
   99.45        2952.50           1256          57.00       228.42
   99.48        2952.75           1259          52.00       206.63
   99.51        2953.00           1262          45.00       176.11
   99.54        2953.25           1266          43.00       167.39
   99.57        2953.50           1269          46.00       180.47
   99.60        2953.75           1272          50.00       197.91
   99.63        2954.00           1276          51.00       202.27
   99.66        2954.25           1279          51.00       202.27
   99.70        2954.50           1282          45.00       176.11
   99.73        2954.75           1286          44.00       171.75
   99.76        2955.00           1289          46.00       180.47
   99.79        2955.25           1292          43.00       167.39
   99.82        2955.50           1296          42.00       163.03
   99.85        2955.75           1299          45.00       176.11
   99.88        2956.00           1302          46.00       180.47
   99.91        2956.25           1306          55.00       219.71
   99.94        2956.50           1309          44.00       171.75
   99.97        2956.75           1312          48.00       189.19
  100.01        2957.00           1316          49.00       193.55
  100.04        2957.25           1319          43.00       167.39
  100.07        2957.50           1322          52.00       206.63
  100.10        2957.75           1326          45.00       176.11
  100.13        2958.00           1329          53.00       210.99
  100.16        2958.25           1332          50.00       197.91
  100.19        2958.50           1336          48.00       189.19
  100.22        2958.75           1339          53.00       210.99
  100.25        2959.00           1342          51.00       202.27
  100.29        2959.25           1346          45.00       176.11
  100.32        2959.50           1349          52.00       206.63
  100.35        2959.75           1352          62.00       250.22
  100.38        2960.00           1356          86.00       354.84
  100.41        2960.25           1359         100.00       415.87
  100.44        2960.50           1362         163.00       690.51
  100.47        2960.75           1366         197.00       838.73
  100.50        2961.00           1369         249.00      1065.42
  100.53        2961.25           1372         293.00      1257.24
  100.56        2961.50           1376         371.00      1597.29
  100.60        2961.75           1379         622.00      2691.59
  100.63        2962.00           1382        1264.00      5490.88
  100.66        2962.25           1386        2988.00     13010.31
  100.69        2962.50           1389        4583.00     19970.11
  100.72        2962.75           1392        6183.00     26954.66
  100.75        2963.00           1396        8247.00     35969.05
  100.78        2963.25           1399        9777.00     42654.38
  100.81        2963.50           1402       11529.00     50313.03
  100.84        2963.75           1406       13757.00     60057.55
  100.87        2964.00           1409       15493.00     67654.18
  100.91        2964.25           1412       17226.00     75241.13
  100.94        2964.50           1416       19655.00     85880.97
  100.97        2964.75           1419       21238.00     92818.69
  101.00        2965.00           1422       22930.00    100237.30
  101.03        2965.25           1426       25027.00    109436.30
  101.06        2965.50           1429       26767.00    117073.10
  101.09        2965.75           1432       28396.00    124225.80
  101.12        2966.00           1436       30434.00    133178.80
  101.15        2966.25           1439       32186.00    140879.20
  101.19        2966.50           1442       33869.00    148279.80
  101.22        2966.75           1446       35532.00    155595.60
  101.25        2967.00           1449       36024.00    157760.60
  101.28        2967.25           1452       36306.00    159001.60
  101.31        2967.50           1456       36299.00    158970.80
  101.34        2967.75           1459       36262.00    158808.00
  101.37        2968.00           1462       35950.00    157434.90
  101.40        2968.25           1466       35264.00    154416.40
  101.44        2968.50           1469       34074.00    149181.40
  101.47        2968.75           1472       32227.00    141059.50
  101.50        2969.00           1476       30143.00    131900.20
  101.53        2969.25           1479       28384.00    124173.10
  101.56        2969.50           1482       26832.00    117358.40
  101.59        2969.75           1486       24559.00    107382.90
  101.62        2970.00           1489       22888.00    100053.10
  101.65        2970.25           1492       21377.00     93428.02
  101.68        2970.50           1496       19209.00     83926.82
  101.72        2970.75           1499       17486.00     76379.71
  101.75        2971.00           1502       15796.00     68980.44
  101.78        2971.25           1506       13399.00     58491.39
  101.81        2971.50           1509       11750.00     51279.36
  101.84        2971.75           1513        9542.00     41627.37
  101.87        2972.00           1516        7957.00     34702.20
  101.90        2972.25           1519        6231.00     27164.24
  101.93        2972.50           1523        4118.00     17940.78
  101.96        2972.75           1526        2619.00     11400.59
  101.99        2973.00           1529        1457.00      6332.50
  102.03        2973.25           1533         570.00      2464.87
  102.06        2973.50           1536         384.00      1653.96
  102.09        2973.75           1539         348.00      1497.02
  102.12        2974.00           1543         276.00      1183.13
  102.15        2974.25           1546         215.00       917.20
  102.18        2974.50           1549         173.00       734.11
  102.21        2974.75           1553         125.00       524.86
  102.24        2975.00           1556          88.00       363.56
  102.27        2975.25           1559          70.00       285.09
  102.30        2975.50           1563          48.00       189.19
  102.34        2975.75           1566          53.00       210.99
  102.37        2976.00           1569          54.00       215.35
  102.40        2976.25           1573          48.00       189.19
  102.43        2976.50           1576          47.00       184.83
  102.46        2976.75           1579          48.00       189.19
  102.49        2977.00           1583          47.00       184.83
  102.52        2977.25           1586          47.00       184.83
  102.55        2977.50           1590          48.00       189.19
  102.58        2977.75           1593          51.00       202.27
  102.61        2978.00           1596          55.00       219.71
  102.65        2978.25           1600          50.00       197.91
  102.68        2978.50           1603          45.00       176.11
  102.71        2978.75           1606          44.00       171.75
  102.74        2979.00           1610          43.00       167.39
  102.77        2979.25           1613          44.00       171.75
  102.80        2979.50           1616          50.00       197.91
  102.83        2979.75           1620          53.00       210.99
  102.86        2980.00           1623          48.00       189.19
  102.89        2980.25           1626          45.00       176.11
  102.92        2980.50           1630          47.00       184.83
  102.95        2980.75           1633          45.00       176.11
  102.98        2981.00           1637          42.00       163.03
  103.01        2981.25           1640          45.00       176.11
  103.05        2981.50           1643          45.00       176.11
  103.08        2981.75           1647          51.00       202.27
  103.11        2982.00           1650          48.00       189.19
  103.14        2982.25           1653          45.00       176.11
  103.17        2982.50           1657          41.00       158.68
  103.20        2982.75           1660          45.00       176.11
  103.23        2983.00           1663          42.00       163.03
  103.26        2983.25           1667          42.00       163.03
  103.29        2983.50           1670          44.00       171.75
  103.32        2983.75           1673          47.00       184.83
  103.35        2984.00           1677          43.00       167.39
HS scan finished at 01:43:34
end
************************************************************
  HS Scan of (1) Internal mercury lamp
************************************************************
Integration time is 0.2294 seconds per sample
dh100417Manchester 53.47 2.23 2.804185pr1000
************************************************************
Dead Time -------------------------  3E-08 
Number of Cycles Used -------------  4 
Starting Wavelength (Angstroms) ---  2950 
Final Wavelength (Angstoms) -------  2984 
Wavelength Increment (Angstroms) --  .25 
Filter Wheel #1 Position ---------- (1) Ground quartz diffuser (ND=2.32)
Filter Wheel #2 Position ---------- (1) Neutral Density 0.494



************************************************************
HS scan start time = 20:12:04
Dark Count =  6.4 


Time (GMT)  Wavelength (Ang)  Step Number  Raw Counts  Counts/Second

 1212.44        2950.00           1222          45.00       168.27
 1212.50        2950.25           1226          39.00       142.11
 1212.53        2950.50           1229          47.00       176.98
 1212.56        2950.75           1232          44.00       163.91
 1212.59        2951.00           1236          51.00       194.42
 1212.63        2951.25           1239          36.00       129.03
 1212.66        2951.50           1242          51.00       194.42
 1212.69        2951.75           1246          44.00       163.91
 1212.72        2952.00           1249          44.00       163.91
 1212.75        2952.25           1252          48.00       181.34
 1212.78        2952.50           1256          52.00       198.78
 1212.81        2952.75           1259          43.00       159.55
 1212.84        2953.00           1262          50.00       190.06
 1212.87        2953.25           1266          46.00       172.63
 1212.90        2953.50           1269          47.00       176.98
 1212.93        2953.75           1272          44.00       163.91
 1212.96        2954.00           1276          49.00       185.70
 1213.00        2954.25           1279          43.00       159.55
 1213.03        2954.50           1282          49.00       185.70
 1213.06        2954.75           1286          47.00       176.98
 1213.09        2955.00           1289          48.00       181.34
 1213.12        2955.25           1292          52.00       198.78
 1213.15        2955.50           1296          49.00       185.70
 1213.18        2955.75           1299          50.00       190.06
 1213.21        2956.00           1302          44.00       163.91
 1213.24        2956.25           1306          44.00       163.91
 1213.27        2956.50           1309          51.00       194.42
 1213.30        2956.75           1312          43.00       159.55
 1213.33        2957.00           1316          50.00       190.06
 1213.37        2957.25           1319          49.00       185.70
 1213.40        2957.50           1322          47.00       176.98
 1213.43        2957.75           1326          41.00       150.83
 1213.46        2958.00           1329          43.00       159.55
 1213.49        2958.25           1332          46.00       172.63
 1213.52        2958.50           1336          56.00       216.22
 1213.55        2958.75           1339          54.00       207.50
 1213.58        2959.00           1342          45.00       168.27
 1213.61        2959.25           1346          49.00       185.70
 1213.64        2959.50           1349          55.00       211.86
 1213.67        2959.75           1352          75.00       299.04
 1213.71        2960.00           1356         108.00       442.90
 1213.74        2960.25           1359         132.00       547.52
 1213.77        2960.50           1362         182.00       765.49
 1213.80        2960.75           1366         225.00       952.95
 1213.83        2961.00           1369         278.00      1184.00
 1213.86        2961.25           1372         319.00      1362.74
 1213.89        2961.50           1376         426.00      1829.22
 1213.92        2961.75           1379         631.00      2722.98
 1213.95        2962.00           1382        1272.00      5517.91
 1213.98        2962.25           1386        2968.00     12915.20
 1214.01        2962.50           1389        4654.00     20272.13
 1214.04        2962.75           1392        6361.00     27724.01
 1214.07        2963.00           1396        8578.00     37407.26
 1214.10        2963.25           1399       10176.00     44390.38
 1214.14        2963.50           1402       11885.00     51861.80
 1214.17        2963.75           1406       14153.00     61782.23
 1214.20        2964.00           1409       15762.00     68823.74
 1214.23        2964.25           1412       17606.00     76897.33
 1214.26        2964.50           1416       19790.00     86464.62
 1214.29        2964.75           1419       21354.00     93319.30
 1214.32        2965.00           1422       23182.00    101334.60
 1214.35        2965.25           1426       25344.00    110819.40
 1214.38        2965.50           1429       27168.00    118825.60
 1214.42        2965.75           1432       28734.00    125702.40
 1214.45        2966.00           1436       30994.00    135631.80
 1214.48        2966.25           1439       32646.00    142893.70
 1214.51        2966.50           1442       34221.00    149820.10
 1214.54        2966.75           1446       35496.00    155429.30
 1214.57        2967.00           1449       35965.00    157493.00
 1214.60        2967.25           1452       35762.00    156599.70
 1214.63        2967.50           1456       35949.00    157422.60
 1214.66        2967.75           1459       35905.00    157229.00
 1214.69        2968.00           1462       35427.00    155125.70
 1214.72        2968.25           1466       34341.00    150347.90
 1214.76        2968.50           1469       32949.00    144226.00
 1214.79        2968.75           1472       31275.00    136866.80
 1214.82        2969.00           1476       29470.00    128935.40
 1214.85        2969.25           1479       27554.00    120520.40
 1214.88        2969.50           1482       25848.00    113031.30
 1214.91        2969.75           1486       23826.00    104159.30
 1214.94        2970.00           1489       21893.00     95682.28
 1214.97        2970.25           1492       20271.00     88572.46
 1215.00        2970.50           1496       17980.00     78535.29
 1215.04        2970.75           1499       16512.00     72107.00
 1215.07        2971.00           1502       14899.00     65046.60
 1215.10        2971.25           1506       12595.00     54966.76
 1215.13        2971.50           1509       10861.00     47384.66
 1215.16        2971.75           1513        8605.00     37525.22
 1215.19        2972.00           1516        7074.00     30837.59
 1215.22        2972.25           1519        5377.00     23427.97
 1215.25        2972.50           1523        3300.00     14363.64
 1215.28        2972.75           1526        1926.00      8370.02
 1215.32        2973.00           1529         864.00      3738.87
 1215.35        2973.25           1533         417.00      1789.98
 1215.38        2973.50           1536         351.00      1502.25
 1215.41        2973.75           1539         292.00      1245.03
 1215.44        2974.00           1543         227.00       961.67
 1215.47        2974.25           1546         143.00       595.48
 1215.50        2974.50           1549         127.00       525.73
 1215.53        2974.75           1553          82.00       329.56
 1215.56        2975.00           1556          63.00       246.73
 1215.59        2975.25           1559          61.00       238.01
 1215.62        2975.50           1563          45.00       168.27
 1215.65        2975.75           1566          46.00       172.63
 1215.68        2976.00           1569          43.00       159.55
 1215.72        2976.25           1573          45.00       168.27
 1215.75        2976.50           1576          50.00       190.06
 1215.78        2976.75           1579          50.00       190.06
 1215.81        2977.00           1583          49.00       185.70
 1215.84        2977.25           1586          43.00       159.55
 1215.87        2977.50           1590          48.00       181.34
 1215.90        2977.75           1593          45.00       168.27
 1215.93        2978.00           1596          42.00       155.19
 1215.96        2978.25           1600          48.00       181.34
 1215.99        2978.50           1603          51.00       194.42
 1216.02        2978.75           1606          52.00       198.78
 1216.05        2979.00           1610          40.00       146.47
 1216.09        2979.25           1613          47.00       176.98
 1216.12        2979.50           1616          42.00       155.19
 1216.15        2979.75           1620          47.00       176.98
 1216.18        2980.00           1623          47.00       176.98
 1216.21        2980.25           1626          53.00       203.14
 1216.24        2980.50           1630          40.00       146.47
 1216.27        2980.75           1633          43.00       159.55
 1216.30        2981.00           1637          45.00       168.27
 1216.33        2981.25           1640          41.00       150.83
 1216.36        2981.50           1643          41.00       150.83
 1216.39        2981.75           1647          48.00       181.34
 1216.42        2982.00           1650          49.00       185.70
 1216.46        2982.25           1653          47.00       176.98
 1216.49        2982.50           1657          41.00       150.83
 1216.52        2982.75           1660          45.00       168.27
 1216.55        2983.00           1663          52.00       198.78
 1216.58        2983.25           1667          38.00       137.75
 1216.61        2983.50           1670          44.00       163.91
 1216.64        2983.75           1673          41.00       150.83
 1216.67        2984.00           1677          47.00       176.98
HS scan finished at 20:16:53
end
