************************************************************
  HS Scan of (1) Internal mercury lamp
************************************************************
Integration time is 0.2294 seconds per sample
dh130418Manchester 53.47 2.23 2.804185pr1000
************************************************************
Dead Time -------------------------  3E-08 
Number of Cycles Used -------------  4 
Starting Wavelength (Angstroms) ---  2950 
Final Wavelength (Angstoms) -------  2984 
Wavelength Increment (Angstroms) --  .25 
Filter Wheel #1 Position ---------- (1) Ground quartz diffuser (ND=2.32)
Filter Wheel #2 Position ---------- (1) Neutral Density 0.494



************************************************************
HS scan start time = 01:32:43
Dark Count =  6.1 


Time (GMT)  Wavelength (Ang)  Step Number  Raw Counts  Counts/Second

   93.08        2950.00           1222          61.00       239.32
   93.15        2950.25           1226          60.00       234.96
   93.18        2950.50           1229          60.00       234.96
   93.21        2950.75           1232          55.00       213.17
   93.24        2951.00           1236          58.00       226.24
   93.27        2951.25           1239          55.00       213.17
   93.30        2951.50           1242          54.00       208.81
   93.34        2951.75           1246          57.00       221.88
   93.37        2952.00           1249          56.00       217.53
   93.40        2952.25           1252          55.00       213.17
   93.43        2952.50           1256          65.00       256.76
   93.46        2952.75           1259          52.00       200.09
   93.49        2953.00           1262          56.00       217.53
   93.52        2953.25           1266          58.00       226.24
   93.55        2953.50           1269          62.00       243.68
   93.58        2953.75           1272          63.00       248.04
   93.61        2954.00           1276          63.00       248.04
   93.64        2954.25           1279          61.00       239.32
   93.67        2954.50           1282          55.00       213.17
   93.70        2954.75           1286          59.00       230.60
   93.74        2955.00           1289          62.00       243.68
   93.77        2955.25           1292          50.00       191.37
   93.80        2955.50           1296          60.00       234.96
   93.83        2955.75           1299          54.00       208.81
   93.86        2956.00           1302          54.00       208.81
   93.89        2956.25           1306          63.00       248.04
   93.92        2956.50           1309          58.00       226.24
   93.95        2956.75           1312          55.00       213.17
   93.98        2957.00           1316          61.00       239.32
   94.01        2957.25           1319          51.00       195.73
   94.04        2957.50           1322          62.00       243.68
   94.07        2957.75           1326          56.00       217.53
   94.11        2958.00           1329          56.00       217.53
   94.14        2958.25           1332          61.00       239.32
   94.17        2958.50           1336          51.00       195.73
   94.20        2958.75           1339          67.00       265.48
   94.23        2959.00           1342          54.00       208.81
   94.26        2959.25           1346          65.00       256.76
   94.29        2959.50           1349          76.00       304.71
   94.32        2959.75           1352          82.00       330.87
   94.35        2960.00           1356         117.00       483.44
   94.38        2960.25           1359         132.00       548.83
   94.41        2960.50           1362         182.00       766.80
   94.44        2960.75           1366         218.00       923.74
   94.48        2961.00           1369         289.00      1233.26
   94.51        2961.25           1372         308.00      1316.09
   94.54        2961.50           1376         390.00      1673.58
   94.57        2961.75           1379         502.00      2161.87
   94.60        2962.00           1382         972.00      4211.08
   94.63        2962.25           1386        2446.00     10639.40
   94.66        2962.50           1389        3839.00     16716.75
   94.69        2962.75           1392        5307.00     23123.71
   94.72        2963.00           1396        7177.00     31288.73
   94.75        2963.25           1399        8650.00     37723.14
   94.78        2963.50           1402       10276.00     44828.78
   94.81        2963.75           1406       12262.00     53511.73
   94.85        2964.00           1409       13906.00     60702.86
   94.88        2964.25           1412       15265.00     66649.71
   94.91        2964.50           1416       17277.00     75457.90
   94.94        2964.75           1419       18894.00     82540.24
   94.97        2965.00           1422       20128.00     87947.09
   95.00        2965.25           1426       22178.00     96933.18
   95.03        2965.50           1429       23614.00    103230.70
   95.06        2965.75           1432       25079.00    109657.90
   95.09        2966.00           1436       27140.00    118704.00
   95.13        2966.25           1439       28557.00    124926.40
   95.16        2966.50           1442       29978.00    131168.60
   95.19        2966.75           1446       31653.00    138529.60
   95.22        2967.00           1449       32135.00    140648.40
   95.25        2967.25           1452       32132.00    140635.30
   95.28        2967.50           1456       31935.00    139769.30
   95.31        2967.75           1459       32063.00    140331.90
   95.34        2968.00           1462       31872.00    139492.30
   95.37        2968.25           1466       31333.00    137123.10
   95.41        2968.50           1469       29979.00    131173.00
   95.44        2968.75           1472       28598.00    125106.40
   95.47        2969.00           1476       26848.00    117422.10
   95.50        2969.25           1479       25357.00    110877.80
   95.53        2969.50           1482       23871.00    104358.00
   95.56        2969.75           1486       21863.00     95552.07
   95.59        2970.00           1489       20150.00     88043.49
   95.62        2970.25           1492       18927.00     82684.80
   95.65        2970.50           1496       17023.00     74345.68
   95.68        2970.75           1499       15630.00     68247.27
   95.71        2971.00           1502       14071.00     61424.77
   95.74        2971.25           1506       12267.00     53533.60
   95.77        2971.50           1509       10721.00     46773.96
   95.80        2971.75           1513        8610.00     37548.38
   95.84        2972.00           1516        7303.00     31839.03
   95.87        2972.25           1519        5812.00     25328.30
   95.90        2972.50           1523        3868.00     16843.30
   95.93        2972.75           1526        2384.00     10368.96
   95.96        2973.00           1529        1095.00      4747.41
   95.99        2973.25           1533         417.00      1791.29
   96.02        2973.50           1536         324.00      1385.85
   96.05        2973.75           1539         254.00      1080.68
   96.08        2974.00           1543         224.00       949.90
   96.11        2974.25           1546         160.00       670.89
   96.14        2974.50           1549         126.00       522.68
   96.17        2974.75           1553          83.00       335.23
   96.20        2975.00           1556          62.00       243.68
   96.24        2975.25           1559          62.00       243.68
   96.27        2975.50           1563          59.00       230.60
   96.30        2975.75           1566          49.00       187.01
   96.33        2976.00           1569          55.00       213.17
   96.36        2976.25           1573          53.00       204.45
   96.39        2976.50           1576          61.00       239.32
   96.42        2976.75           1579          56.00       217.53
   96.45        2977.00           1583          52.00       200.09
   96.48        2977.25           1586          55.00       213.17
   96.51        2977.50           1590          51.00       195.73
   96.54        2977.75           1593          64.00       252.40
   96.57        2978.00           1596          54.00       208.81
   96.60        2978.25           1600          55.00       213.17
   96.63        2978.50           1603          49.00       187.01
   96.66        2978.75           1606          57.00       221.88
   96.69        2979.00           1610          58.00       226.24
   96.73        2979.25           1613          54.00       208.81
   96.76        2979.50           1616          63.00       248.04
   96.79        2979.75           1620          56.00       217.53
   96.82        2980.00           1623          57.00       221.88
   96.85        2980.25           1626          58.00       226.24
   96.88        2980.50           1630          56.00       217.53
   96.91        2980.75           1633          66.00       261.12
   96.94        2981.00           1637          53.00       204.45
   96.97        2981.25           1640          54.00       208.81
   97.00        2981.50           1643          59.00       230.60
   97.03        2981.75           1647          52.00       200.09
   97.06        2982.00           1650          56.00       217.53
   97.10        2982.25           1653          53.00       204.45
   97.13        2982.50           1657          58.00       226.24
   97.16        2982.75           1660          54.00       208.81
   97.19        2983.00           1663          46.00       173.93
   97.22        2983.25           1667          59.00       230.60
   97.25        2983.50           1670          55.00       213.17
   97.28        2983.75           1673          48.00       182.65
   97.31        2984.00           1677          49.00       187.01
HS scan finished at 01:37:32
end
************************************************************
  HS Scan of (1) Internal mercury lamp
************************************************************
Integration time is 0.2294 seconds per sample
dh130418Manchester 53.47 2.23 2.804185pr1000
************************************************************
Dead Time -------------------------  3E-08 
Number of Cycles Used -------------  4 
Starting Wavelength (Angstroms) ---  2950 
Final Wavelength (Angstoms) -------  2984 
Wavelength Increment (Angstroms) --  .25 
Filter Wheel #1 Position ---------- (1) Ground quartz diffuser (ND=2.32)
Filter Wheel #2 Position ---------- (1) Neutral Density 0.494



************************************************************
HS scan start time = 20:12:02
Dark Count =  5.7 


Time (GMT)  Wavelength (Ang)  Step Number  Raw Counts  Counts/Second

 1212.40        2950.00           1222          60.00       236.71
 1212.47        2950.25           1226          66.00       262.86
 1212.50        2950.50           1229          61.00       241.07
 1212.53        2950.75           1232          59.00       232.35
 1212.56        2951.00           1236          57.00       223.63
 1212.59        2951.25           1239          64.00       254.14
 1212.62        2951.50           1242          67.00       267.22
 1212.66        2951.75           1246          60.00       236.71
 1212.69        2952.00           1249          60.00       236.71
 1212.72        2952.25           1252          57.00       223.63
 1212.75        2952.50           1256          51.00       197.47
 1212.78        2952.75           1259          59.00       232.35
 1212.81        2953.00           1262          58.00       227.99
 1212.84        2953.25           1266          64.00       254.14
 1212.87        2953.50           1269          66.00       262.86
 1212.90        2953.75           1272          56.00       219.27
 1212.93        2954.00           1276          60.00       236.71
 1212.96        2954.25           1279          53.00       206.19
 1212.99        2954.50           1282          66.00       262.86
 1213.02        2954.75           1286          68.00       271.58
 1213.05        2955.00           1289          55.00       214.91
 1213.08        2955.25           1292          61.00       241.07
 1213.11        2955.50           1296          53.00       206.19
 1213.14        2955.75           1299          57.00       223.63
 1213.18        2956.00           1302          54.00       210.55
 1213.21        2956.25           1306          66.00       262.86
 1213.24        2956.50           1309          58.00       227.99
 1213.27        2956.75           1312          62.00       245.42
 1213.30        2957.00           1316          56.00       219.27
 1213.33        2957.25           1319          62.00       245.42
 1213.36        2957.50           1322          61.00       241.07
 1213.39        2957.75           1326          62.00       245.42
 1213.42        2958.00           1329          53.00       206.19
 1213.45        2958.25           1332          59.00       232.35
 1213.48        2958.50           1336          59.00       232.35
 1213.51        2958.75           1339          63.00       249.78
 1213.54        2959.00           1342          61.00       241.07
 1213.57        2959.25           1346          66.00       262.86
 1213.61        2959.50           1349          79.00       319.53
 1213.64        2959.75           1352          82.00       332.61
 1213.67        2960.00           1356         103.00       424.16
 1213.70        2960.25           1359         126.00       524.42
 1213.73        2960.50           1362         163.00       685.72
 1213.76        2960.75           1366         219.00       929.84
 1213.79        2961.00           1369         257.00      1095.50
 1213.82        2961.25           1372         285.00      1217.57
 1213.85        2961.50           1376         351.00      1505.30
 1213.88        2961.75           1379         476.00      2050.26
 1213.91        2962.00           1382         967.00      4191.02
 1213.94        2962.25           1386        2353.00     10235.49
 1213.98        2962.50           1389        3729.00     16238.51
 1214.01        2962.75           1392        5147.00     22427.03
 1214.04        2963.00           1396        7041.00     30696.52
 1214.07        2963.25           1399        8470.00     36938.47
 1214.10        2963.50           1402        9874.00     43073.50
 1214.13        2963.75           1406       12052.00     52595.13
 1214.16        2964.00           1409       13577.00     59265.26
 1214.19        2964.25           1412       15294.00     66778.38
 1214.22        2964.50           1416       17285.00     75494.68
 1214.25        2964.75           1419       18651.00     81477.47
 1214.29        2965.00           1422       20301.00     88706.99
 1214.32        2965.25           1426       22359.00     97728.56
 1214.35        2965.50           1429       23709.00    103649.20
 1214.38        2965.75           1432       25039.00    109484.10
 1214.41        2966.00           1436       27032.00    118231.60
 1214.44        2966.25           1439       28432.00    124379.10
 1214.47        2966.50           1442       29577.00    129408.60
 1214.50        2966.75           1446       31237.00    136702.90
 1214.53        2967.00           1449       31828.00    139300.60
 1214.57        2967.25           1452       31905.00    139639.10
 1214.60        2967.50           1456       31973.00    139938.10
 1214.63        2967.75           1459       31694.00    138711.60
 1214.66        2968.00           1462       31858.00    139432.50
 1214.69        2968.25           1466       31160.00    136364.50
 1214.72        2968.50           1469       30049.00    131482.30
 1214.75        2968.75           1472       28572.00    124994.00
 1214.78        2969.00           1476       26691.00    116734.60
 1214.81        2969.25           1479       25364.00    110910.30
 1214.84        2969.50           1482       23764.00    103890.40
 1214.87        2969.75           1486       21744.00     95032.10
 1214.90        2970.00           1489       20409.00     89180.31
 1214.94        2970.25           1492       19000.00     83006.36
 1214.97        2970.50           1496       17009.00     74286.13
 1215.00        2970.75           1499       15657.00     68367.20
 1215.03        2971.00           1502       14099.00     61549.03
 1215.06        2971.25           1506       12093.00     52774.42
 1215.09        2971.50           1509       10653.00     46478.45
 1215.12        2971.75           1513        8758.00     38196.75
 1215.15        2972.00           1516        7399.00     32260.06
 1215.18        2972.25           1519        5911.00     25762.28
 1215.21        2972.50           1523        4104.00     17874.89
 1215.24        2972.75           1526        2636.00     11469.95
 1215.28        2973.00           1529        1276.00      5538.41
 1215.31        2973.25           1533         447.00      1923.83
 1215.34        2973.50           1536         306.00      1309.12
 1215.37        2973.75           1539         255.00      1086.78
 1215.40        2974.00           1543         214.00       908.05
 1215.43        2974.25           1546         158.00       663.92
 1215.46        2974.50           1549         114.00       472.11
 1215.49        2974.75           1553          75.00       302.10
 1215.52        2975.00           1556          70.00       280.30
 1215.55        2975.25           1559          58.00       227.99
 1215.58        2975.50           1563          63.00       249.78
 1215.61        2975.75           1566          60.00       236.71
 1215.64        2976.00           1569          64.00       254.14
 1215.68        2976.25           1573          58.00       227.99
 1215.71        2976.50           1576          68.00       271.58
 1215.74        2976.75           1579          56.00       219.27
 1215.77        2977.00           1583          57.00       223.63
 1215.80        2977.25           1586          54.00       210.55
 1215.83        2977.50           1590          58.00       227.99
 1215.86        2977.75           1593          46.00       175.68
 1215.89        2978.00           1596          56.00       219.27
 1215.92        2978.25           1600          62.00       245.42
 1215.95        2978.50           1603          48.00       184.40
 1215.98        2978.75           1606          55.00       214.91
 1216.01        2979.00           1610          51.00       197.47
 1216.04        2979.25           1613          49.00       188.75
 1216.07        2979.50           1616          54.00       210.55
 1216.10        2979.75           1620          52.00       201.83
 1216.13        2980.00           1623          48.00       184.40
 1216.17        2980.25           1626          54.00       210.55
 1216.20        2980.50           1630          46.00       175.68
 1216.23        2980.75           1633          58.00       227.99
 1216.26        2981.00           1637          57.00       223.63
 1216.29        2981.25           1640          61.00       241.07
 1216.32        2981.50           1643          55.00       214.91
 1216.35        2981.75           1647          53.00       206.19
 1216.38        2982.00           1650          61.00       241.07
 1216.41        2982.25           1653          47.00       180.04
 1216.44        2982.50           1657          57.00       223.63
 1216.47        2982.75           1660          55.00       214.91
 1216.50        2983.00           1663          58.00       227.99
 1216.53        2983.25           1667          59.00       232.35
 1216.56        2983.50           1670          49.00       188.75
 1216.60        2983.75           1673          50.00       193.11
 1216.63        2984.00           1677          57.00       223.63
HS scan finished at 20:16:50
end
