************************************************************
  HS Scan of (1) Internal mercury lamp
************************************************************
Integration time is 0.2294 seconds per sample
dh120417Manchester 53.47 2.23 2.804185pr1000
************************************************************
Dead Time -------------------------  3E-08 
Number of Cycles Used -------------  4 
Starting Wavelength (Angstroms) ---  2950 
Final Wavelength (Angstoms) -------  2984 
Wavelength Increment (Angstroms) --  .25 
Filter Wheel #1 Position ---------- (1) Ground quartz diffuser (ND=2.32)
Filter Wheel #2 Position ---------- (1) Neutral Density 0.494



************************************************************
HS scan start time = 02:15:12
Dark Count =  5.2 


Time (GMT)  Wavelength (Ang)  Step Number  Raw Counts  Counts/Second

  135.58        2950.00           1222          55.00       217.09
  135.64        2950.25           1226          50.00       195.29
  135.67        2950.50           1229          50.00       195.29
  135.70        2950.75           1232          51.00       199.65
  135.73        2951.00           1236          53.00       208.37
  135.77        2951.25           1239          44.00       169.14
  135.80        2951.50           1242          41.00       156.06
  135.83        2951.75           1246          48.00       186.57
  135.86        2952.00           1249          53.00       208.37
  135.89        2952.25           1252          44.00       169.14
  135.92        2952.50           1256          45.00       173.50
  135.95        2952.75           1259          53.00       208.37
  135.98        2953.00           1262          55.00       217.09
  136.01        2953.25           1266          49.00       190.93
  136.04        2953.50           1269          49.00       190.93
  136.07        2953.75           1272          53.00       208.37
  136.10        2954.00           1276          51.00       199.65
  136.14        2954.25           1279          43.00       164.78
  136.17        2954.50           1282          44.00       169.14
  136.20        2954.75           1286          45.00       173.50
  136.23        2955.00           1289          45.00       173.50
  136.26        2955.25           1292          51.00       199.65
  136.29        2955.50           1296          44.00       169.14
  136.32        2955.75           1299          44.00       169.14
  136.35        2956.00           1302          42.00       160.42
  136.38        2956.25           1306          47.00       182.22
  136.42        2956.50           1309          38.00       142.98
  136.45        2956.75           1312          44.00       169.14
  136.48        2957.00           1316          50.00       195.29
  136.51        2957.25           1319          54.00       212.73
  136.54        2957.50           1322          52.00       204.01
  136.57        2957.75           1326          44.00       169.14
  136.60        2958.00           1329          51.00       199.65
  136.63        2958.25           1332          37.00       138.62
  136.66        2958.50           1336          45.00       173.50
  136.69        2958.75           1339          48.00       186.57
  136.73        2959.00           1342          49.00       190.93
  136.76        2959.25           1346          54.00       212.73
  136.79        2959.50           1349          54.00       212.73
  136.82        2959.75           1352          65.00       260.68
  136.85        2960.00           1356          96.00       395.82
  136.88        2960.25           1359         130.00       544.04
  136.91        2960.50           1362         175.00       740.21
  136.94        2960.75           1366         249.00      1062.81
  136.97        2961.00           1369         275.00      1176.15
  137.00        2961.25           1372         337.00      1446.44
  137.03        2961.50           1376         415.00      1786.50
  137.06        2961.75           1379         570.00      2462.26
  137.09        2962.00           1382        1212.00      5261.51
  137.13        2962.25           1386        2995.00     13038.23
  137.16        2962.50           1389        4569.00     19906.39
  137.19        2962.75           1392        6076.00     26484.85
  137.22        2963.00           1396        8220.00     35848.47
  137.25        2963.25           1399        9859.00     43010.13
  137.28        2963.50           1402       11830.00     51626.54
  137.31        2963.75           1406       14179.00     61901.24
  137.34        2964.00           1409       15861.00     69262.35
  137.37        2964.25           1412       17602.00     76885.07
  137.40        2964.50           1416       19937.00     87114.04
  137.44        2964.75           1419       21666.00     94692.34
  137.47        2965.00           1422       23340.00    102032.90
  137.50        2965.25           1426       25536.00    111667.30
  137.53        2965.50           1429       27152.00    118760.60
  137.56        2965.75           1432       28797.00    125984.40
  137.59        2966.00           1436       30972.00    135540.40
  137.62        2966.25           1439       32613.00    142753.90
  137.65        2966.50           1442       34205.00    149755.00
  137.68        2966.75           1446       35743.00    156521.40
  137.72        2967.00           1449       36218.00    158611.70
  137.75        2967.25           1452       36405.00    159434.70
  137.78        2967.50           1456       36262.00    158805.40
  137.81        2967.75           1459       36168.00    158391.70
  137.84        2968.00           1462       36160.00    158356.50
  137.87        2968.25           1466       35205.00    154154.20
  137.90        2968.50           1469       33766.00    147824.10
  137.93        2968.75           1472       32303.00    141391.00
  137.96        2969.00           1476       30167.00    132003.00
  137.99        2969.25           1479       28428.00    124363.80
  138.03        2969.50           1482       26639.00    116508.50
  138.06        2969.75           1486       24734.00    108148.10
  138.09        2970.00           1489       22854.00     99901.41
  138.12        2970.25           1492       21057.00     92022.66
  138.15        2970.50           1496       19059.00     83267.03
  138.18        2970.75           1499       17513.00     76495.31
  138.21        2971.00           1502       15685.00     68491.94
  138.24        2971.25           1506       13415.00     58558.76
  138.27        2971.50           1509       11833.00     51639.67
  138.31        2971.75           1513        9792.00     42717.31
  138.34        2972.00           1516        8149.00     35538.31
  138.37        2972.25           1519        6389.00     27851.51
  138.40        2972.50           1523        4198.00     18287.27
  138.43        2972.75           1526        2653.00     11546.28
  138.46        2973.00           1529        1315.00      5710.66
  138.49        2973.25           1533         490.00      2113.47
  138.52        2973.50           1536         346.00      1485.68
  138.55        2973.75           1539         297.00      1272.06
  138.58        2974.00           1543         242.00      1032.29
  138.62        2974.25           1546         166.00       700.97
  138.65        2974.50           1549         129.00       539.68
  138.68        2974.75           1553          89.00       365.30
  138.71        2975.00           1556          61.00       243.25
  138.74        2975.25           1559          58.00       230.17
  138.77        2975.50           1563          46.00       177.86
  138.80        2975.75           1566          57.00       225.81
  138.83        2976.00           1569          48.00       186.57
  138.86        2976.25           1573          46.00       177.86
  138.89        2976.50           1576          50.00       195.29
  138.92        2976.75           1579          54.00       212.73
  138.96        2977.00           1583          46.00       177.86
  138.99        2977.25           1586          47.00       182.22
  139.02        2977.50           1590          48.00       186.57
  139.05        2977.75           1593          50.00       195.29
  139.08        2978.00           1596          48.00       186.57
  139.11        2978.25           1600          55.00       217.09
  139.14        2978.50           1603          45.00       173.50
  139.17        2978.75           1606          48.00       186.57
  139.20        2979.00           1610          44.00       169.14
  139.23        2979.25           1613          51.00       199.65
  139.26        2979.50           1616          41.00       156.06
  139.30        2979.75           1620          48.00       186.57
  139.33        2980.00           1623          44.00       169.14
  139.36        2980.25           1626          44.00       169.14
  139.39        2980.50           1630          51.00       199.65
  139.42        2980.75           1633          49.00       190.93
  139.45        2981.00           1637          46.00       177.86
  139.48        2981.25           1640          45.00       173.50
  139.51        2981.50           1643          54.00       212.73
  139.54        2981.75           1647          48.00       186.57
  139.57        2982.00           1650          46.00       177.86
  139.61        2982.25           1653          44.00       169.14
  139.64        2982.50           1657          49.00       190.93
  139.67        2982.75           1660          56.00       221.45
  139.70        2983.00           1663          40.00       151.70
  139.73        2983.25           1667          44.00       169.14
  139.76        2983.50           1670          44.00       169.14
  139.79        2983.75           1673          50.00       195.29
  139.82        2984.00           1677          37.00       138.62
HS scan finished at 02:20:02
end
************************************************************
  HS Scan of (1) Internal mercury lamp
************************************************************
Integration time is 0.2294 seconds per sample
dh120417Manchester 53.47 2.23 2.804185pr1000
************************************************************
Dead Time -------------------------  3E-08 
Number of Cycles Used -------------  4 
Starting Wavelength (Angstroms) ---  2950 
Final Wavelength (Angstoms) -------  2984 
Wavelength Increment (Angstroms) --  .25 
Filter Wheel #1 Position ---------- (1) Ground quartz diffuser (ND=2.32)
Filter Wheel #2 Position ---------- (1) Neutral Density 0.494



************************************************************
HS scan start time = 20:12:02
Dark Count =  5.8 


Time (GMT)  Wavelength (Ang)  Step Number  Raw Counts  Counts/Second

 1212.40        2950.00           1222          46.00       175.24
 1212.47        2950.25           1226          46.00       175.24
 1212.50        2950.50           1229          47.00       179.60
 1212.53        2950.75           1232          46.00       175.24
 1212.56        2951.00           1236          40.00       149.09
 1212.60        2951.25           1239          44.00       166.52
 1212.63        2951.50           1242          48.00       183.96
 1212.66        2951.75           1246          46.00       175.24
 1212.69        2952.00           1249          44.00       166.52
 1212.72        2952.25           1252          46.00       175.24
 1212.75        2952.50           1256          43.00       162.16
 1212.78        2952.75           1259          44.00       166.52
 1212.81        2953.00           1262          39.00       144.73
 1212.84        2953.25           1266          42.00       157.80
 1212.87        2953.50           1269          51.00       197.04
 1212.91        2953.75           1272          49.00       188.32
 1212.94        2954.00           1276          47.00       179.60
 1212.97        2954.25           1279          53.00       205.76
 1213.00        2954.50           1282          51.00       197.04
 1213.03        2954.75           1286          45.00       170.88
 1213.06        2955.00           1289          47.00       179.60
 1213.09        2955.25           1292          48.00       183.96
 1213.12        2955.50           1296          47.00       179.60
 1213.15        2955.75           1299          51.00       197.04
 1213.18        2956.00           1302          46.00       175.24
 1213.21        2956.25           1306          42.00       157.80
 1213.25        2956.50           1309          49.00       188.32
 1213.28        2956.75           1312          43.00       162.16
 1213.31        2957.00           1316          50.00       192.68
 1213.34        2957.25           1319          42.00       157.80
 1213.37        2957.50           1322          49.00       188.32
 1213.40        2957.75           1326          48.00       183.96
 1213.43        2958.00           1329          51.00       197.04
 1213.46        2958.25           1332          48.00       183.96
 1213.49        2958.50           1336          52.00       201.40
 1213.52        2958.75           1339          49.00       188.32
 1213.55        2959.00           1342          47.00       179.60
 1213.59        2959.25           1346          53.00       205.76
 1213.62        2959.50           1349          52.00       201.40
 1213.65        2959.75           1352          67.00       266.79
 1213.68        2960.00           1356         103.00       423.72
 1213.71        2960.25           1359         130.00       541.42
 1213.74        2960.50           1362         179.00       755.03
 1213.77        2960.75           1366         220.00       933.77
 1213.80        2961.00           1369         284.00      1212.77
 1213.83        2961.25           1372         340.00      1456.91
 1213.86        2961.50           1376         408.00      1753.36
 1213.90        2961.75           1379         630.00      2721.23
 1213.93        2962.00           1382        1355.00      5882.47
 1213.96        2962.25           1386        3289.00     14318.27
 1213.99        2962.50           1389        4778.00     20815.96
 1214.02        2962.75           1392        6345.00     27656.77
 1214.05        2963.00           1396        8431.00     36767.65
 1214.08        2963.25           1399        9939.00     43357.14
 1214.11        2963.50           1402       11561.00     50447.70
 1214.14        2963.75           1406       13925.00     60787.31
 1214.17        2964.00           1409       15533.00     67824.00
 1214.20        2964.25           1412       17301.00     75564.30
 1214.23        2964.50           1416       19621.00     85726.74
 1214.27        2964.75           1419       21211.00     92695.08
 1214.30        2965.00           1422       22855.00     99903.16
 1214.33        2965.25           1426       25211.00    110238.40
 1214.36        2965.50           1429       27294.00    119381.50
 1214.39        2965.75           1432       28947.00    126640.70
 1214.42        2966.00           1436       31046.00    135863.00
 1214.45        2966.25           1439       32485.00    142188.50
 1214.48        2966.50           1442       34046.00    149053.00
 1214.51        2966.75           1446       35486.00    155387.90
 1214.54        2967.00           1449       35862.00    157042.40
 1214.58        2967.25           1452       35908.00    157244.80
 1214.61        2967.50           1456       35967.00    157504.50
 1214.64        2967.75           1459       35749.00    156545.20
 1214.67        2968.00           1462       35598.00    155880.70
 1214.70        2968.25           1466       34481.00    150966.40
 1214.73        2968.50           1469       32955.00    144255.00
 1214.76        2968.75           1472       31398.00    137410.10
 1214.79        2969.00           1476       29509.00    129109.40
 1214.82        2969.25           1479       27826.00    121717.40
 1214.85        2969.50           1482       26222.00    114675.40
 1214.88        2969.75           1486       24118.00    105442.90
 1214.92        2970.00           1489       22600.00     98784.91
 1214.95        2970.25           1492       21004.00     91787.71
 1214.98        2970.50           1496       18667.00     81547.11
 1215.01        2970.75           1499       17083.00     74609.71
 1215.04        2971.00           1502       15497.00     67666.43
 1215.07        2971.25           1506       13125.00     57287.57
 1215.10        2971.50           1509       11330.00     49437.70
 1215.13        2971.75           1513        9271.00     40437.87
 1215.16        2972.00           1516        7665.00     33421.46
 1215.19        2972.25           1519        6038.00     26316.32
 1215.23        2972.50           1523        3874.00     16870.79
 1215.26        2972.75           1526        2336.00     10160.90
 1215.29        2973.00           1529        1150.00      4988.54
 1215.32        2973.25           1533         469.00      2019.30
 1215.35        2973.50           1536         336.00      1439.47
 1215.38        2973.75           1539         282.00      1204.05
 1215.41        2974.00           1543         235.00       999.16
 1215.44        2974.25           1546         178.00       750.67
 1215.47        2974.50           1549         127.00       528.34
 1215.50        2974.75           1553          93.00       380.13
 1215.53        2975.00           1556          62.00       244.99
 1215.56        2975.25           1559          51.00       197.04
 1215.59        2975.50           1563          51.00       197.04
 1215.63        2975.75           1566          53.00       205.76
 1215.66        2976.00           1569          50.00       192.68
 1215.69        2976.25           1573          48.00       183.96
 1215.72        2976.50           1576          43.00       162.16
 1215.75        2976.75           1579          44.00       166.52
 1215.78        2977.00           1583          41.00       153.44
 1215.81        2977.25           1586          50.00       192.68
 1215.84        2977.50           1590          55.00       214.47
 1215.87        2977.75           1593          49.00       188.32
 1215.91        2978.00           1596          46.00       175.24
 1215.94        2978.25           1600          53.00       205.76
 1215.97        2978.50           1603          45.00       170.88
 1216.00        2978.75           1606          48.00       183.96
 1216.03        2979.00           1610          53.00       205.76
 1216.06        2979.25           1613          44.00       166.52
 1216.09        2979.50           1616          43.00       162.16
 1216.12        2979.75           1620          43.00       162.16
 1216.15        2980.00           1623          45.00       170.88
 1216.18        2980.25           1626          41.00       153.44
 1216.21        2980.50           1630          46.00       175.24
 1216.24        2980.75           1633          46.00       175.24
 1216.28        2981.00           1637          41.00       153.44
 1216.31        2981.25           1640          45.00       170.88
 1216.34        2981.50           1643          45.00       170.88
 1216.37        2981.75           1647          44.00       166.52
 1216.40        2982.00           1650          48.00       183.96
 1216.43        2982.25           1653          37.00       136.01
 1216.46        2982.50           1657          45.00       170.88
 1216.49        2982.75           1660          55.00       214.47
 1216.52        2983.00           1663          44.00       166.52
 1216.56        2983.25           1667          49.00       188.32
 1216.59        2983.50           1670          48.00       183.96
 1216.62        2983.75           1673          43.00       162.16
 1216.65        2984.00           1677          44.00       166.52
HS scan finished at 20:16:52
end
