************************************************************
  HS Scan of (1) Internal mercury lamp
************************************************************
Integration time is 0.2294 seconds per sample
dh160419Manchester 53.47 2.23 2.804185pr1000
************************************************************
Dead Time -------------------------  3E-08 
Number of Cycles Used -------------  4 
Starting Wavelength (Angstroms) ---  2950 
Final Wavelength (Angstoms) -------  2984 
Wavelength Increment (Angstroms) --  .25 
Filter Wheel #1 Position ---------- (1) Ground quartz diffuser (ND=2.32)
Filter Wheel #2 Position ---------- (1) Neutral Density 0.494



************************************************************
HS scan start time = 01:37:16
Dark Count =  6.5 


Time (GMT)  Wavelength (Ang)  Step Number  Raw Counts  Counts/Second

   97.64        2950.00           1222          61.00       237.58
   97.70        2950.25           1226          57.00       220.14
   97.73        2950.50           1229          62.00       241.94
   97.76        2950.75           1232          59.00       228.86
   97.80        2951.00           1236          58.00       224.50
   97.83        2951.25           1239          56.00       215.78
   97.86        2951.50           1242          49.00       185.27
   97.89        2951.75           1246          49.00       185.27
   97.92        2952.00           1249          48.00       180.91
   97.95        2952.25           1252          55.00       211.42
   97.98        2952.50           1256          57.00       220.14
   98.01        2952.75           1259          58.00       224.50
   98.04        2953.00           1262          65.00       255.02
   98.07        2953.25           1266          60.00       233.22
   98.10        2953.50           1269          53.00       202.70
   98.14        2953.75           1272          47.00       176.55
   98.17        2954.00           1276          56.00       215.78
   98.20        2954.25           1279          58.00       224.50
   98.23        2954.50           1282          55.00       211.42
   98.26        2954.75           1286          51.00       193.99
   98.29        2955.00           1289          51.00       193.99
   98.32        2955.25           1292          55.00       211.42
   98.35        2955.50           1296          57.00       220.14
   98.38        2955.75           1299          56.00       215.78
   98.41        2956.00           1302          54.00       207.06
   98.44        2956.25           1306          62.00       241.94
   98.47        2956.50           1309          57.00       220.14
   98.51        2956.75           1312          52.00       198.34
   98.54        2957.00           1316          53.00       202.70
   98.57        2957.25           1319          62.00       241.94
   98.60        2957.50           1322          51.00       193.99
   98.63        2957.75           1326          54.00       207.06
   98.66        2958.00           1329          52.00       198.34
   98.69        2958.25           1332          53.00       202.70
   98.72        2958.50           1336          62.00       241.94
   98.75        2958.75           1339          54.00       207.06
   98.78        2959.00           1342          68.00       268.09
   98.82        2959.25           1346          54.00       207.06
   98.85        2959.50           1349          54.00       207.06
   98.88        2959.75           1352          62.00       241.94
   98.91        2960.00           1356          83.00       333.48
   98.94        2960.25           1359         105.00       429.39
   98.97        2960.50           1362         138.00       573.24
   99.00        2960.75           1366         166.00       695.31
   99.03        2961.00           1369         193.00       813.01
   99.06        2961.25           1372         233.00       987.39
   99.09        2961.50           1376         285.00      1214.08
   99.12        2961.75           1379         379.00      1623.88
   99.16        2962.00           1382         746.00      3223.94
   99.19        2962.25           1386        1967.00      8548.40
   99.22        2962.50           1389        3105.00     13512.45
   99.25        2962.75           1392        4241.00     18469.25
   99.28        2963.00           1396        5925.00     25819.91
   99.31        2963.25           1399        7260.00     31649.48
   99.34        2963.50           1402        8479.00     36974.29
   99.37        2963.75           1406       10141.00     44236.96
   99.40        2964.00           1409       11347.00     49508.97
   99.43        2964.25           1412       12703.00     55438.69
   99.47        2964.50           1416       14443.00     63050.71
   99.50        2964.75           1419       15649.00     68328.68
   99.53        2965.00           1422       16800.00     73367.50
   99.56        2965.25           1426       18434.00     80523.41
   99.59        2965.50           1429       19766.00     86359.02
   99.62        2965.75           1432       21181.00     92560.50
   99.65        2966.00           1436       22857.00     99908.86
   99.68        2966.25           1439       23985.00    104856.40
   99.71        2966.50           1442       25091.00    109708.80
   99.75        2966.75           1446       26298.00    115006.00
   99.78        2967.00           1449       26686.00    116709.10
   99.81        2967.25           1452       26633.00    116476.50
   99.84        2967.50           1456       26767.00    117064.70
   99.87        2967.75           1459       26739.00    116941.80
   99.90        2968.00           1462       26578.00    116235.10
   99.93        2968.25           1466       25955.00    113500.50
   99.96        2968.50           1469       24816.00    108502.10
   99.99        2968.75           1472       23686.00    103544.80
  100.03        2969.00           1476       21950.00     95931.76
  100.06        2969.25           1479       20787.00     90833.49
  100.09        2969.50           1482       19651.00     85855.11
  100.12        2969.75           1486       17911.00     78232.66
  100.15        2970.00           1489       16560.00     72316.71
  100.18        2970.25           1492       15591.00     68074.81
  100.21        2970.50           1496       13940.00     60849.87
  100.24        2970.75           1499       12705.00     55447.43
  100.27        2971.00           1502       11523.00     50278.49
  100.30        2971.25           1506        9807.00     42777.18
  100.34        2971.50           1509        8566.00     37354.39
  100.37        2971.75           1513        6957.00     30326.18
  100.40        2972.00           1516        5688.00     24785.21
  100.43        2972.25           1519        4489.00     19551.57
  100.46        2972.50           1523        2880.00     12530.87
  100.49        2972.75           1526        1731.00      7519.13
  100.52        2973.00           1529         863.00      3734.07
  100.55        2973.25           1533         374.00      1602.08
  100.58        2973.50           1536         290.00      1235.88
  100.61        2973.75           1539         248.00      1052.78
  100.65        2974.00           1543         210.00       887.12
  100.68        2974.25           1546         164.00       686.59
  100.71        2974.50           1549         143.00       595.04
  100.74        2974.75           1553          92.00       372.72
  100.77        2975.00           1556          80.00       320.40
  100.80        2975.25           1559          63.00       246.30
  100.83        2975.50           1563          54.00       207.06
  100.86        2975.75           1566          59.00       228.86
  100.89        2976.00           1569          50.00       189.63
  100.92        2976.25           1573          51.00       193.99
  100.96        2976.50           1576          53.00       202.70
  100.99        2976.75           1579          49.00       185.27
  101.02        2977.00           1583          53.00       202.70
  101.05        2977.25           1586          52.00       198.34
  101.08        2977.50           1590          53.00       202.70
  101.11        2977.75           1593          50.00       189.63
  101.14        2978.00           1596          50.00       189.63
  101.17        2978.25           1600          45.00       167.83
  101.20        2978.50           1603          49.00       185.27
  101.23        2978.75           1606          56.00       215.78
  101.27        2979.00           1610          55.00       211.42
  101.30        2979.25           1613          53.00       202.70
  101.33        2979.50           1616          48.00       180.91
  101.36        2979.75           1620          46.00       172.19
  101.39        2980.00           1623          46.00       172.19
  101.42        2980.25           1626          44.00       163.47
  101.45        2980.50           1630          51.00       193.99
  101.48        2980.75           1633          46.00       172.19
  101.51        2981.00           1637          52.00       198.34
  101.54        2981.25           1640          44.00       163.47
  101.57        2981.50           1643          58.00       224.50
  101.60        2981.75           1647          50.00       189.63
  101.64        2982.00           1650          53.00       202.70
  101.67        2982.25           1653          41.00       150.39
  101.70        2982.50           1657          50.00       189.63
  101.73        2982.75           1660          53.00       202.70
  101.76        2983.00           1663          48.00       180.91
  101.79        2983.25           1667          50.00       189.63
  101.82        2983.50           1670          52.00       198.34
  101.85        2983.75           1673          52.00       198.34
  101.88        2984.00           1677          45.00       167.83
HS scan finished at 01:42:06
end
************************************************************
  HS Scan of (1) Internal mercury lamp
************************************************************
Integration time is 0.2294 seconds per sample
dh160419Manchester 53.47 2.23 2.804185pr1000
************************************************************
Dead Time -------------------------  3E-08 
Number of Cycles Used -------------  4 
Starting Wavelength (Angstroms) ---  2950 
Final Wavelength (Angstoms) -------  2984 
Wavelength Increment (Angstroms) --  .25 
Filter Wheel #1 Position ---------- (1) Ground quartz diffuser (ND=2.32)
Filter Wheel #2 Position ---------- (1) Neutral Density 0.494



************************************************************
HS scan start time = 20:12:07
Dark Count =  6.9 


Time (GMT)  Wavelength (Ang)  Step Number  Raw Counts  Counts/Second

 1212.48        2950.00           1222          51.00       192.24
 1212.55        2950.25           1226          55.00       209.68
 1212.58        2950.50           1229          55.00       209.68
 1212.61        2950.75           1232          56.00       214.04
 1212.64        2951.00           1236          55.00       209.68
 1212.67        2951.25           1239          64.00       248.91
 1212.70        2951.50           1242          53.00       200.96
 1212.74        2951.75           1246          53.00       200.96
 1212.77        2952.00           1249          54.00       205.32
 1212.80        2952.25           1252          47.00       174.80
 1212.83        2952.50           1256          52.00       196.60
 1212.86        2952.75           1259          53.00       200.96
 1212.89        2953.00           1262          53.00       200.96
 1212.92        2953.25           1266          50.00       187.88
 1212.95        2953.50           1269          59.00       227.12
 1212.98        2953.75           1272          54.00       205.32
 1213.01        2954.00           1276          56.00       214.04
 1213.05        2954.25           1279          56.00       214.04
 1213.08        2954.50           1282          56.00       214.04
 1213.11        2954.75           1286          72.00       283.79
 1213.14        2955.00           1289          60.00       231.48
 1213.17        2955.25           1292          58.00       222.76
 1213.20        2955.50           1296          59.00       227.12
 1213.23        2955.75           1299          59.00       227.12
 1213.26        2956.00           1302          51.00       192.24
 1213.29        2956.25           1306          56.00       214.04
 1213.33        2956.50           1309          52.00       196.60
 1213.36        2956.75           1312          56.00       214.04
 1213.39        2957.00           1316          57.00       218.40
 1213.42        2957.25           1319          61.00       235.83
 1213.45        2957.50           1322          59.00       227.12
 1213.48        2957.75           1326          60.00       231.48
 1213.51        2958.00           1329          57.00       218.40
 1213.54        2958.25           1332          52.00       196.60
 1213.57        2958.50           1336          53.00       200.96
 1213.60        2958.75           1339          58.00       222.76
 1213.63        2959.00           1342          55.00       209.68
 1213.67        2959.25           1346          56.00       214.04
 1213.70        2959.50           1349          58.00       222.76
 1213.73        2959.75           1352          66.00       257.63
 1213.76        2960.00           1356          91.00       366.61
 1213.79        2960.25           1359         108.00       440.72
 1213.82        2960.50           1362         139.00       575.86
 1213.85        2960.75           1366         183.00       767.67
 1213.88        2961.00           1369         201.00       846.14
 1213.91        2961.25           1372         249.00      1055.40
 1213.94        2961.50           1376         319.00      1360.56
 1213.97        2961.75           1379         539.00      2319.69
 1214.00        2962.00           1382        1264.00      5480.85
 1214.03        2962.25           1386        2653.00     11538.87
 1214.07        2962.50           1389        3882.00     16900.90
 1214.10        2962.75           1392        5132.00     22356.32
 1214.13        2963.00           1396        6736.00     29359.33
 1214.16        2963.25           1399        7844.00     34198.54
 1214.19        2963.50           1402        9266.00     40411.21
 1214.22        2963.75           1406       10844.00     47308.16
 1214.25        2964.00           1409       12080.00     52712.33
 1214.28        2964.25           1412       13343.00     58236.35
 1214.31        2964.50           1416       14948.00     65258.85
 1214.34        2964.75           1419       16227.00     70857.09
 1214.37        2965.00           1422       17481.00     76347.74
 1214.41        2965.25           1426       19272.00     84192.78
 1214.44        2965.50           1429       20496.00     89556.33
 1214.47        2965.75           1432       21622.00     94491.98
 1214.50        2966.00           1436       23329.00    101977.20
 1214.53        2966.25           1439       24503.00    107127.10
 1214.56        2966.50           1442       25507.00    111532.60
 1214.59        2966.75           1446       26539.00    116062.10
 1214.62        2967.00           1449       26867.00    117502.00
 1214.65        2967.25           1452       26816.00    117278.10
 1214.69        2967.50           1456       26775.00    117098.10
 1214.72        2967.75           1459       26824.00    117313.20
 1214.75        2968.00           1462       26639.00    116501.10
 1214.78        2968.25           1466       25644.00    112133.80
 1214.81        2968.50           1469       24496.00    107096.40
 1214.84        2968.75           1472       23421.00    102380.70
 1214.87        2969.00           1476       21820.00     95360.03
 1214.90        2969.25           1479       20550.00     89793.00
 1214.93        2969.50           1482       19370.00     84622.14
 1214.97        2969.75           1486       17878.00     78086.38
 1215.00        2970.00           1489       16670.00     72796.56
 1215.03        2970.25           1492       15468.00     67534.68
 1215.06        2970.50           1496       13717.00     59872.49
 1215.09        2970.75           1499       12399.00     54107.38
 1215.12        2971.00           1502       11139.00     48597.83
 1215.15        2971.25           1506        9548.00     41643.53
 1215.18        2971.50           1509        8222.00     35849.78
 1215.21        2971.75           1513        6601.00     28769.81
 1215.25        2972.00           1516        5453.00     23757.56
 1215.28        2972.25           1519        4137.00     18013.66
 1215.31        2972.50           1523        2536.00     11028.50
 1215.34        2972.75           1526        1395.00      6052.10
 1215.37        2973.00           1529         637.00      2746.96
 1215.40        2973.25           1533         329.00      1404.16
 1215.43        2973.50           1536         263.00      1116.43
 1215.46        2973.75           1539         220.00       928.97
 1215.49        2974.00           1543         192.00       806.91
 1215.52        2974.25           1546         136.00       562.78
 1215.55        2974.50           1549         110.00       449.44
 1215.59        2974.75           1553          86.00       344.82
 1215.62        2975.00           1556          70.00       275.07
 1215.65        2975.25           1559          56.00       214.04
 1215.68        2975.50           1563          51.00       192.24
 1215.71        2975.75           1566          52.00       196.60
 1215.74        2976.00           1569          54.00       205.32
 1215.77        2976.25           1573          52.00       196.60
 1215.80        2976.50           1576          54.00       205.32
 1215.83        2976.75           1579          57.00       218.40
 1215.86        2977.00           1583          51.00       192.24
 1215.89        2977.25           1586          57.00       218.40
 1215.92        2977.50           1590          50.00       187.88
 1215.96        2977.75           1593          54.00       205.32
 1215.99        2978.00           1596          58.00       222.76
 1216.02        2978.25           1600          51.00       192.24
 1216.05        2978.50           1603          51.00       192.24
 1216.08        2978.75           1606          51.00       192.24
 1216.11        2979.00           1610          42.00       153.01
 1216.14        2979.25           1613          48.00       179.16
 1216.17        2979.50           1616          53.00       200.96
 1216.20        2979.75           1620          55.00       209.68
 1216.24        2980.00           1623          56.00       214.04
 1216.28        2980.25           1626          52.00       196.60
 1216.32        2980.50           1630          53.00       200.96
 1216.35        2980.75           1633          55.00       209.68
 1216.38        2981.00           1637          54.00       205.32
 1216.41        2981.25           1640          54.00       205.32
 1216.44        2981.50           1643          47.00       174.80
 1216.47        2981.75           1647          49.00       183.52
 1216.50        2982.00           1650          64.00       248.91
 1216.53        2982.25           1653          49.00       183.52
 1216.56        2982.50           1657          55.00       209.68
 1216.59        2982.75           1660          50.00       187.88
 1216.62        2983.00           1663          48.00       179.16
 1216.65        2983.25           1667          51.00       192.24
 1216.68        2983.50           1670          46.00       170.45
 1216.71        2983.75           1673          49.00       183.52
 1216.75        2984.00           1677          51.00       192.24
HS scan finished at 20:16:58
end
