************************************************************
  HS Scan of (1) Internal mercury lamp
************************************************************
Integration time is 0.2294 seconds per sample
dh120418Manchester 53.47 2.23 2.804185pr1000
************************************************************
Dead Time -------------------------  3E-08 
Number of Cycles Used -------------  4 
Starting Wavelength (Angstroms) ---  2950 
Final Wavelength (Angstoms) -------  2984 
Wavelength Increment (Angstroms) --  .25 
Filter Wheel #1 Position ---------- (1) Ground quartz diffuser (ND=2.32)
Filter Wheel #2 Position ---------- (1) Neutral Density 0.494



************************************************************
HS scan start time = 02:15:17
Dark Count =  6.5 


Time (GMT)  Wavelength (Ang)  Step Number  Raw Counts  Counts/Second

  135.65        2950.00           1222          66.00       259.37
  135.71        2950.25           1226          61.00       237.58
  135.74        2950.50           1229          63.00       246.30
  135.77        2950.75           1232          58.00       224.50
  135.81        2951.00           1236          59.00       228.86
  135.84        2951.25           1239          50.00       189.63
  135.87        2951.50           1242          61.00       237.58
  135.90        2951.75           1246          60.00       233.22
  135.93        2952.00           1249          62.00       241.94
  135.96        2952.25           1252          58.00       224.50
  135.99        2952.50           1256          62.00       241.94
  136.02        2952.75           1259          58.00       224.50
  136.05        2953.00           1262          55.00       211.42
  136.08        2953.25           1266          60.00       233.22
  136.11        2953.50           1269          62.00       241.94
  136.14        2953.75           1272          56.00       215.78
  136.17        2954.00           1276          60.00       233.22
  136.20        2954.25           1279          67.00       263.73
  136.23        2954.50           1282          53.00       202.70
  136.27        2954.75           1286          57.00       220.14
  136.30        2955.00           1289          55.00       211.42
  136.33        2955.25           1292          56.00       215.78
  136.36        2955.50           1296          59.00       228.86
  136.39        2955.75           1299          56.00       215.78
  136.42        2956.00           1302          56.00       215.78
  136.45        2956.25           1306          61.00       237.58
  136.48        2956.50           1309          70.00       276.81
  136.51        2956.75           1312          58.00       224.50
  136.55        2957.00           1316          67.00       263.73
  136.58        2957.25           1319          51.00       193.99
  136.61        2957.50           1322          65.00       255.02
  136.64        2957.75           1326          66.00       259.37
  136.67        2958.00           1329          57.00       220.14
  136.70        2958.25           1332          59.00       228.86
  136.73        2958.50           1336          71.00       281.17
  136.76        2958.75           1339          59.00       228.86
  136.79        2959.00           1342          54.00       207.06
  136.82        2959.25           1346          73.00       289.89
  136.85        2959.50           1349          69.00       272.45
  136.88        2959.75           1352          71.00       281.17
  136.91        2960.00           1356          97.00       394.51
  136.94        2960.25           1359         129.00       534.01
  136.98        2960.50           1362         171.00       717.10
  137.01        2960.75           1366         219.00       926.36
  137.04        2961.00           1369         260.00      1105.09
  137.07        2961.25           1372         276.00      1174.85
  137.10        2961.50           1376         370.00      1584.64
  137.13        2961.75           1379         535.00      2304.00
  137.16        2962.00           1382        1223.00      5303.81
  137.19        2962.25           1386        2855.00     12421.81
  137.22        2962.50           1389        4257.00     18539.08
  137.25        2962.75           1392        5792.00     25239.25
  137.29        2963.00           1396        7732.00     33711.06
  137.32        2963.25           1399        9113.00     39744.40
  137.35        2963.50           1402       10573.00     46125.25
  137.38        2963.75           1406       12817.00     55937.30
  137.41        2964.00           1409       14251.00     62210.59
  137.44        2964.25           1412       15778.00     68893.34
  137.47        2964.50           1416       17876.00     78079.36
  137.50        2964.75           1419       19287.00     84260.24
  137.53        2965.00           1422       20814.00     90951.84
  137.56        2965.25           1426       22899.00    100093.10
  137.60        2965.50           1429       24214.00    105861.00
  137.63        2965.75           1432       25557.00    111753.70
  137.66        2966.00           1436       27546.00    120484.90
  137.69        2966.25           1439       29252.00    127977.30
  137.72        2966.50           1442       30422.00    133117.70
  137.75        2966.75           1446       31723.00    138835.60
  137.78        2967.00           1449       32073.00    140374.10
  137.81        2967.25           1452       32121.00    140585.10
  137.84        2967.50           1456       32068.00    140352.10
  137.88        2967.75           1459       32190.00    140888.50
  137.91        2968.00           1462       32005.00    140075.20
  137.94        2968.25           1466       31063.00    135934.70
  137.97        2968.50           1469       29787.00    130327.70
  138.00        2968.75           1472       28174.00    123242.50
  138.03        2969.00           1476       26471.00    115765.40
  138.06        2969.25           1479       24741.00    108173.10
  138.09        2969.50           1482       23325.00    101961.40
  138.12        2969.75           1486       21344.00     93275.03
  138.15        2970.00           1489       19962.00     87217.89
  138.18        2970.25           1492       18449.00     80589.11
  138.21        2970.50           1496       16716.00     72999.71
  138.25        2970.75           1499       15052.00     65715.75
  138.28        2971.00           1502       13632.00     59502.38
  138.31        2971.25           1506       11635.00     50768.20
  138.34        2971.50           1509       10196.00     44477.36
  138.37        2971.75           1513        8224.00     35860.27
  138.40        2972.00           1516        6777.00     29540.12
  138.43        2972.25           1519        5388.00     23475.55
  138.46        2972.50           1523        3368.00     14659.89
  138.49        2972.75           1526        1992.00      8657.44
  138.53        2973.00           1529         942.00      4078.53
  138.56        2973.25           1533         423.00      1815.70
  138.59        2973.50           1536         315.00      1344.87
  138.62        2973.75           1539         267.00      1135.61
  138.65        2974.00           1543         230.00       974.31
  138.68        2974.25           1546         165.00       690.95
  138.71        2974.50           1549         140.00       581.96
  138.74        2974.75           1553          96.00       390.15
  138.77        2975.00           1556          80.00       320.40
  138.80        2975.25           1559          62.00       241.94
  138.83        2975.50           1563          57.00       220.14
  138.86        2975.75           1566          56.00       215.78
  138.89        2976.00           1569          52.00       198.34
  138.92        2976.25           1573          54.00       207.06
  138.95        2976.50           1576          50.00       189.63
  138.98        2976.75           1579          59.00       228.86
  139.02        2977.00           1583          53.00       202.70
  139.05        2977.25           1586          53.00       202.70
  139.08        2977.50           1590          58.00       224.50
  139.11        2977.75           1593          56.00       215.78
  139.14        2978.00           1596          51.00       193.99
  139.17        2978.25           1600          62.00       241.94
  139.20        2978.50           1603          55.00       211.42
  139.23        2978.75           1606          52.00       198.34
  139.26        2979.00           1610          50.00       189.63
  139.29        2979.25           1613          60.00       233.22
  139.32        2979.50           1616          52.00       198.34
  139.35        2979.75           1620          55.00       211.42
  139.38        2980.00           1623          52.00       198.34
  139.41        2980.25           1626          53.00       202.70
  139.44        2980.50           1630          53.00       202.70
  139.48        2980.75           1633          57.00       220.14
  139.51        2981.00           1637          52.00       198.34
  139.54        2981.25           1640          53.00       202.70
  139.57        2981.50           1643          48.00       180.91
  139.60        2981.75           1647          52.00       198.34
  139.63        2982.00           1650          52.00       198.34
  139.66        2982.25           1653          51.00       193.99
  139.69        2982.50           1657          51.00       193.99
  139.72        2982.75           1660          44.00       163.47
  139.75        2983.00           1663          60.00       233.22
  139.78        2983.25           1667          60.00       233.22
  139.81        2983.50           1670          56.00       215.78
  139.84        2983.75           1673          48.00       180.91
  139.88        2984.00           1677          45.00       167.83
HS scan finished at 02:20:06
end
************************************************************
  HS Scan of (1) Internal mercury lamp
************************************************************
Integration time is 0.2294 seconds per sample
dh120418Manchester 53.47 2.23 2.804185pr1000
************************************************************
Dead Time -------------------------  3E-08 
Number of Cycles Used -------------  4 
Starting Wavelength (Angstroms) ---  2950 
Final Wavelength (Angstoms) -------  2984 
Wavelength Increment (Angstroms) --  .25 
Filter Wheel #1 Position ---------- (1) Ground quartz diffuser (ND=2.32)
Filter Wheel #2 Position ---------- (1) Neutral Density 0.494



************************************************************
HS scan start time = 20:12:04
Dark Count =  6.8 


Time (GMT)  Wavelength (Ang)  Step Number  Raw Counts  Counts/Second

 1212.44        2950.00           1222          59.00       227.55
 1212.50        2950.25           1226          58.00       223.19
 1212.54        2950.50           1229          61.00       236.27
 1212.57        2950.75           1232          63.00       244.99
 1212.60        2951.00           1236          59.00       227.55
 1212.63        2951.25           1239          56.00       214.47
 1212.66        2951.50           1242          68.00       266.79
 1212.69        2951.75           1246          55.00       210.11
 1212.72        2952.00           1249          58.00       223.19
 1212.75        2952.25           1252          71.00       279.86
 1212.78        2952.50           1256          62.00       240.63
 1212.81        2952.75           1259          60.00       231.91
 1212.84        2953.00           1262          60.00       231.91
 1212.87        2953.25           1266          55.00       210.11
 1212.91        2953.50           1269          61.00       236.27
 1212.94        2953.75           1272          59.00       227.55
 1212.97        2954.00           1276          60.00       231.91
 1213.00        2954.25           1279          60.00       231.91
 1213.03        2954.50           1282          66.00       258.07
 1213.06        2954.75           1286          57.00       218.83
 1213.09        2955.00           1289          60.00       231.91
 1213.12        2955.25           1292          54.00       205.76
 1213.15        2955.50           1296          56.00       214.47
 1213.18        2955.75           1299          50.00       188.32
 1213.21        2956.00           1302          66.00       258.07
 1213.25        2956.25           1306          59.00       227.55
 1213.28        2956.50           1309          62.00       240.63
 1213.31        2956.75           1312          58.00       223.19
 1213.34        2957.00           1316          51.00       192.68
 1213.37        2957.25           1319          61.00       236.27
 1213.40        2957.50           1322          56.00       214.47
 1213.43        2957.75           1326          63.00       244.99
 1213.46        2958.00           1329          58.00       223.19
 1213.49        2958.25           1332          58.00       223.19
 1213.52        2958.50           1336          57.00       218.83
 1213.55        2958.75           1339          58.00       223.19
 1213.58        2959.00           1342          61.00       236.27
 1213.61        2959.25           1346          68.00       266.79
 1213.64        2959.50           1349          63.00       244.99
 1213.68        2959.75           1352          79.00       314.74
 1213.71        2960.00           1356         108.00       441.16
 1213.74        2960.25           1359         140.00       580.66
 1213.77        2960.50           1362         169.00       707.08
 1213.80        2960.75           1366         218.00       920.69
 1213.83        2961.00           1369         260.00      1103.79
 1213.86        2961.25           1372         285.00      1212.77
 1213.89        2961.50           1376         373.00      1596.41
 1213.92        2961.75           1379         565.00      2433.48
 1213.95        2962.00           1382        1186.00      5141.16
 1213.98        2962.25           1386        2794.00     12154.39
 1214.01        2962.50           1389        4208.00     18323.93
 1214.05        2962.75           1392        5516.00     24033.02
 1214.08        2963.00           1396        7390.00     32215.95
 1214.11        2963.25           1399        8925.00     38921.62
 1214.14        2963.50           1402       10502.00     45813.58
 1214.17        2963.75           1406       12606.00     55013.13
 1214.20        2964.00           1409       14277.00     62323.05
 1214.23        2964.25           1412       15819.00     69071.50
 1214.26        2964.50           1416       17765.00     77591.91
 1214.29        2964.75           1419       19203.00     83890.89
 1214.32        2965.00           1422       20538.00     89740.84
 1214.35        2965.25           1426       22683.00     99144.49
 1214.38        2965.50           1429       24124.00    105464.80
 1214.42        2965.75           1432       25598.00    111932.30
 1214.45        2966.00           1436       27665.00    121006.10
 1214.48        2966.25           1439       29075.00    127198.50
 1214.51        2966.50           1442       30286.00    132518.80
 1214.54        2966.75           1446       31567.00    138148.50
 1214.57        2967.00           1449       31944.00    139805.70
 1214.60        2967.25           1452       32003.00    140065.10
 1214.63        2967.50           1456       32062.00    140324.50
 1214.66        2967.75           1459       31938.00    139779.30
 1214.70        2968.00           1462       31862.00    139445.30
 1214.73        2968.25           1466       31020.00    135744.40
 1214.76        2968.50           1469       29684.00    129873.80
 1214.79        2968.75           1472       28250.00    123575.00
 1214.82        2969.00           1476       26417.00    115527.00
 1214.85        2969.25           1479       24818.00    108509.60
 1214.88        2969.50           1482       23393.00    102258.30
 1214.91        2969.75           1486       21446.00     93720.85
 1214.94        2970.00           1489       19901.00     86949.26
 1214.97        2970.25           1492       18402.00     80381.91
 1215.00        2970.50           1496       16630.00     72621.87
 1215.03        2970.75           1499       15073.00     65806.33
 1215.07        2971.00           1502       13692.00     59763.55
 1215.10        2971.25           1506       11647.00     50819.36
 1215.13        2971.50           1509       10248.00     44703.33
 1215.16        2971.75           1513        8356.00     36435.62
 1215.19        2972.00           1516        6935.00     30228.80
 1215.22        2972.25           1519        5500.00     23963.17
 1215.25        2972.50           1523        3460.00     15059.99
 1215.28        2972.75           1526        2108.00      9162.06
 1215.31        2973.00           1529         881.00      3811.25
 1215.35        2973.25           1533         390.00      1670.53
 1215.38        2973.50           1536         296.00      1260.73
 1215.41        2973.75           1539         241.00      1020.96
 1215.44        2974.00           1543         207.00       872.73
 1215.47        2974.25           1546         160.00       667.84
 1215.50        2974.50           1549         123.00       506.55
 1215.53        2974.75           1553          87.00       349.61
 1215.56        2975.00           1556          75.00       297.30
 1215.59        2975.25           1559          70.00       275.50
 1215.62        2975.50           1563          61.00       236.27
 1215.65        2975.75           1566          57.00       218.83
 1215.68        2976.00           1569          57.00       218.83
 1215.71        2976.25           1573          55.00       210.11
 1215.75        2976.50           1576          72.00       284.22
 1215.78        2976.75           1579          56.00       214.47
 1215.81        2977.00           1583          57.00       218.83
 1215.84        2977.25           1586          59.00       227.55
 1215.87        2977.50           1590          52.00       197.04
 1215.90        2977.75           1593          61.00       236.27
 1215.93        2978.00           1596          57.00       218.83
 1215.96        2978.25           1600          60.00       231.91
 1215.99        2978.50           1603          53.00       201.40
 1216.02        2978.75           1606          55.00       210.11
 1216.05        2979.00           1610          56.00       214.47
 1216.09        2979.25           1613          57.00       218.83
 1216.12        2979.50           1616          56.00       214.47
 1216.15        2979.75           1620          59.00       227.55
 1216.18        2980.00           1623          55.00       210.11
 1216.21        2980.25           1626          61.00       236.27
 1216.24        2980.50           1630          58.00       223.19
 1216.27        2980.75           1633          50.00       188.32
 1216.30        2981.00           1637          53.00       201.40
 1216.33        2981.25           1640          51.00       192.68
 1216.36        2981.50           1643          57.00       218.83
 1216.39        2981.75           1647          53.00       201.40
 1216.43        2982.00           1650          56.00       214.47
 1216.46        2982.25           1653          57.00       218.83
 1216.49        2982.50           1657          48.00       179.60
 1216.52        2982.75           1660          44.00       162.16
 1216.55        2983.00           1663          53.00       201.40
 1216.58        2983.25           1667          52.00       197.04
 1216.61        2983.50           1670          53.00       201.40
 1216.64        2983.75           1673          49.00       183.96
 1216.67        2984.00           1677          53.00       201.40
HS scan finished at 20:16:53
end
