************************************************************
  HS Scan of (1) Internal mercury lamp
************************************************************
Integration time is 0.2294 seconds per sample
dh170419Manchester 53.47 2.23 2.804185pr1000
************************************************************
Dead Time -------------------------  3E-08 
Number of Cycles Used -------------  4 
Starting Wavelength (Angstroms) ---  2950 
Final Wavelength (Angstoms) -------  2984 
Wavelength Increment (Angstroms) --  .25 
Filter Wheel #1 Position ---------- (1) Ground quartz diffuser (ND=2.32)
Filter Wheel #2 Position ---------- (1) Neutral Density 0.494



************************************************************
HS scan start time = 01:37:12
Dark Count =  5.9 


Time (GMT)  Wavelength (Ang)  Step Number  Raw Counts  Counts/Second

   97.58        2950.00           1222          50.00       192.24
   97.64        2950.25           1226          64.00       253.27
   97.67        2950.50           1229          58.00       227.12
   97.71        2950.75           1232          45.00       170.45
   97.74        2951.00           1236          55.00       214.04
   97.77        2951.25           1239          54.00       209.68
   97.80        2951.50           1242          53.00       205.32
   97.83        2951.75           1246          60.00       235.83
   97.86        2952.00           1249          50.00       192.24
   97.89        2952.25           1252          54.00       209.68
   97.92        2952.50           1256          50.00       192.24
   97.95        2952.75           1259          50.00       192.24
   97.98        2953.00           1262          55.00       214.04
   98.02        2953.25           1266          58.00       227.12
   98.05        2953.50           1269          49.00       187.88
   98.08        2953.75           1272          53.00       205.32
   98.11        2954.00           1276          50.00       192.24
   98.14        2954.25           1279          55.00       214.04
   98.17        2954.50           1282          58.00       227.12
   98.20        2954.75           1286          66.00       261.99
   98.23        2955.00           1289          57.00       222.76
   98.26        2955.25           1292          60.00       235.83
   98.29        2955.50           1296          51.00       196.60
   98.33        2955.75           1299          53.00       205.32
   98.36        2956.00           1302          62.00       244.55
   98.39        2956.25           1306          65.00       257.63
   98.42        2956.50           1309          56.00       218.40
   98.45        2956.75           1312          59.00       231.48
   98.48        2957.00           1316          52.00       200.96
   98.51        2957.25           1319          52.00       200.96
   98.54        2957.50           1322          51.00       196.60
   98.57        2957.75           1326          62.00       244.55
   98.60        2958.00           1329          60.00       235.83
   98.64        2958.25           1332          61.00       240.19
   98.67        2958.50           1336          58.00       227.12
   98.70        2958.75           1339          54.00       209.68
   98.73        2959.00           1342          61.00       240.19
   98.76        2959.25           1346          59.00       231.48
   98.79        2959.50           1349          64.00       253.27
   98.82        2959.75           1352          76.00       305.58
   98.85        2960.00           1356          95.00       388.41
   98.88        2960.25           1359         115.00       475.60
   98.91        2960.50           1362         136.00       567.14
   98.95        2960.75           1366         187.00       789.47
   98.98        2961.00           1369         199.00       841.78
   99.01        2961.25           1372         255.00      1085.91
   99.04        2961.50           1376         346.00      1482.63
   99.07        2961.75           1379         687.00      2969.31
   99.10        2962.00           1382        1583.00      6876.31
   99.13        2962.25           1386        3118.00     13571.79
   99.16        2962.50           1389        4363.00     19004.30
   99.19        2962.75           1392        5608.00     24438.58
   99.23        2963.00           1396        7217.00     31464.30
   99.26        2963.25           1399        8427.00     36749.74
   99.29        2963.50           1402        9695.00     42290.32
   99.32        2963.75           1406       11390.00     49699.59
   99.35        2964.00           1409       12595.00     54968.96
   99.38        2964.25           1412       13825.00     60349.35
   99.41        2964.50           1416       15778.00     68895.96
   99.44        2964.75           1419       16880.00     73720.40
   99.48        2965.00           1422       18149.00     79277.70
   99.51        2965.25           1426       19918.00     87027.71
   99.54        2965.50           1429       21006.00     91796.04
   99.57        2965.75           1432       22372.00     97784.69
   99.60        2966.00           1436       23928.00    104608.90
   99.63        2966.25           1439       24971.00    109184.90
   99.66        2966.50           1442       25985.00    113634.80
   99.69        2966.75           1446       26849.00    117427.30
   99.72        2967.00           1449       26968.00    117949.80
   99.75        2967.25           1452       26992.00    118055.10
   99.79        2967.50           1456       26827.00    117330.80
   99.82        2967.75           1459       26931.00    117787.30
   99.85        2968.00           1462       26586.00    116272.80
   99.88        2968.25           1466       25105.00    109772.90
   99.91        2968.50           1469       24202.00    105810.90
   99.94        2968.75           1472       22873.00     99981.66
   99.97        2969.00           1476       21562.00     94233.33
  100.00        2969.25           1479       20231.00     88399.34
  100.03        2969.50           1482       19024.00     83110.63
  100.06        2969.75           1486       17465.00     76282.04
  100.10        2970.00           1489       16082.00     70226.70
  100.13        2970.25           1492       14845.00     64812.47
  100.16        2970.50           1496       13327.00     58170.74
  100.19        2970.75           1499       11946.00     52130.72
  100.22        2971.00           1502       10674.00     46569.38
  100.25        2971.25           1506        8976.00     39148.40
  100.28        2971.50           1509        7730.00     33704.95
  100.31        2971.75           1513        6192.00     26988.28
  100.34        2972.00           1516        4941.00     21526.98
  100.37        2972.25           1519        3726.00     16224.55
  100.40        2972.50           1523        2149.00      9344.82
  100.43        2972.75           1526        1130.00      4900.89
  100.47        2973.00           1529         519.00      2236.85
  100.50        2973.25           1533         319.00      1364.92
  100.53        2973.50           1536         266.00      1133.87
  100.56        2973.75           1539         237.00      1007.44
  100.59        2974.00           1543         177.00       745.88
  100.62        2974.25           1546         140.00       584.58
  100.65        2974.50           1549         121.00       501.75
  100.68        2974.75           1553          78.00       314.30
  100.71        2975.00           1556          65.00       257.63
  100.74        2975.25           1559          56.00       218.40
  100.77        2975.50           1563          53.00       205.32
  100.81        2975.75           1566          51.00       196.60
  100.84        2976.00           1569          49.00       187.88
  100.87        2976.25           1573          51.00       196.60
  100.90        2976.50           1576          51.00       196.60
  100.93        2976.75           1579          59.00       231.48
  100.96        2977.00           1583          53.00       205.32
  100.99        2977.25           1586          54.00       209.68
  101.02        2977.50           1590          55.00       214.04
  101.05        2977.75           1593          47.00       179.16
  101.08        2978.00           1596          54.00       209.68
  101.11        2978.25           1600          56.00       218.40
  101.15        2978.50           1603          54.00       209.68
  101.18        2978.75           1606          46.00       174.80
  101.21        2979.00           1610          49.00       187.88
  101.24        2979.25           1613          50.00       192.24
  101.27        2979.50           1616          45.00       170.45
  101.30        2979.75           1620          51.00       196.60
  101.33        2980.00           1623          59.00       231.48
  101.36        2980.25           1626          51.00       196.60
  101.39        2980.50           1630          52.00       200.96
  101.42        2980.75           1633          51.00       196.60
  101.46        2981.00           1637          46.00       174.80
  101.49        2981.25           1640          48.00       183.52
  101.52        2981.50           1643          60.00       235.83
  101.55        2981.75           1647          55.00       214.04
  101.58        2982.00           1650          51.00       196.60
  101.61        2982.25           1653          43.00       161.73
  101.64        2982.50           1657          52.00       200.96
  101.67        2982.75           1660          47.00       179.16
  101.70        2983.00           1663          49.00       187.88
  101.73        2983.25           1667          50.00       192.24
  101.76        2983.50           1670          44.00       166.09
  101.80        2983.75           1673          47.00       179.16
  101.83        2984.00           1677          58.00       227.12
HS scan finished at 01:42:03
end
************************************************************
  HS Scan of (1) Internal mercury lamp
************************************************************
Integration time is 0.2294 seconds per sample
dh170419Manchester 53.47 2.23 2.804185pr1000
************************************************************
Dead Time -------------------------  3E-08 
Number of Cycles Used -------------  4 
Starting Wavelength (Angstroms) ---  2950 
Final Wavelength (Angstoms) -------  2984 
Wavelength Increment (Angstroms) --  .25 
Filter Wheel #1 Position ---------- (1) Ground quartz diffuser (ND=2.32)
Filter Wheel #2 Position ---------- (1) Neutral Density 0.494



************************************************************
HS scan start time = 20:12:08
Dark Count =  5.4 


Time (GMT)  Wavelength (Ang)  Step Number  Raw Counts  Counts/Second

 1212.50        2950.00           1222          48.00       185.70
 1212.57        2950.25           1226          59.00       233.65
 1212.60        2950.50           1229          59.00       233.65
 1212.63        2950.75           1232          58.00       229.30
 1212.66        2951.00           1236          59.00       233.65
 1212.69        2951.25           1239          56.00       220.58
 1212.72        2951.50           1242          58.00       229.30
 1212.75        2951.75           1246          50.00       194.42
 1212.78        2952.00           1249          50.00       194.42
 1212.81        2952.25           1252          56.00       220.58
 1212.85        2952.50           1256          67.00       268.53
 1212.88        2952.75           1259          52.00       203.14
 1212.91        2953.00           1262          49.00       190.06
 1212.94        2953.25           1266          49.00       190.06
 1212.97        2953.50           1269          56.00       220.58
 1213.00        2953.75           1272          62.00       246.73
 1213.03        2954.00           1276          66.00       264.17
 1213.06        2954.25           1279          49.00       190.06
 1213.09        2954.50           1282          60.00       238.01
 1213.13        2954.75           1286          64.00       255.45
 1213.16        2955.00           1289          60.00       238.01
 1213.19        2955.25           1292          48.00       185.70
 1213.22        2955.50           1296          59.00       233.65
 1213.25        2955.75           1299          86.00       351.36
 1213.28        2956.00           1302          54.00       211.86
 1213.31        2956.25           1306          59.00       233.65
 1213.34        2956.50           1309          56.00       220.58
 1213.37        2956.75           1312          57.00       224.94
 1213.41        2957.00           1316          58.00       229.30
 1213.44        2957.25           1319          61.00       242.37
 1213.47        2957.50           1322          58.00       229.30
 1213.50        2957.75           1326          60.00       238.01
 1213.53        2958.00           1329          55.00       216.22
 1213.56        2958.25           1332          59.00       233.65
 1213.59        2958.50           1336          57.00       224.94
 1213.62        2958.75           1339          53.00       207.50
 1213.65        2959.00           1342          53.00       207.50
 1213.68        2959.25           1346          54.00       211.86
 1213.71        2959.50           1349          62.00       246.73
 1213.75        2959.75           1352          74.00       299.04
 1213.78        2960.00           1356          93.00       381.87
 1213.81        2960.25           1359         130.00       543.16
 1213.84        2960.50           1362         157.00       660.87
 1213.87        2960.75           1366         188.00       796.01
 1213.90        2961.00           1369         230.00       979.10
 1213.93        2961.25           1372         272.00      1162.20
 1213.96        2961.50           1376         326.00      1397.62
 1213.99        2961.75           1379         494.00      2130.04
 1214.03        2962.00           1382        1180.00      5121.10
 1214.06        2962.25           1386        2693.00     11719.90
 1214.09        2962.50           1389        3956.00     17230.35
 1214.12        2962.75           1392        5045.00     21983.11
 1214.15        2963.00           1396        6623.00     28872.43
 1214.18        2963.25           1399        7887.00     34392.93
 1214.21        2963.50           1402        9160.00     39954.58
 1214.24        2963.75           1406       10659.00     46505.99
 1214.27        2964.00           1409       11910.00     51975.49
 1214.31        2964.25           1412       13219.00     57700.49
 1214.34        2964.50           1416       14859.00     64875.92
 1214.37        2964.75           1419       16050.00     70088.81
 1214.40        2965.00           1422       17351.00     75785.02
 1214.43        2965.25           1426       19098.00     83437.02
 1214.46        2965.50           1429       20462.00     89413.89
 1214.49        2965.75           1432       21448.00     93735.77
 1214.52        2966.00           1436       23196.00    101400.40
 1214.56        2966.25           1439       24315.00    106308.90
 1214.59        2966.50           1442       25468.00    111368.00
 1214.62        2966.75           1446       26471.00    115770.20
 1214.65        2967.00           1449       26754.00    117012.50
 1214.68        2967.25           1452       26711.00    116823.70
 1214.71        2967.50           1456       26618.00    116415.50
 1214.74        2967.75           1459       26659.00    116595.50
 1214.77        2968.00           1462       26546.00    116099.40
 1214.80        2968.25           1466       25485.00    111442.60
 1214.84        2968.50           1469       24351.00    106466.80
 1214.87        2968.75           1472       23288.00    101803.90
 1214.90        2969.00           1476       21489.00     93915.50
 1214.93        2969.25           1479       20417.00     89216.68
 1214.96        2969.50           1482       19398.00     84751.39
 1214.99        2969.75           1486       17589.00     76827.27
 1215.02        2970.00           1489       16413.00     71677.95
 1215.05        2970.25           1492       15304.00     66823.46
 1215.08        2970.50           1496       13601.00     59371.57
 1215.12        2970.75           1499       12325.00     53790.31
 1215.15        2971.00           1502       11068.00     48293.98
 1215.18        2971.25           1506        9384.00     40933.41
 1215.21        2971.50           1509        8184.00     35690.33
 1215.24        2971.75           1513        6499.00     28330.96
 1215.27        2972.00           1516        5219.00     22742.63
 1215.30        2972.25           1519        3951.00     17208.54
 1215.33        2972.50           1523        2401.00     10446.17
 1215.36        2972.75           1526        1433.00      6224.35
 1215.40        2973.00           1529         593.00      2561.66
 1215.43        2973.25           1533         331.00      1419.42
 1215.46        2973.50           1536         283.00      1210.16
 1215.49        2973.75           1539         223.00       948.59
 1215.52        2974.00           1543         196.00       830.88
 1215.55        2974.25           1546         157.00       660.87
 1215.58        2974.50           1549         124.00       517.01
 1215.61        2974.75           1553          85.00       347.00
 1215.64        2975.00           1556          78.00       316.48
 1215.67        2975.25           1559          53.00       207.50
 1215.70        2975.50           1563          54.00       211.86
 1215.73        2975.75           1566          55.00       216.22
 1215.77        2976.00           1569          56.00       220.58
 1215.80        2976.25           1573          52.00       203.14
 1215.83        2976.50           1576          56.00       220.58
 1215.86        2976.75           1579          53.00       207.50
 1215.89        2977.00           1583          47.00       181.34
 1215.92        2977.25           1586          52.00       203.14
 1215.95        2977.50           1590          47.00       181.34
 1215.98        2977.75           1593          45.00       172.63
 1216.01        2978.00           1596          49.00       190.06
 1216.04        2978.25           1600          55.00       216.22
 1216.07        2978.50           1603          53.00       207.50
 1216.10        2978.75           1606          51.00       198.78
 1216.14        2979.00           1610          56.00       220.58
 1216.17        2979.25           1613          60.00       238.01
 1216.20        2979.50           1616          53.00       207.50
 1216.23        2979.75           1620          50.00       194.42
 1216.26        2980.00           1623          49.00       190.06
 1216.29        2980.25           1626          52.00       203.14
 1216.32        2980.50           1630          48.00       185.70
 1216.35        2980.75           1633          53.00       207.50
 1216.38        2981.00           1637          55.00       216.22
 1216.42        2981.25           1640          54.00       211.86
 1216.45        2981.50           1643          49.00       190.06
 1216.48        2981.75           1647          48.00       185.70
 1216.51        2982.00           1650          47.00       181.34
 1216.54        2982.25           1653          50.00       194.42
 1216.57        2982.50           1657          54.00       211.86
 1216.60        2982.75           1660          47.00       181.34
 1216.63        2983.00           1663          48.00       185.70
 1216.66        2983.25           1667          49.00       190.06
 1216.70        2983.50           1670          46.00       176.98
 1216.73        2983.75           1673          59.00       233.65
 1216.76        2984.00           1677          52.00       203.14
HS scan finished at 20:16:58
end
