************************************************************
  HS Scan of (1) Internal mercury lamp
************************************************************
Integration time is 0.2294 seconds per sample
dh170417Manchester 53.47 2.23 2.750537pr1000
************************************************************
Dead Time -------------------------  3E-08 
Number of Cycles Used -------------  4 
Starting Wavelength (Angstroms) ---  2950 
Final Wavelength (Angstoms) -------  2984 
Wavelength Increment (Angstroms) --  .25 
Filter Wheel #1 Position ---------- (1) Ground quartz diffuser (ND=2.32)
Filter Wheel #2 Position ---------- (1) Neutral Density 0.494



************************************************************
HS scan start time = 01:35:21
Dark Count =  5.7 


Time (GMT)  Wavelength (Ang)  Step Number  Raw Counts  Counts/Second

   95.72        2950.00           1222          53.00       206.19
   95.79        2950.25           1226          44.00       166.96
   95.82        2950.50           1229          46.00       175.68
   95.85        2950.75           1232          48.00       184.40
   95.88        2951.00           1236          44.00       166.96
   95.91        2951.25           1239          38.00       140.80
   95.94        2951.50           1242          48.00       184.40
   95.97        2951.75           1246          40.00       149.52
   96.01        2952.00           1249          51.00       197.47
   96.04        2952.25           1252          47.00       180.04
   96.07        2952.50           1256          49.00       188.75
   96.10        2952.75           1259          45.00       171.32
   96.13        2953.00           1262          45.00       171.32
   96.16        2953.25           1266          45.00       171.32
   96.19        2953.50           1269          42.00       158.24
   96.22        2953.75           1272          45.00       171.32
   96.25        2954.00           1276          54.00       210.55
   96.28        2954.25           1279          46.00       175.68
   96.31        2954.50           1282          43.00       162.60
   96.34        2954.75           1286          39.00       145.16
   96.37        2955.00           1289          45.00       171.32
   96.41        2955.25           1292          47.00       180.04
   96.44        2955.50           1296          55.00       214.91
   96.47        2955.75           1299          39.00       145.16
   96.50        2956.00           1302          49.00       188.75
   96.53        2956.25           1306          43.00       162.60
   96.56        2956.50           1309          46.00       175.68
   96.59        2956.75           1312          47.00       180.04
   96.62        2957.00           1316          56.00       219.27
   96.65        2957.25           1319          48.00       184.40
   96.68        2957.50           1322          42.00       158.24
   96.71        2957.75           1326          46.00       175.68
   96.74        2958.00           1329          49.00       188.75
   96.77        2958.25           1332          44.00       166.96
   96.80        2958.50           1336          51.00       197.47
   96.84        2958.75           1339          43.00       162.60
   96.87        2959.00           1342          48.00       184.40
   96.90        2959.25           1346          47.00       180.04
   96.93        2959.50           1349          61.00       241.07
   96.96        2959.75           1352          73.00       293.38
   96.99        2960.00           1356          79.00       319.53
   97.02        2960.25           1359         115.00       476.47
   97.05        2960.50           1362         156.00       655.20
   97.08        2960.75           1366         201.00       851.37
   97.11        2961.00           1369         245.00      1043.19
   97.14        2961.25           1372         282.00      1204.49
   97.18        2961.50           1376         382.00      1640.45
   97.21        2961.75           1379         589.00      2542.91
   97.24        2962.00           1382        1232.00      5346.54
   97.27        2962.25           1386        2964.00     12900.81
   97.30        2962.50           1389        4534.00     19751.46
   97.33        2962.75           1392        5963.00     25989.31
   97.36        2963.00           1396        8079.00     35230.33
   97.39        2963.25           1399        9746.00     42514.09
   97.42        2963.50           1402       11473.00     50063.37
   97.46        2963.75           1406       13605.00     59387.76
   97.49        2964.00           1409       15396.00     67224.81
   97.52        2964.25           1412       17172.00     74999.87
   97.55        2964.50           1416       19415.00     84824.56
   97.58        2964.75           1419       21168.00     92507.02
   97.61        2965.00           1422       22612.00     98837.98
   97.64        2965.25           1426       24904.00    108891.80
   97.67        2965.50           1429       26615.00    116401.00
   97.70        2965.75           1432       28414.00    124300.10
   97.73        2966.00           1436       30573.00    133784.80
   97.77        2966.25           1439       32087.00    140439.20
   97.80        2966.50           1442       33653.00    147325.00
   97.83        2966.75           1446       35375.00    154899.90
   97.86        2967.00           1449       35803.00    156783.20
   97.89        2967.25           1452       36117.00    158165.00
   97.92        2967.50           1456       36186.00    158468.70
   97.95        2967.75           1459       36198.00    158521.50
   97.98        2968.00           1462       36068.00    157949.40
   98.01        2968.25           1466       35226.00    154244.40
   98.04        2968.50           1469       33914.00    148472.90
   98.08        2968.75           1472       32424.00    141920.80
   98.11        2969.00           1476       30165.00    131992.00
   98.14        2969.25           1479       28576.00    125011.60
   98.17        2969.50           1482       27028.00    118214.10
   98.20        2969.75           1486       24902.00    108883.00
   98.23        2970.00           1489       23188.00    101364.00
   98.26        2970.25           1492       21733.00     94983.89
   98.29        2970.50           1496       19424.00     84864.00
   98.32        2970.75           1499       17711.00     77360.25
   98.36        2971.00           1502       15990.00     69824.84
   98.39        2971.25           1506       13774.00     60127.11
   98.42        2971.50           1509       12001.00     52372.11
   98.45        2971.75           1513        9663.00     42151.35
   98.48        2972.00           1516        7993.00     34854.65
   98.51        2972.25           1519        6345.00     27657.20
   98.54        2972.50           1523        4229.00     18420.38
   98.57        2972.75           1526        2659.00     11570.28
   98.60        2973.00           1529        1340.00      5817.49
   98.64        2973.25           1533         536.00      2311.84
   98.67        2973.50           1536         368.00      1579.41
   98.70        2973.75           1539         306.00      1309.12
   98.73        2974.00           1543         255.00      1086.78
   98.76        2974.25           1546         185.00       781.62
   98.79        2974.50           1549         136.00       568.01
   98.82        2974.75           1553          94.00       384.92
   98.85        2975.00           1556          71.00       284.66
   98.88        2975.25           1559          60.00       236.71
   98.91        2975.50           1563          49.00       188.75
   98.95        2975.75           1566          51.00       197.47
   98.98        2976.00           1569          58.00       227.99
   99.01        2976.25           1573          45.00       171.32
   99.04        2976.50           1576          50.00       193.11
   99.07        2976.75           1579          46.00       175.68
   99.10        2977.00           1583          50.00       193.11
   99.13        2977.25           1586          42.00       158.24
   99.16        2977.50           1590          46.00       175.68
   99.19        2977.75           1593          43.00       162.60
   99.22        2978.00           1596          41.00       153.88
   99.25        2978.25           1600          43.00       162.60
   99.28        2978.50           1603          49.00       188.75
   99.31        2978.75           1606          45.00       171.32
   99.35        2979.00           1610          49.00       188.75
   99.38        2979.25           1613          46.00       175.68
   99.41        2979.50           1616          42.00       158.24
   99.44        2979.75           1620          52.00       201.83
   99.47        2980.00           1623          44.00       166.96
   99.50        2980.25           1626          40.00       149.52
   99.53        2980.50           1630          48.00       184.40
   99.56        2980.75           1633          48.00       184.40
   99.59        2981.00           1637          44.00       166.96
   99.62        2981.25           1640          43.00       162.60
   99.65        2981.50           1643          44.00       166.96
   99.68        2981.75           1647          50.00       193.11
   99.71        2982.00           1650          44.00       166.96
   99.74        2982.25           1653          40.00       149.52
   99.77        2982.50           1657          47.00       180.04
   99.81        2982.75           1660          44.00       166.96
   99.84        2983.00           1663          38.00       140.80
   99.87        2983.25           1667          50.00       193.11
   99.90        2983.50           1670          47.00       180.04
   99.93        2983.75           1673          51.00       197.47
   99.96        2984.00           1677          40.00       149.52
HS scan finished at 01:40:11
end
************************************************************
  HS Scan of (1) Internal mercury lamp
************************************************************
Integration time is 0.2294 seconds per sample
dh170417Manchester 53.47 2.23 2.804185pr1000
************************************************************
Dead Time -------------------------  3E-08 
Number of Cycles Used -------------  4 
Starting Wavelength (Angstroms) ---  2950 
Final Wavelength (Angstoms) -------  2984 
Wavelength Increment (Angstroms) --  .25 
Filter Wheel #1 Position ---------- (1) Ground quartz diffuser (ND=2.32)
Filter Wheel #2 Position ---------- (1) Neutral Density 0.494



************************************************************
HS scan start time = 20:12:01
Dark Count =  7.8 


Time (GMT)  Wavelength (Ang)  Step Number  Raw Counts  Counts/Second

 1212.39        2950.00           1222          47.00       170.88
 1212.46        2950.25           1226          48.00       175.24
 1212.49        2950.50           1229          45.00       162.16
 1212.52        2950.75           1232          50.00       183.96
 1212.55        2951.00           1236          50.00       183.96
 1212.58        2951.25           1239          47.00       170.88
 1212.61        2951.50           1242          43.00       153.44
 1212.64        2951.75           1246          44.00       157.80
 1212.67        2952.00           1249          46.00       166.52
 1212.70        2952.25           1252          43.00       153.44
 1212.73        2952.50           1256          47.00       170.88
 1212.76        2952.75           1259          52.00       192.68
 1212.79        2953.00           1262          52.00       192.68
 1212.83        2953.25           1266          46.00       166.52
 1212.86        2953.50           1269          55.00       205.76
 1212.89        2953.75           1272          49.00       179.60
 1212.92        2954.00           1276          54.00       201.40
 1212.95        2954.25           1279          39.00       136.01
 1212.98        2954.50           1282          44.00       157.80
 1213.01        2954.75           1286          53.00       197.04
 1213.04        2955.00           1289          48.00       175.24
 1213.07        2955.25           1292          40.00       140.37
 1213.10        2955.50           1296          50.00       183.96
 1213.13        2955.75           1299          51.00       188.32
 1213.16        2956.00           1302          43.00       153.44
 1213.19        2956.25           1306          49.00       179.60
 1213.23        2956.50           1309          48.00       175.24
 1213.26        2956.75           1312          50.00       183.96
 1213.29        2957.00           1316          50.00       183.96
 1213.32        2957.25           1319          51.00       188.32
 1213.35        2957.50           1322          50.00       183.96
 1213.38        2957.75           1326          43.00       153.44
 1213.41        2958.00           1329          46.00       166.52
 1213.44        2958.25           1332          44.00       157.80
 1213.47        2958.50           1336          41.00       144.73
 1213.50        2958.75           1339          50.00       183.96
 1213.54        2959.00           1342          47.00       170.88
 1213.57        2959.25           1346          59.00       223.19
 1213.60        2959.50           1349          60.00       227.55
 1213.63        2959.75           1352          74.00       288.58
 1213.66        2960.00           1356         110.00       445.52
 1213.69        2960.25           1359         139.00       571.94
 1213.72        2960.50           1362         180.00       750.67
 1213.75        2960.75           1366         251.00      1060.19
 1213.78        2961.00           1369         275.00      1164.82
 1213.81        2961.25           1372         320.00      1361.00
 1213.84        2961.50           1376         414.00      1770.80
 1213.88        2961.75           1379         718.00      3096.19
 1213.91        2962.00           1382        1330.00      5764.73
 1213.94        2962.25           1386        2976.00     12944.00
 1213.97        2962.50           1389        4574.00     19916.87
 1214.00        2962.75           1392        6106.00     26604.49
 1214.03        2963.00           1396        8234.00     35898.28
 1214.06        2963.25           1399        9853.00     42972.54
 1214.09        2963.50           1402       11537.00     50334.02
 1214.12        2963.75           1406       13664.00     59636.68
 1214.15        2964.00           1409       15520.00     67758.35
 1214.18        2964.25           1412       17158.00     74929.36
 1214.21        2964.50           1416       19324.00     84416.66
 1214.25        2964.75           1419       20947.00     91529.10
 1214.28        2965.00           1422       22905.00    100113.70
 1214.31        2965.25           1426       25286.00    110558.80
 1214.34        2965.50           1429       26934.00    117792.20
 1214.37        2965.75           1432       28654.00    125344.90
 1214.40        2966.00           1436       30571.00    133766.80
 1214.43        2966.25           1439       32437.00    141968.70
 1214.46        2966.50           1442       33882.00    148322.90
 1214.49        2966.75           1446       35416.00    155071.10
 1214.52        2967.00           1449       35556.00    155687.10
 1214.56        2967.25           1452       35855.00    157002.80
 1214.59        2967.50           1456       35798.00    156752.00
 1214.62        2967.75           1459       35766.00    156611.20
 1214.65        2968.00           1462       35522.00    155537.50
 1214.68        2968.25           1466       34495.00    151019.20
 1214.71        2968.50           1469       33284.00    145693.00
 1214.74        2968.75           1472       31810.00    139212.30
 1214.77        2969.00           1476       29705.00    129961.70
 1214.80        2969.25           1479       28042.00    122657.10
 1214.83        2969.50           1482       26309.00    115048.50
 1214.86        2969.75           1486       24199.00    105789.40
 1214.90        2970.00           1489       22626.00     98890.15
 1214.93        2970.25           1492       21088.00     92147.15
 1214.96        2970.50           1496       18772.00     81998.32
 1214.99        2970.75           1499       17118.00     74754.21
 1215.02        2971.00           1502       15460.00     67495.74
 1215.05        2971.25           1506       13274.00     57930.58
 1215.08        2971.50           1509       11456.00     49979.86
 1215.11        2971.75           1513        9450.00     41211.35
 1215.14        2972.00           1516        7753.00     33797.11
 1215.17        2972.25           1519        6188.00     26962.52
 1215.21        2972.50           1523        4111.00     17896.27
 1215.24        2972.75           1526        2583.00     11229.59
 1215.27        2973.00           1529        1289.00      5585.94
 1215.30        2973.25           1533         463.00      1984.43
 1215.33        2973.50           1536         349.00      1487.42
 1215.36        2973.75           1539         269.00      1138.66
 1215.39        2974.00           1543         229.00       964.28
 1215.42        2974.25           1546         163.00       676.56
 1215.45        2974.50           1549         136.00       558.86
 1215.48        2974.75           1553          85.00       336.53
 1215.51        2975.00           1556          70.00       271.14
 1215.55        2975.25           1559          46.00       166.52
 1215.58        2975.50           1563          57.00       214.47
 1215.61        2975.75           1566          52.00       192.68
 1215.64        2976.00           1569          49.00       179.60
 1215.67        2976.25           1573          43.00       153.44
 1215.70        2976.50           1576          45.00       162.16
 1215.73        2976.75           1579          44.00       157.80
 1215.76        2977.00           1583          44.00       157.80
 1215.79        2977.25           1586          46.00       166.52
 1215.82        2977.50           1590          57.00       214.47
 1215.85        2977.75           1593          50.00       183.96
 1215.89        2978.00           1596          51.00       188.32
 1215.92        2978.25           1600          46.00       166.52
 1215.95        2978.50           1603          43.00       153.44
 1215.98        2978.75           1606          45.00       162.16
 1216.01        2979.00           1610          46.00       166.52
 1216.04        2979.25           1613          45.00       162.16
 1216.07        2979.50           1616          44.00       157.80
 1216.10        2979.75           1620          39.00       136.01
 1216.13        2980.00           1623          47.00       170.88
 1216.16        2980.25           1626          44.00       157.80
 1216.19        2980.50           1630          43.00       153.44
 1216.22        2980.75           1633          43.00       153.44
 1216.25        2981.00           1637          47.00       170.88
 1216.28        2981.25           1640          43.00       153.44
 1216.31        2981.50           1643          41.00       144.73
 1216.34        2981.75           1647          47.00       170.88
 1216.37        2982.00           1650          55.00       205.76
 1216.41        2982.25           1653          46.00       166.52
 1216.44        2982.50           1657          43.00       153.44
 1216.47        2982.75           1660          50.00       183.96
 1216.50        2983.00           1663          42.00       149.09
 1216.53        2983.25           1667          51.00       188.32
 1216.56        2983.50           1670          51.00       188.32
 1216.59        2983.75           1673          42.00       149.09
 1216.62        2984.00           1677          45.00       162.16
HS scan finished at 20:16:50
end
