************************************************************
  HS Scan of (1) Internal mercury lamp
************************************************************
Integration time is 0.2294 seconds per sample
dh180419Manchester 53.47 2.23 2.804185pr1000
************************************************************
Dead Time -------------------------  3E-08 
Number of Cycles Used -------------  4 
Starting Wavelength (Angstroms) ---  2950 
Final Wavelength (Angstoms) -------  2984 
Wavelength Increment (Angstroms) --  .25 
Filter Wheel #1 Position ---------- (1) Ground quartz diffuser (ND=2.32)
Filter Wheel #2 Position ---------- (1) Neutral Density 0.494



************************************************************
HS scan start time = 01:36:39
Dark Count =  7.5 


Time (GMT)  Wavelength (Ang)  Step Number  Raw Counts  Counts/Second

   97.02        2950.00           1222          51.00       189.63
   97.09        2950.25           1226          54.00       202.70
   97.12        2950.50           1229          56.00       211.42
   97.15        2950.75           1232          51.00       189.63
   97.18        2951.00           1236          62.00       237.58
   97.21        2951.25           1239          52.00       193.99
   97.24        2951.50           1242          55.00       207.06
   97.27        2951.75           1246          57.00       215.78
   97.30        2952.00           1249          45.00       163.47
   97.33        2952.25           1252          51.00       189.63
   97.37        2952.50           1256          59.00       224.50
   97.40        2952.75           1259          53.00       198.34
   97.43        2953.00           1262          53.00       198.34
   97.46        2953.25           1266          52.00       193.99
   97.49        2953.50           1269          60.00       228.86
   97.52        2953.75           1272          50.00       185.27
   97.55        2954.00           1276          51.00       189.63
   97.58        2954.25           1279          51.00       189.63
   97.61        2954.50           1282          59.00       224.50
   97.64        2954.75           1286          56.00       211.42
   97.68        2955.00           1289          56.00       211.42
   97.71        2955.25           1292          49.00       180.91
   97.74        2955.50           1296          52.00       193.99
   97.77        2955.75           1299          57.00       215.78
   97.80        2956.00           1302          53.00       198.34
   97.83        2956.25           1306          46.00       167.83
   97.86        2956.50           1309          55.00       207.06
   97.89        2956.75           1312          52.00       193.99
   97.92        2957.00           1316          50.00       185.27
   97.95        2957.25           1319          64.00       246.30
   97.99        2957.50           1322          65.00       250.66
   98.02        2957.75           1326          53.00       198.34
   98.05        2958.00           1329          56.00       211.42
   98.08        2958.25           1332          63.00       241.94
   98.11        2958.50           1336          51.00       189.63
   98.14        2958.75           1339          62.00       237.58
   98.17        2959.00           1342          59.00       224.50
   98.20        2959.25           1346          58.00       220.14
   98.23        2959.50           1349          66.00       255.02
   98.26        2959.75           1352          65.00       250.66
   98.30        2960.00           1356          87.00       346.56
   98.33        2960.25           1359         111.00       451.18
   98.36        2960.50           1362         144.00       595.04
   98.39        2960.75           1366         179.00       747.62
   98.42        2961.00           1369         231.00       974.31
   98.45        2961.25           1372         263.00      1113.81
   98.48        2961.50           1376         319.00      1357.95
   98.51        2961.75           1379         448.00      1920.34
   98.54        2962.00           1382         942.00      4074.17
   98.57        2962.25           1386        2340.00     10170.93
   98.61        2962.50           1389        3504.00     15248.91
   98.64        2962.75           1392        4666.00     20319.71
   98.67        2963.00           1396        6208.00     27051.15
   98.70        2963.25           1399        7552.00     32920.47
   98.73        2963.50           1402        8763.00     38210.74
   98.76        2963.75           1406       10499.00     45797.41
   98.79        2964.00           1409       11867.00     51778.28
   98.82        2964.25           1412       13249.00     57822.54
   98.85        2964.50           1416       14809.00     64647.93
   98.89        2964.75           1419       16064.00     70140.90
   98.92        2965.00           1422       17243.00     75302.88
   98.95        2965.25           1426       18898.00     82551.63
   98.98        2965.50           1429       20171.00     88129.38
   99.01        2965.75           1432       21475.00     93844.92
   99.04        2966.00           1436       23184.00    101338.60
   99.07        2966.25           1439       24199.00    105790.80
   99.10        2966.50           1442       25453.00    111293.00
   99.13        2966.75           1446       26520.00    115976.10
   99.16        2967.00           1449       26877.00    117543.20
   99.20        2967.25           1452       27018.00    118162.20
   99.23        2967.50           1456       27045.00    118280.80
   99.26        2967.75           1459       26860.00    117468.60
   99.29        2968.00           1462       26792.00    117170.10
   99.32        2968.25           1466       25887.00    113197.60
   99.35        2968.50           1469       24643.00    107738.70
   99.38        2968.75           1472       23669.00    103465.80
   99.41        2969.00           1476       22155.00     96826.19
   99.44        2969.25           1479       20871.00     91197.29
   99.48        2969.50           1482       19644.00     85820.06
   99.51        2969.75           1486       18144.00     79248.78
   99.54        2970.00           1489       16700.00     72925.28
   99.57        2970.25           1492       15592.00     68074.81
   99.60        2970.50           1496       14025.00     61217.39
   99.63        2970.75           1499       12649.00     55198.14
   99.66        2971.00           1502       11528.00     50295.98
   99.69        2971.25           1506        9828.00     42864.59
   99.72        2971.50           1509        8622.00     37594.69
   99.75        2971.75           1513        7120.00     31033.68
   99.79        2972.00           1516        5900.00     25706.39
   99.82        2972.25           1519        4745.00     20664.51
   99.85        2972.50           1523        3212.00     13974.91
   99.88        2972.75           1526        1966.00      8539.68
   99.91        2973.00           1529         880.00      3803.83
   99.94        2973.25           1533         371.00      1584.64
   99.97        2973.50           1536         267.00      1131.25
  100.00        2973.75           1539         224.00       943.79
  100.03        2974.00           1543         175.00       730.18
  100.06        2974.25           1546         160.00       664.79
  100.09        2974.50           1549         114.00       464.26
  100.12        2974.75           1553          84.00       333.48
  100.15        2975.00           1556          67.00       259.37
  100.18        2975.25           1559          54.00       202.70
  100.22        2975.50           1563          54.00       202.70
  100.25        2975.75           1566          49.00       180.91
  100.28        2976.00           1569          53.00       198.34
  100.31        2976.25           1573          52.00       193.99
  100.34        2976.50           1576          53.00       198.34
  100.37        2976.75           1579          56.00       211.42
  100.40        2977.00           1583          52.00       193.99
  100.43        2977.25           1586          49.00       180.91
  100.46        2977.50           1590          51.00       189.63
  100.49        2977.75           1593          52.00       193.99
  100.53        2978.00           1596          51.00       189.63
  100.56        2978.25           1600          51.00       189.63
  100.59        2978.50           1603          56.00       211.42
  100.62        2978.75           1606          52.00       193.99
  100.65        2979.00           1610          49.00       180.91
  100.68        2979.25           1613          47.00       172.19
  100.71        2979.50           1616          53.00       198.34
  100.74        2979.75           1620          57.00       215.78
  100.77        2980.00           1623          53.00       198.34
  100.80        2980.25           1626          52.00       193.99
  100.83        2980.50           1630          44.00       159.11
  100.86        2980.75           1633          48.00       176.55
  100.89        2981.00           1637          52.00       193.99
  100.92        2981.25           1640          52.00       193.99
  100.95        2981.50           1643          55.00       207.06
  100.99        2981.75           1647          50.00       185.27
  101.02        2982.00           1650          58.00       220.14
  101.05        2982.25           1653          50.00       185.27
  101.08        2982.50           1657          46.00       167.83
  101.11        2982.75           1660          57.00       215.78
  101.14        2983.00           1663          47.00       172.19
  101.17        2983.25           1667          56.00       211.42
  101.20        2983.50           1670          44.00       159.11
  101.23        2983.75           1673          53.00       198.34
  101.26        2984.00           1677          52.00       193.99
HS scan finished at 01:41:29
end
************************************************************
  HS Scan of (1) Internal mercury lamp
************************************************************
Integration time is 0.2294 seconds per sample
dh180419Manchester 53.47 2.23 2.857833pr1000
************************************************************
Dead Time -------------------------  3E-08 
Number of Cycles Used -------------  4 
Starting Wavelength (Angstroms) ---  2950 
Final Wavelength (Angstoms) -------  2984 
Wavelength Increment (Angstroms) --  .25 
Filter Wheel #1 Position ---------- (1) Ground quartz diffuser (ND=2.32)
Filter Wheel #2 Position ---------- (1) Neutral Density 0.494



************************************************************
HS scan start time = 20:12:08
Dark Count =  6.9 


Time (GMT)  Wavelength (Ang)  Step Number  Raw Counts  Counts/Second

 1212.50        2950.00           1222          50.00       187.88
 1212.57        2950.25           1226          58.00       222.76
 1212.60        2950.50           1229          64.00       248.91
 1212.63        2950.75           1232          57.00       218.40
 1212.66        2951.00           1236          63.00       244.55
 1212.69        2951.25           1239          57.00       218.40
 1212.72        2951.50           1242          53.00       200.96
 1212.75        2951.75           1246          54.00       205.32
 1212.78        2952.00           1249          53.00       200.96
 1212.82        2952.25           1252          56.00       214.04
 1212.85        2952.50           1256          58.00       222.76
 1212.88        2952.75           1259          70.00       275.07
 1212.91        2953.00           1262          56.00       214.04
 1212.94        2953.25           1266          51.00       192.24
 1212.97        2953.50           1269          57.00       218.40
 1213.00        2953.75           1272          58.00       222.76
 1213.03        2954.00           1276          54.00       205.32
 1213.06        2954.25           1279          57.00       218.40
 1213.09        2954.50           1282          54.00       205.32
 1213.13        2954.75           1286          59.00       227.12
 1213.16        2955.00           1289          49.00       183.52
 1213.19        2955.25           1292          57.00       218.40
 1213.22        2955.50           1296          53.00       200.96
 1213.25        2955.75           1299          56.00       214.04
 1213.28        2956.00           1302          55.00       209.68
 1213.31        2956.25           1306          52.00       196.60
 1213.34        2956.50           1309          48.00       179.16
 1213.37        2956.75           1312          56.00       214.04
 1213.40        2957.00           1316          56.00       214.04
 1213.44        2957.25           1319          56.00       214.04
 1213.47        2957.50           1322          63.00       244.55
 1213.50        2957.75           1326          48.00       179.16
 1213.53        2958.00           1329          62.00       240.19
 1213.56        2958.25           1332          62.00       240.19
 1213.59        2958.50           1336          58.00       222.76
 1213.62        2958.75           1339          59.00       227.12
 1213.65        2959.00           1342          54.00       205.32
 1213.68        2959.25           1346          65.00       253.27
 1213.71        2959.50           1349          66.00       257.63
 1213.75        2959.75           1352          70.00       275.07
 1213.78        2960.00           1356          99.00       401.49
 1213.81        2960.25           1359         112.00       458.16
 1213.84        2960.50           1362         155.00       645.61
 1213.87        2960.75           1366         190.00       798.19
 1213.90        2961.00           1369         212.00       894.10
 1213.93        2961.25           1372         263.00      1116.43
 1213.96        2961.50           1376         311.00      1325.68
 1213.99        2961.75           1379         398.00      1704.97
 1214.03        2962.00           1382         698.00      3012.91
 1214.06        2962.25           1386        1947.00      8459.43
 1214.09        2962.50           1389        3201.00     13929.53
 1214.12        2962.75           1392        4500.00     19597.83
 1214.15        2963.00           1396        6024.00     26250.40
 1214.18        2963.25           1399        7153.00     31180.42
 1214.21        2963.50           1402        8545.00     37260.89
 1214.24        2963.75           1406       10203.00     44506.21
 1214.27        2964.00           1409       11493.00     50145.57
 1214.31        2964.25           1412       12710.00     55467.55
 1214.34        2964.50           1416       14360.00     62685.78
 1214.37        2964.75           1419       15762.00     68821.55
 1214.40        2965.00           1422       17083.00     74604.90
 1214.43        2965.25           1426       18806.00     82151.22
 1214.46        2965.50           1429       20116.00     87890.99
 1214.49        2965.75           1432       21360.00     93343.42
 1214.52        2966.00           1436       23127.00    101091.20
 1214.56        2966.25           1439       24224.00    105903.10
 1214.59        2966.50           1442       25524.00    111607.20
 1214.62        2966.75           1446       26735.00    116922.50
 1214.65        2967.00           1449       27179.00    118871.70
 1214.68        2967.25           1452       27119.00    118608.30
 1214.71        2967.50           1456       27343.00    119591.80
 1214.74        2967.75           1459       27262.00    119236.10
 1214.77        2968.00           1462       27101.00    118529.30
 1214.80        2968.25           1466       26309.00    115052.50
 1214.84        2968.50           1469       25347.00    110830.40
 1214.87        2968.75           1472       24189.00    105749.50
 1214.90        2969.00           1476       22509.00     98381.05
 1214.93        2969.25           1479       21380.00     93431.09
 1214.96        2969.50           1482       19874.00     86830.52
 1214.99        2969.75           1486       18398.00     80363.97
 1215.02        2970.00           1489       17151.00     74902.65
 1215.05        2970.25           1492       15958.00     69679.51
 1215.08        2970.50           1496       14301.00     62427.62
 1215.12        2970.75           1499       13119.00     57256.50
 1215.15        2971.00           1502       11929.00     52052.02
 1215.18        2971.25           1506       10198.00     44484.35
 1215.21        2971.50           1509        8866.00     38663.39
 1215.24        2971.75           1513        7185.00     31320.18
 1215.27        2972.00           1516        5925.00     25818.16
 1215.30        2972.25           1519        4780.00     20819.89
 1215.33        2972.50           1523        3278.00     14265.48
 1215.36        2972.75           1526        2056.00      8934.83
 1215.40        2973.00           1529        1010.00      4373.29
 1215.43        2973.25           1533         409.00      1752.93
 1215.46        2973.50           1536         274.00      1164.38
 1215.49        2973.75           1539         229.00       968.21
 1215.52        2974.00           1543         206.00       867.94
 1215.55        2974.25           1546         149.00       619.45
 1215.58        2974.50           1549         121.00       497.39
 1215.61        2974.75           1553          73.00       288.15
 1215.64        2975.00           1556          68.00       266.35
 1215.67        2975.25           1559          60.00       231.48
 1215.70        2975.50           1563          54.00       205.32
 1215.74        2975.75           1566          51.00       192.24
 1215.77        2976.00           1569          58.00       222.76
 1215.80        2976.25           1573          56.00       214.04
 1215.83        2976.50           1576          49.00       183.52
 1215.86        2976.75           1579          45.00       166.09
 1215.89        2977.00           1583          52.00       196.60
 1215.92        2977.25           1586          47.00       174.80
 1215.95        2977.50           1590          52.00       196.60
 1215.98        2977.75           1593          59.00       227.12
 1216.02        2978.00           1596          53.00       200.96
 1216.05        2978.25           1600          56.00       214.04
 1216.08        2978.50           1603          55.00       209.68
 1216.11        2978.75           1606          54.00       205.32
 1216.14        2979.00           1610          45.00       166.09
 1216.17        2979.25           1613          46.00       170.45
 1216.20        2979.50           1616          51.00       192.24
 1216.23        2979.75           1620          48.00       179.16
 1216.26        2980.00           1623          53.00       200.96
 1216.29        2980.25           1626          55.00       209.68
 1216.33        2980.50           1630          49.00       183.52
 1216.36        2980.75           1633          45.00       166.09
 1216.39        2981.00           1637          53.00       200.96
 1216.42        2981.25           1640          52.00       196.60
 1216.45        2981.50           1643          54.00       205.32
 1216.48        2981.75           1647          48.00       179.16
 1216.51        2982.00           1650          55.00       209.68
 1216.54        2982.25           1653          49.00       183.52
 1216.57        2982.50           1657          50.00       187.88
 1216.61        2982.75           1660          40.00       144.29
 1216.64        2983.00           1663          45.00       166.09
 1216.67        2983.25           1667          54.00       205.32
 1216.70        2983.50           1670          51.00       192.24
 1216.73        2983.75           1673          55.00       209.68
 1216.76        2984.00           1677          44.00       161.73
HS scan finished at 20:16:59
end
