************************************************************
  HS Scan of (1) Internal mercury lamp
************************************************************
Integration time is 0.2294 seconds per sample
dh140417Manchester 53.47 2.23 2.804185pr1000
************************************************************
Dead Time -------------------------  3E-08 
Number of Cycles Used -------------  4 
Starting Wavelength (Angstroms) ---  2950 
Final Wavelength (Angstoms) -------  2984 
Wavelength Increment (Angstroms) --  .25 
Filter Wheel #1 Position ---------- (1) Ground quartz diffuser (ND=2.32)
Filter Wheel #2 Position ---------- (1) Neutral Density 0.494



************************************************************
HS scan start time = 01:23:22
Dark Count =  6.4 


Time (GMT)  Wavelength (Ang)  Step Number  Raw Counts  Counts/Second

   83.73        2950.00           1222          49.00       185.70
   83.80        2950.25           1226          49.00       185.70
   83.83        2950.50           1229          49.00       185.70
   83.86        2950.75           1232          48.00       181.34
   83.89        2951.00           1236          41.00       150.83
   83.92        2951.25           1239          53.00       203.14
   83.95        2951.50           1242          46.00       172.63
   83.98        2951.75           1246          38.00       137.75
   84.01        2952.00           1249          42.00       155.19
   84.04        2952.25           1252          44.00       163.91
   84.07        2952.50           1256          48.00       181.34
   84.10        2952.75           1259          44.00       163.91
   84.14        2953.00           1262          42.00       155.19
   84.17        2953.25           1266          48.00       181.34
   84.20        2953.50           1269          59.00       229.30
   84.23        2953.75           1272          50.00       190.06
   84.26        2954.00           1276          57.00       220.58
   84.29        2954.25           1279          44.00       163.91
   84.32        2954.50           1282          49.00       185.70
   84.35        2954.75           1286          40.00       146.47
   84.38        2955.00           1289          41.00       150.83
   84.41        2955.25           1292          47.00       176.98
   84.44        2955.50           1296          47.00       176.98
   84.47        2955.75           1299          42.00       155.19
   84.50        2956.00           1302          49.00       185.70
   84.54        2956.25           1306          52.00       198.78
   84.57        2956.50           1309          43.00       159.55
   84.60        2956.75           1312          50.00       190.06
   84.63        2957.00           1316          47.00       176.98
   84.66        2957.25           1319          44.00       163.91
   84.69        2957.50           1322          45.00       168.27
   84.72        2957.75           1326          43.00       159.55
   84.75        2958.00           1329          50.00       190.06
   84.78        2958.25           1332          52.00       198.78
   84.81        2958.50           1336          52.00       198.78
   84.84        2958.75           1339          47.00       176.98
   84.87        2959.00           1342          55.00       211.86
   84.90        2959.25           1346          59.00       229.30
   84.93        2959.50           1349          52.00       198.78
   84.96        2959.75           1352          68.00       268.53
   84.99        2960.00           1356         111.00       455.98
   85.02        2960.25           1359         138.00       573.68
   85.06        2960.50           1362         175.00       734.98
   85.09        2960.75           1366         223.00       944.23
   85.12        2961.00           1369         257.00      1092.45
   85.15        2961.25           1372         302.00      1288.63
   85.18        2961.50           1376         392.00      1680.99
   85.21        2961.75           1379         551.00      2374.19
   85.24        2962.00           1382        1064.00      4610.93
   85.27        2962.25           1386        2686.00     11685.00
   85.30        2962.50           1389        4274.00     18613.71
   85.33        2962.75           1392        5893.00     25680.63
   85.37        2963.00           1396        7856.00     34253.15
   85.40        2963.25           1399        9224.00     40229.87
   85.43        2963.50           1402       10997.00     47979.21
   85.46        2963.75           1406       13438.00     58654.13
   85.49        2964.00           1409       15104.00     65943.76
   85.52        2964.25           1412       17019.00     74326.85
   85.55        2964.50           1416       19207.00     83910.18
   85.58        2964.75           1419       20706.00     90478.92
   85.61        2965.00           1422       22439.00     98076.28
   85.64        2965.25           1426       24587.00    107497.80
   85.67        2965.50           1429       26329.00    115142.50
   85.71        2965.75           1432       27976.00    122373.50
   85.74        2966.00           1436       30124.00    131808.80
   85.77        2966.25           1439       31778.00    139077.80
   85.80        2966.50           1442       33660.00    147352.70
   85.83        2966.75           1446       35408.00    155042.10
   85.86        2967.00           1449       36205.00    158549.20
   85.89        2967.25           1452       36435.00    159561.50
   85.92        2967.50           1456       36415.00    159473.40
   85.95        2967.75           1459       36310.00    159011.30
   85.99        2968.00           1462       36271.00    158839.70
   86.02        2968.25           1466       35550.00    155666.90
   86.05        2968.50           1469       34483.00    150972.60
   86.08        2968.75           1472       32900.00    144010.60
   86.11        2969.00           1476       31014.00    135719.80
   86.14        2969.25           1479       29376.00    128522.50
   86.17        2969.50           1482       27585.00    120656.50
   86.20        2969.75           1486       25221.00    110279.70
   86.23        2970.00           1489       23497.00    102716.20
   86.27        2970.25           1492       21814.00     95335.92
   86.30        2970.50           1496       19687.00     86013.30
   86.33        2970.75           1499       17907.00     78215.58
   86.36        2971.00           1502       16366.00     71467.80
   86.39        2971.25           1506       14268.00     62285.41
   86.42        2971.50           1509       12419.00     54197.03
   86.45        2971.75           1513       10301.00     44936.74
   86.48        2972.00           1516        8642.00     37686.88
   86.51        2972.25           1519        6877.00     29977.25
   86.54        2972.50           1523        4653.00     20267.77
   86.57        2972.75           1526        3000.00     13054.81
   86.61        2973.00           1529        1580.00      6861.05
   86.64        2973.25           1533         514.00      2212.88
   86.67        2973.50           1536         342.00      1463.01
   86.70        2973.75           1539         294.00      1253.75
   86.73        2974.00           1543         262.00      1114.25
   86.76        2974.25           1546         189.00       796.01
   86.79        2974.50           1549         139.00       578.04
   86.82        2974.75           1553          93.00       377.51
   86.85        2975.00           1556          71.00       281.61
   86.88        2975.25           1559          50.00       190.06
   86.91        2975.50           1563          52.00       198.78
   86.94        2975.75           1566          50.00       190.06
   86.97        2976.00           1569          49.00       185.70
   87.01        2976.25           1573          51.00       194.42
   87.04        2976.50           1576          52.00       198.78
   87.07        2976.75           1579          50.00       190.06
   87.10        2977.00           1583          47.00       176.98
   87.13        2977.25           1586          47.00       176.98
   87.16        2977.50           1590          45.00       168.27
   87.19        2977.75           1593          48.00       181.34
   87.22        2978.00           1596          42.00       155.19
   87.25        2978.25           1600          47.00       176.98
   87.28        2978.50           1603          45.00       168.27
   87.32        2978.75           1606          45.00       168.27
   87.35        2979.00           1610          51.00       194.42
   87.38        2979.25           1613          47.00       176.98
   87.41        2979.50           1616          48.00       181.34
   87.44        2979.75           1620          49.00       185.70
   87.47        2980.00           1623          41.00       150.83
   87.50        2980.25           1626          45.00       168.27
   87.53        2980.50           1630          43.00       159.55
   87.56        2980.75           1633          39.00       142.11
   87.59        2981.00           1637          41.00       150.83
   87.62        2981.25           1640          43.00       159.55
   87.65        2981.50           1643          42.00       155.19
   87.69        2981.75           1647          47.00       176.98
   87.72        2982.00           1650          51.00       194.42
   87.75        2982.25           1653          44.00       163.91
   87.78        2982.50           1657          42.00       155.19
   87.81        2982.75           1660          46.00       172.63
   87.84        2983.00           1663          55.00       211.86
   87.87        2983.25           1667          38.00       137.75
   87.90        2983.50           1670          41.00       150.83
   87.93        2983.75           1673          43.00       159.55
   87.96        2984.00           1677          46.00       172.63
HS scan finished at 01:28:11
end
************************************************************
  HS Scan of (1) Internal mercury lamp
************************************************************
Integration time is 0.2294 seconds per sample
dh140417Manchester 53.47 2.23 2.804185pr1000
************************************************************
Dead Time -------------------------  3E-08 
Number of Cycles Used -------------  4 
Starting Wavelength (Angstroms) ---  2950 
Final Wavelength (Angstoms) -------  2984 
Wavelength Increment (Angstroms) --  .25 
Filter Wheel #1 Position ---------- (1) Ground quartz diffuser (ND=2.32)
Filter Wheel #2 Position ---------- (1) Neutral Density 0.494



************************************************************
HS scan start time = 20:12:03
Dark Count =  5.2 


Time (GMT)  Wavelength (Ang)  Step Number  Raw Counts  Counts/Second

 1212.42        2950.00           1222          42.00       160.42
 1212.48        2950.25           1226          52.00       204.01
 1212.51        2950.50           1229          41.00       156.06
 1212.54        2950.75           1232          44.00       169.14
 1212.58        2951.00           1236          49.00       190.93
 1212.61        2951.25           1239          43.00       164.78
 1212.64        2951.50           1242          44.00       169.14
 1212.67        2951.75           1246          55.00       217.09
 1212.70        2952.00           1249          48.00       186.57
 1212.73        2952.25           1252          44.00       169.14
 1212.76        2952.50           1256          43.00       164.78
 1212.79        2952.75           1259          50.00       195.29
 1212.82        2953.00           1262          51.00       199.65
 1212.85        2953.25           1266          46.00       177.86
 1212.88        2953.50           1269          45.00       173.50
 1212.92        2953.75           1272          49.00       190.93
 1212.95        2954.00           1276          43.00       164.78
 1212.98        2954.25           1279          46.00       177.86
 1213.01        2954.50           1282          43.00       164.78
 1213.04        2954.75           1286          44.00       169.14
 1213.07        2955.00           1289          44.00       169.14
 1213.10        2955.25           1292          49.00       190.93
 1213.13        2955.50           1296          41.00       156.06
 1213.16        2955.75           1299          46.00       177.86
 1213.19        2956.00           1302          43.00       164.78
 1213.22        2956.25           1306          41.00       156.06
 1213.25        2956.50           1309          48.00       186.57
 1213.28        2956.75           1312          47.00       182.22
 1213.31        2957.00           1316          55.00       217.09
 1213.34        2957.25           1319          48.00       186.57
 1213.38        2957.50           1322          48.00       186.57
 1213.41        2957.75           1326          48.00       186.57
 1213.44        2958.00           1329          49.00       190.93
 1213.47        2958.25           1332          38.00       142.98
 1213.50        2958.50           1336          48.00       186.57
 1213.53        2958.75           1339          47.00       182.22
 1213.56        2959.00           1342          56.00       221.45
 1213.59        2959.25           1346          46.00       177.86
 1213.62        2959.50           1349          52.00       204.01
 1213.65        2959.75           1352          76.00       308.63
 1213.68        2960.00           1356         104.00       430.69
 1213.71        2960.25           1359         139.00       583.27
 1213.75        2960.50           1362         182.00       770.72
 1213.78        2960.75           1366         242.00      1032.29
 1213.81        2961.00           1369         261.00      1115.12
 1213.84        2961.25           1372         335.00      1437.73
 1213.87        2961.50           1376         418.00      1799.57
 1213.90        2961.75           1379         611.00      2641.01
 1213.93        2962.00           1382        1189.00      5161.22
 1213.96        2962.25           1386        2895.00     12601.98
 1213.99        2962.50           1389        4448.00     19378.31
 1214.03        2962.75           1392        5832.00     25419.55
 1214.06        2963.00           1396        7945.00     34647.16
 1214.09        2963.25           1399        9641.00     42057.39
 1214.12        2963.50           1402       11323.00     49409.72
 1214.15        2963.75           1406       13780.00     60155.54
 1214.18        2964.00           1409       15741.00     68737.06
 1214.21        2964.25           1412       17505.00     76460.28
 1214.24        2964.50           1416       19610.00     85681.16
 1214.27        2964.75           1419       21305.00     93109.78
 1214.30        2965.00           1422       22732.00     99366.40
 1214.34        2965.25           1426       25104.00    109771.50
 1214.37        2965.50           1429       27009.00    118132.80
 1214.40        2965.75           1432       28566.00    124969.80
 1214.43        2966.00           1436       30802.00    134793.40
 1214.46        2966.25           1439       32277.00    141276.70
 1214.49        2966.50           1442       34100.00    149293.10
 1214.52        2966.75           1446       35338.00    154739.30
 1214.55        2967.00           1449       35964.00    157493.90
 1214.58        2967.25           1452       36011.00    157700.80
 1214.62        2967.50           1456       36034.00    157801.90
 1214.65        2967.75           1459       35845.00    156970.20
 1214.68        2968.00           1462       35832.00    156913.10
 1214.71        2968.25           1466       34721.00    152024.80
 1214.74        2968.50           1469       33487.00    146597.10
 1214.77        2968.75           1472       32029.00    140186.40
 1214.80        2969.00           1476       29842.00    130575.00
 1214.83        2969.25           1479       28323.00    123902.60
 1214.86        2969.50           1482       26450.00    115678.90
 1214.89        2969.75           1486       24197.00    105792.10
 1214.92        2970.00           1489       22513.00     98406.04
 1214.96        2970.25           1492       21066.00     92062.11
 1214.99        2970.50           1496       18814.00     82193.71
 1215.02        2970.75           1499       17113.00     74743.71
 1215.05        2971.00           1502       15519.00     67765.35
 1215.08        2971.25           1506       13331.00     58191.30
 1215.11        2971.50           1509       11635.00     50773.88
 1215.14        2971.75           1513        9623.00     41978.73
 1215.17        2972.00           1516        7930.00     34581.63
 1215.20        2972.25           1519        6320.00     27550.22
 1215.24        2972.50           1523        4114.00     17920.70
 1215.27        2972.75           1526        2535.00     11031.55
 1215.30        2973.00           1529        1210.00      5252.79
 1215.33        2973.25           1533         460.00      1982.68
 1215.36        2973.50           1536         323.00      1385.41
 1215.39        2973.75           1539         270.00      1154.36
 1215.42        2974.00           1543         216.00       918.94
 1215.45        2974.25           1546         156.00       657.38
 1215.48        2974.50           1549         114.00       474.29
 1215.51        2974.75           1553          86.00       352.23
 1215.55        2975.00           1556          60.00       238.89
 1215.58        2975.25           1559          50.00       195.29
 1215.61        2975.50           1563          50.00       195.29
 1215.64        2975.75           1566          50.00       195.29
 1215.67        2976.00           1569          49.00       190.93
 1215.70        2976.25           1573          44.00       169.14
 1215.73        2976.50           1576          46.00       177.86
 1215.76        2976.75           1579          44.00       169.14
 1215.79        2977.00           1583          53.00       208.37
 1215.82        2977.25           1586          45.00       173.50
 1215.85        2977.50           1590          40.00       151.70
 1215.88        2977.75           1593          52.00       204.01
 1215.91        2978.00           1596          48.00       186.57
 1215.95        2978.25           1600          48.00       186.57
 1215.98        2978.50           1603          51.00       199.65
 1216.01        2978.75           1606          43.00       164.78
 1216.04        2979.00           1610          39.00       147.34
 1216.07        2979.25           1613          51.00       199.65
 1216.10        2979.50           1616          42.00       160.42
 1216.13        2979.75           1620          51.00       199.65
 1216.16        2980.00           1623          53.00       208.37
 1216.19        2980.25           1626          50.00       195.29
 1216.22        2980.50           1630          48.00       186.57
 1216.25        2980.75           1633          38.00       142.98
 1216.28        2981.00           1637          41.00       156.06
 1216.31        2981.25           1640          41.00       156.06
 1216.34        2981.50           1643          46.00       177.86
 1216.37        2981.75           1647          55.00       217.09
 1216.40        2982.00           1650          46.00       177.86
 1216.44        2982.25           1653          47.00       182.22
 1216.47        2982.50           1657          48.00       186.57
 1216.50        2982.75           1660          44.00       169.14
 1216.53        2983.00           1663          44.00       169.14
 1216.56        2983.25           1667          44.00       169.14
 1216.59        2983.50           1670          48.00       186.57
 1216.62        2983.75           1673          43.00       164.78
 1216.65        2984.00           1677          44.00       169.14
HS scan finished at 20:16:52
end
