************************************************************
  HS Scan of (1) Internal mercury lamp
************************************************************
Integration time is 0.2294 seconds per sample
dh280417Manchester 53.47 2.23 2.804185pr1000
************************************************************
Dead Time -------------------------  3E-08 
Number of Cycles Used -------------  4 
Starting Wavelength (Angstroms) ---  2950 
Final Wavelength (Angstoms) -------  2984 
Wavelength Increment (Angstroms) --  .25 
Filter Wheel #1 Position ---------- (1) Ground quartz diffuser (ND=2.32)
Filter Wheel #2 Position ---------- (1) Neutral Density 0.494



************************************************************
HS scan start time = 01:26:11
Dark Count =  6.8 


Time (GMT)  Wavelength (Ang)  Step Number  Raw Counts  Counts/Second

   86.55        2950.00           1222          50.00       188.32
   86.62        2950.25           1226          48.00       179.60
   86.65        2950.50           1229          43.00       157.80
   86.68        2950.75           1232          42.00       153.44
   86.71        2951.00           1236          44.00       162.16
   86.74        2951.25           1239          50.00       188.32
   86.77        2951.50           1242          43.00       157.80
   86.81        2951.75           1246          49.00       183.96
   86.84        2952.00           1249          47.00       175.24
   86.87        2952.25           1252          48.00       179.60
   86.90        2952.50           1256          48.00       179.60
   86.93        2952.75           1259          45.00       166.52
   86.96        2953.00           1262          45.00       166.52
   86.99        2953.25           1266          48.00       179.60
   87.02        2953.50           1269          48.00       179.60
   87.05        2953.75           1272          53.00       201.40
   87.08        2954.00           1276          43.00       157.80
   87.11        2954.25           1279          47.00       175.24
   87.14        2954.50           1282          45.00       166.52
   87.18        2954.75           1286          46.00       170.88
   87.21        2955.00           1289          41.00       149.09
   87.24        2955.25           1292          48.00       179.60
   87.27        2955.50           1296          54.00       205.76
   87.30        2955.75           1299          45.00       166.52
   87.33        2956.00           1302          45.00       166.52
   87.36        2956.25           1306          48.00       179.60
   87.39        2956.50           1309          42.00       153.44
   87.42        2956.75           1312          57.00       218.83
   87.45        2957.00           1316          47.00       175.24
   87.48        2957.25           1319          44.00       162.16
   87.52        2957.50           1322          53.00       201.40
   87.55        2957.75           1326          47.00       175.24
   87.58        2958.00           1329          47.00       175.24
   87.61        2958.25           1332          44.00       162.16
   87.64        2958.50           1336          40.00       144.73
   87.67        2958.75           1339          42.00       153.44
   87.70        2959.00           1342          43.00       157.80
   87.73        2959.25           1346          50.00       188.32
   87.76        2959.50           1349          52.00       197.04
   87.79        2959.75           1352          73.00       288.58
   87.82        2960.00           1356          94.00       380.13
   87.86        2960.25           1359         125.00       515.27
   87.89        2960.50           1362         159.00       663.48
   87.92        2960.75           1366         219.00       925.05
   87.95        2961.00           1369         265.00      1125.58
   87.98        2961.25           1372         320.00      1365.36
   88.01        2961.50           1376         379.00      1622.57
   88.04        2961.75           1379         532.00      2289.61
   88.07        2962.00           1382        1017.00      4404.24
   88.10        2962.25           1386        2669.00     11609.10
   88.13        2962.50           1389        4278.00     18629.42
   88.17        2962.75           1392        5708.00     24871.21
   88.20        2963.00           1396        7921.00     34535.33
   88.23        2963.25           1399        9380.00     40909.82
   88.26        2963.50           1402       11253.00     49096.68
   88.29        2963.75           1406       13426.00     58599.88
   88.32        2964.00           1409       15160.00     66187.09
   88.35        2964.25           1412       16898.00     73795.28
   88.38        2964.50           1416       19282.00     84237.02
   88.41        2964.75           1419       20895.00     91305.56
   88.45        2965.00           1422       22634.00     98929.62
   88.48        2965.25           1426       25069.00    109610.90
   88.51        2965.50           1429       26691.00    116729.80
   88.54        2965.75           1432       28375.00    124124.00
   88.57        2966.00           1436       30579.00    133806.30
   88.60        2966.25           1439       32127.00    140610.20
   88.63        2966.50           1442       33657.00    147337.70
   88.66        2966.75           1446       35530.00    155577.10
   88.69        2967.00           1449       36349.00    159181.20
   88.73        2967.25           1452       36652.00    160514.80
   88.76        2967.50           1456       36564.00    160127.50
   88.79        2967.75           1459       36796.00    161148.60
   88.82        2968.00           1462       36599.00    160281.50
   88.85        2968.25           1466       35846.00    156967.60
   88.88        2968.50           1469       34573.00    151366.70
   88.91        2968.75           1472       32964.00    144290.20
   88.94        2969.00           1476       30911.00    135265.30
   88.97        2969.25           1479       29256.00    127993.60
   89.00        2969.50           1482       27607.00    120751.40
   89.03        2969.75           1486       25375.00    110953.70
   89.07        2970.00           1489       23650.00    103385.60
   89.10        2970.25           1492       21919.00     95794.52
   89.13        2970.50           1496       19712.00     86121.09
   89.16        2970.75           1499       18179.00     79405.15
   89.19        2971.00           1502       16299.00     71172.74
   89.22        2971.25           1506       14039.00     61281.70
   89.25        2971.50           1509       12186.00     53176.32
   89.28        2971.75           1513        9965.00     43466.41
   89.31        2972.00           1516        8385.00     36562.32
   89.35        2972.25           1519        6724.00     29307.36
   89.38        2972.50           1523        4512.00     19650.64
   89.41        2972.75           1526        3005.00     13074.88
   89.44        2973.00           1529        1715.00      7448.05
   89.47        2973.25           1533         552.00      2376.80
   89.50        2973.50           1536         370.00      1583.34
   89.53        2973.75           1539         307.00      1308.68
   89.56        2974.00           1543         251.00      1064.55
   89.59        2974.25           1546         189.00       794.26
   89.63        2974.50           1549         154.00       641.69
   89.66        2974.75           1553          88.00       353.97
   89.69        2975.00           1556          73.00       288.58
   89.72        2975.25           1559          56.00       214.47
   89.75        2975.50           1563          45.00       166.52
   89.78        2975.75           1566          47.00       175.24
   89.81        2976.00           1569          51.00       192.68
   89.84        2976.25           1573          49.00       183.96
   89.87        2976.50           1576          45.00       166.52
   89.90        2976.75           1579          51.00       192.68
   89.93        2977.00           1583          50.00       188.32
   89.96        2977.25           1586          41.00       149.09
   89.99        2977.50           1590          56.00       214.47
   90.03        2977.75           1593          44.00       162.16
   90.06        2978.00           1596          44.00       162.16
   90.09        2978.25           1600          51.00       192.68
   90.12        2978.50           1603          52.00       197.04
   90.15        2978.75           1606          51.00       192.68
   90.18        2979.00           1610          47.00       175.24
   90.21        2979.25           1613          46.00       170.88
   90.24        2979.50           1616          45.00       166.52
   90.27        2979.75           1620          51.00       192.68
   90.30        2980.00           1623          37.00       131.65
   90.33        2980.25           1626          46.00       170.88
   90.36        2980.50           1630          46.00       170.88
   90.40        2980.75           1633          43.00       157.80
   90.43        2981.00           1637          42.00       153.44
   90.46        2981.25           1640          42.00       153.44
   90.49        2981.50           1643          48.00       179.60
   90.52        2981.75           1647          39.00       140.37
   90.55        2982.00           1650          46.00       170.88
   90.58        2982.25           1653          50.00       188.32
   90.61        2982.50           1657          49.00       183.96
   90.64        2982.75           1660          48.00       179.60
   90.67        2983.00           1663          50.00       188.32
   90.70        2983.25           1667          48.00       179.60
   90.73        2983.50           1670          45.00       166.52
   90.76        2983.75           1673          43.00       157.80
   90.79        2984.00           1677          47.00       175.24
HS scan finished at 01:31:01
end
************************************************************
  HS Scan of (1) Internal mercury lamp
************************************************************
Integration time is 0.2294 seconds per sample
dh280417Manchester 53.47 2.23 2.804185pr1000
************************************************************
Dead Time -------------------------  3E-08 
Number of Cycles Used -------------  4 
Starting Wavelength (Angstroms) ---  2950 
Final Wavelength (Angstoms) -------  2984 
Wavelength Increment (Angstroms) --  .25 
Filter Wheel #1 Position ---------- (1) Ground quartz diffuser (ND=2.32)
Filter Wheel #2 Position ---------- (1) Neutral Density 0.494



************************************************************
HS scan start time = 20:42:03
Dark Count =  7.3 


Time (GMT)  Wavelength (Ang)  Step Number  Raw Counts  Counts/Second

 1242.42        2950.00           1222          42.00       151.26
 1242.49        2950.25           1226          50.00       186.14
 1242.52        2950.50           1229          43.00       155.62
 1242.55        2950.75           1232          43.00       155.62
 1242.58        2951.00           1236          42.00       151.26
 1242.61        2951.25           1239          44.00       159.98
 1242.65        2951.50           1242          47.00       173.06
 1242.68        2951.75           1246          44.00       159.98
 1242.71        2952.00           1249          47.00       173.06
 1242.74        2952.25           1252          46.00       168.70
 1242.77        2952.50           1256          41.00       146.91
 1242.80        2952.75           1259          49.00       181.78
 1242.83        2953.00           1262          41.00       146.91
 1242.86        2953.25           1266          49.00       181.78
 1242.89        2953.50           1269          43.00       155.62
 1242.92        2953.75           1272          39.00       138.19
 1242.95        2954.00           1276          51.00       190.50
 1242.98        2954.25           1279          51.00       190.50
 1243.01        2954.50           1282          44.00       159.98
 1243.04        2954.75           1286          53.00       199.22
 1243.07        2955.00           1289          43.00       155.62
 1243.10        2955.25           1292          55.00       207.94
 1243.14        2955.50           1296          47.00       173.06
 1243.17        2955.75           1299          54.00       203.58
 1243.20        2956.00           1302          51.00       190.50
 1243.23        2956.25           1306          45.00       164.34
 1243.26        2956.50           1309          50.00       186.14
 1243.29        2956.75           1312          43.00       155.62
 1243.32        2957.00           1316          49.00       181.78
 1243.35        2957.25           1319          48.00       177.42
 1243.38        2957.50           1322          46.00       168.70
 1243.41        2957.75           1326          47.00       173.06
 1243.44        2958.00           1329          47.00       173.06
 1243.48        2958.25           1332          51.00       190.50
 1243.51        2958.50           1336          42.00       151.26
 1243.54        2958.75           1339          48.00       177.42
 1243.57        2959.00           1342          48.00       177.42
 1243.60        2959.25           1346          47.00       173.06
 1243.63        2959.50           1349          53.00       199.22
 1243.66        2959.75           1352          66.00       255.89
 1243.69        2960.00           1356          95.00       382.31
 1243.72        2960.25           1359         130.00       534.88
 1243.75        2960.50           1362         170.00       709.26
 1243.78        2960.75           1366         233.00       983.90
 1243.81        2961.00           1369         279.00      1184.44
 1243.84        2961.25           1372         325.00      1384.97
 1243.87        2961.50           1376         421.00      1803.50
 1243.90        2961.75           1379         547.00      2352.83
 1243.93        2962.00           1382        1015.00      4393.34
 1243.97        2962.25           1386        2586.00     11244.86
 1244.00        2962.50           1389        4316.00     18793.07
 1244.03        2962.75           1392        5870.00     25576.29
 1244.06        2963.00           1396        8018.00     34956.87
 1244.09        2963.25           1399        9522.00     41528.17
 1244.12        2963.50           1402       11261.00     49129.47
 1244.15        2963.75           1406       13583.00     59284.51
 1244.18        2964.00           1409       15129.00     66049.23
 1244.21        2964.25           1412       17032.00     74379.81
 1244.25        2964.50           1416       19369.00     84616.00
 1244.28        2964.75           1419       21057.00     92013.46
 1244.31        2965.00           1422       22831.00     99791.33
 1244.34        2965.25           1426       25063.00    109582.40
 1244.37        2965.50           1429       26727.00    116885.60
 1244.40        2965.75           1432       28540.00    124846.40
 1244.43        2966.00           1436       30595.00    133874.40
 1244.46        2966.25           1439       32262.00    141201.50
 1244.49        2966.50           1442       33811.00    148012.80
 1244.53        2966.75           1446       35535.00    155596.90
 1244.56        2967.00           1449       36218.00    158602.50
 1244.59        2967.25           1452       36451.00    159627.90
 1244.62        2967.50           1456       36361.00    159231.80
 1244.65        2967.75           1459       36603.00    160296.90
 1244.68        2968.00           1462       36212.00    158576.10
 1244.71        2968.25           1466       35581.00    155799.30
 1244.74        2968.50           1469       34267.00    150018.50
 1244.77        2968.75           1472       32693.00    143096.40
 1244.80        2969.00           1476       30494.00    133430.60
 1244.83        2969.25           1479       28778.00    125891.70
 1244.87        2969.50           1482       27270.00    119269.50
 1244.90        2969.75           1486       25282.00    110543.40
 1244.93        2970.00           1489       23464.00    102567.50
 1244.96        2970.25           1492       21775.00     95160.99
 1244.99        2970.50           1496       19825.00     86614.03
 1245.02        2970.75           1499       17951.00     78404.34
 1245.05        2971.00           1502       16296.00     71157.41
 1245.08        2971.25           1506       13925.00     60780.74
 1245.11        2971.50           1509       12044.00     52553.15
 1245.14        2971.75           1513       10003.00     43630.31
 1245.18        2972.00           1516        8408.00     36660.61
 1245.21        2972.25           1519        6639.00     28934.00
 1245.24        2972.50           1523        4603.00     20045.62
 1245.27        2972.75           1526        3043.00     13238.47
 1245.30        2973.00           1529        1648.00      7153.67
 1245.33        2973.25           1533         581.00      2501.06
 1245.36        2973.50           1536         360.00      1537.56
 1245.39        2973.75           1539         302.00      1284.71
 1245.42        2974.00           1543         237.00      1001.34
 1245.46        2974.25           1546         193.00       809.52
 1245.49        2974.50           1549         136.00       561.04
 1245.52        2974.75           1553          90.00       360.51
 1245.55        2975.00           1556          79.00       312.56
 1245.58        2975.25           1559          56.00       212.29
 1245.61        2975.50           1563          51.00       190.50
 1245.64        2975.75           1566          51.00       190.50
 1245.67        2976.00           1569          48.00       177.42
 1245.70        2976.25           1573          46.00       168.70
 1245.73        2976.50           1576          44.00       159.98
 1245.76        2976.75           1579          43.00       155.62
 1245.79        2977.00           1583          48.00       177.42
 1245.82        2977.25           1586          52.00       194.86
 1245.85        2977.50           1590          51.00       190.50
 1245.88        2977.75           1593          42.00       151.26
 1245.91        2978.00           1596          48.00       177.42
 1245.94        2978.25           1600          47.00       173.06
 1245.98        2978.50           1603          48.00       177.42
 1246.01        2978.75           1606          50.00       186.14
 1246.04        2979.00           1610          44.00       159.98
 1246.07        2979.25           1613          46.00       168.70
 1246.10        2979.50           1616          50.00       186.14
 1246.13        2979.75           1620          43.00       155.62
 1246.16        2980.00           1623          43.00       155.62
 1246.19        2980.25           1626          52.00       194.86
 1246.22        2980.50           1630          48.00       177.42
 1246.25        2980.75           1633          44.00       159.98
 1246.28        2981.00           1637          51.00       190.50
 1246.32        2981.25           1640          50.00       186.14
 1246.35        2981.50           1643          48.00       177.42
 1246.38        2981.75           1647          39.00       138.19
 1246.41        2982.00           1650          38.00       133.83
 1246.44        2982.25           1653          43.00       155.62
 1246.47        2982.50           1657          44.00       159.98
 1246.50        2982.75           1660          43.00       155.62
 1246.53        2983.00           1663          42.00       151.26
 1246.56        2983.25           1667          49.00       181.78
 1246.59        2983.50           1670          54.00       203.58
 1246.63        2983.75           1673          44.00       159.98
 1246.66        2984.00           1677          39.00       138.19
HS scan finished at 20:46:52
end
