************************************************************
  HS Scan of (1) Internal mercury lamp
************************************************************
Integration time is 0.2294 seconds per sample
dh280418Manchester 53.47 2.23 2.804185pr1000
************************************************************
Dead Time -------------------------  3E-08 
Number of Cycles Used -------------  4 
Starting Wavelength (Angstroms) ---  2950 
Final Wavelength (Angstoms) -------  2984 
Wavelength Increment (Angstroms) --  .25 
Filter Wheel #1 Position ---------- (1) Ground quartz diffuser (ND=2.32)
Filter Wheel #2 Position ---------- (1) Neutral Density 0.494



************************************************************
HS scan start time = 01:20:30
Dark Count =  5.1 


Time (GMT)  Wavelength (Ang)  Step Number  Raw Counts  Counts/Second

   80.87        2950.00           1222          59.00       234.96
   80.93        2950.25           1226          62.00       248.04
   80.96        2950.50           1229          61.00       243.68
   80.99        2950.75           1232          63.00       252.40
   81.03        2951.00           1236          67.00       269.84
   81.06        2951.25           1239          50.00       195.73
   81.09        2951.50           1242          56.00       221.88
   81.12        2951.75           1246          64.00       256.76
   81.15        2952.00           1249          57.00       226.24
   81.18        2952.25           1252          57.00       226.24
   81.21        2952.50           1256          61.00       243.68
   81.24        2952.75           1259          55.00       217.53
   81.27        2953.00           1262          54.00       213.17
   81.30        2953.25           1266          62.00       248.04
   81.33        2953.50           1269          66.00       265.48
   81.36        2953.75           1272          66.00       265.48
   81.40        2954.00           1276          65.00       261.12
   81.43        2954.25           1279          54.00       213.17
   81.46        2954.50           1282          64.00       256.76
   81.49        2954.75           1286          60.00       239.32
   81.52        2955.00           1289          66.00       265.48
   81.55        2955.25           1292          63.00       252.40
   81.58        2955.50           1296          58.00       230.60
   81.61        2955.75           1299          54.00       213.17
   81.64        2956.00           1302          60.00       239.32
   81.67        2956.25           1306          57.00       226.24
   81.70        2956.50           1309          66.00       265.48
   81.73        2956.75           1312          52.00       204.45
   81.76        2957.00           1316          61.00       243.68
   81.79        2957.25           1319          48.00       187.01
   81.83        2957.50           1322          56.00       221.88
   81.86        2957.75           1326          57.00       226.24
   81.89        2958.00           1329          53.00       208.81
   81.92        2958.25           1332          63.00       252.40
   81.95        2958.50           1336          55.00       217.53
   81.98        2958.75           1339          53.00       208.81
   82.01        2959.00           1342          55.00       217.53
   82.04        2959.25           1346          69.00       278.56
   82.07        2959.50           1349          69.00       278.56
   82.10        2959.75           1352          94.00       387.54
   82.13        2960.00           1356         119.00       496.52
   82.16        2960.25           1359         155.00       653.46
   82.19        2960.50           1362         201.00       853.99
   82.23        2960.75           1366         240.00      1024.01
   82.26        2961.00           1369         269.00      1150.43
   82.29        2961.25           1372         312.00      1337.89
   82.32        2961.50           1376         387.00      1664.86
   82.35        2961.75           1379         480.00      2070.31
   82.38        2962.00           1382         846.00      3666.05
   82.41        2962.25           1386        2232.00      9710.33
   82.44        2962.50           1389        3614.00     15739.34
   82.47        2962.75           1392        5026.00     21901.48
   82.51        2963.00           1396        7040.00     30694.77
   82.54        2963.25           1399        8637.00     37670.72
   82.57        2963.50           1402       10076.00     43958.99
   82.60        2963.75           1406       12189.00     53196.87
   82.63        2964.00           1409       13794.00     60217.24
   82.66        2964.25           1412       15261.00     66636.57
   82.69        2964.50           1416       17264.00     75405.35
   82.72        2964.75           1419       18636.00     81414.40
   82.75        2965.00           1422       20251.00     88490.50
   82.78        2965.25           1426       22436.00     98068.84
   82.81        2965.50           1429       23708.00    103647.40
   82.85        2965.75           1432       25300.00    110632.10
   82.88        2966.00           1436       27064.00    118374.70
   82.91        2966.25           1439       28529.00    124807.80
   82.94        2966.50           1442       29966.00    131120.30
   82.97        2966.75           1446       31733.00    138885.70
   83.00        2967.00           1449       32235.00    141092.50
   83.03        2967.25           1452       32212.00    140991.40
   83.06        2967.50           1456       32316.00    141448.60
   83.09        2967.75           1459       32137.00    140661.60
   83.12        2968.00           1462       32174.00    140824.30
   83.15        2968.25           1466       31471.00    137734.10
   83.19        2968.50           1469       30277.00    132486.80
   83.22        2968.75           1472       28918.00    126516.30
   83.25        2969.00           1476       26874.00    117540.60
   83.28        2969.25           1479       25369.00    110934.90
   83.31        2969.50           1482       24041.00    105108.20
   83.34        2969.75           1486       21903.00     95731.82
   83.37        2970.00           1489       20475.00     89472.19
   83.40        2970.25           1492       19095.00     83425.19
   83.43        2970.50           1496       17140.00     74862.37
   83.46        2970.75           1499       15631.00     68256.02
   83.50        2971.00           1502       14180.00     61906.07
   83.53        2971.25           1506       12178.00     53148.76
   83.56        2971.50           1509       10734.00     46835.17
   83.59        2971.75           1513        8873.00     38701.84
   83.62        2972.00           1516        7357.00     32079.25
   83.65        2972.25           1519        5812.00     25332.67
   83.68        2972.50           1523        3929.00     17113.84
   83.71        2972.75           1526        2532.00     11018.90
   83.74        2973.00           1529        1258.00      5462.53
   83.78        2973.25           1533         476.00      2052.87
   83.81        2973.50           1536         318.00      1364.05
   83.84        2973.75           1539         249.00      1063.24
   83.87        2974.00           1543         226.00       962.97
   83.90        2974.25           1546         147.00       618.58
   83.93        2974.50           1549         132.00       553.19
   83.96        2974.75           1553          85.00       348.30
   83.99        2975.00           1556          71.00       287.27
   84.02        2975.25           1559          65.00       261.12
   84.05        2975.50           1563          52.00       204.45
   84.08        2975.75           1566          56.00       221.88
   84.11        2976.00           1569          50.00       195.73
   84.14        2976.25           1573          61.00       243.68
   84.17        2976.50           1576          57.00       226.24
   84.20        2976.75           1579          58.00       230.60
   84.23        2977.00           1583          54.00       213.17
   84.27        2977.25           1586          60.00       239.32
   84.30        2977.50           1590          61.00       243.68
   84.33        2977.75           1593          63.00       252.40
   84.36        2978.00           1596          55.00       217.53
   84.39        2978.25           1600          55.00       217.53
   84.42        2978.50           1603          62.00       248.04
   84.45        2978.75           1606          52.00       204.45
   84.48        2979.00           1610          62.00       248.04
   84.51        2979.25           1613          55.00       217.53
   84.54        2979.50           1616          54.00       213.17
   84.57        2979.75           1620          53.00       208.81
   84.60        2980.00           1623          54.00       213.17
   84.63        2980.25           1626          54.00       213.17
   84.66        2980.50           1630          55.00       217.53
   84.69        2980.75           1633          59.00       234.96
   84.72        2981.00           1637          57.00       226.24
   84.75        2981.25           1640          52.00       204.45
   84.78        2981.50           1643          50.00       195.73
   84.82        2981.75           1647          56.00       221.88
   84.85        2982.00           1650          47.00       182.65
   84.88        2982.25           1653          54.00       213.17
   84.91        2982.50           1657          52.00       204.45
   84.94        2982.75           1660          53.00       208.81
   84.97        2983.00           1663          52.00       204.45
   85.00        2983.25           1667          53.00       208.81
   85.03        2983.50           1670          56.00       221.88
   85.06        2983.75           1673          41.00       156.50
   85.09        2984.00           1677          55.00       217.53
HS scan finished at 01:25:18
end
************************************************************
  HS Scan of (1) Internal mercury lamp
************************************************************
Integration time is 0.2294 seconds per sample
dh280418Manchester 53.47 2.23 2.804185pr1000
************************************************************
Dead Time -------------------------  3E-08 
Number of Cycles Used -------------  4 
Starting Wavelength (Angstroms) ---  2950 
Final Wavelength (Angstoms) -------  2984 
Wavelength Increment (Angstroms) --  .25 
Filter Wheel #1 Position ---------- (1) Ground quartz diffuser (ND=2.32)
Filter Wheel #2 Position ---------- (1) Neutral Density 0.494



************************************************************
HS scan start time = 20:42:01
Dark Count =  7.4 


Time (GMT)  Wavelength (Ang)  Step Number  Raw Counts  Counts/Second

 1242.39        2950.00           1222          61.00       233.65
 1242.46        2950.25           1226          61.00       233.65
 1242.49        2950.50           1229          63.00       242.37
 1242.52        2950.75           1232          59.00       224.94
 1242.55        2951.00           1236          56.00       211.86
 1242.58        2951.25           1239          56.00       211.86
 1242.61        2951.50           1242          69.00       268.53
 1242.64        2951.75           1246          65.00       251.09
 1242.67        2952.00           1249          52.00       194.42
 1242.70        2952.25           1252          61.00       233.65
 1242.73        2952.50           1256          67.00       259.81
 1242.76        2952.75           1259          60.00       229.30
 1242.80        2953.00           1262          61.00       233.65
 1242.83        2953.25           1266          57.00       216.22
 1242.86        2953.50           1269          57.00       216.22
 1242.89        2953.75           1272          60.00       229.30
 1242.92        2954.00           1276          63.00       242.37
 1242.95        2954.25           1279          66.00       255.45
 1242.98        2954.50           1282          57.00       216.22
 1243.01        2954.75           1286          53.00       198.78
 1243.04        2955.00           1289          69.00       268.53
 1243.07        2955.25           1292          68.00       264.17
 1243.10        2955.50           1296          53.00       198.78
 1243.13        2955.75           1299          57.00       216.22
 1243.16        2956.00           1302          61.00       233.65
 1243.19        2956.25           1306          57.00       216.22
 1243.22        2956.50           1309          53.00       198.78
 1243.26        2956.75           1312          52.00       194.42
 1243.29        2957.00           1316          58.00       220.58
 1243.32        2957.25           1319          62.00       238.01
 1243.35        2957.50           1322          61.00       233.65
 1243.38        2957.75           1326          57.00       216.22
 1243.41        2958.00           1329          60.00       229.30
 1243.44        2958.25           1332          62.00       238.01
 1243.47        2958.50           1336          60.00       229.30
 1243.50        2958.75           1339         112.00       455.98
 1243.53        2959.00           1342          58.00       220.58
 1243.56        2959.25           1346          57.00       216.22
 1243.59        2959.50           1349          63.00       242.37
 1243.62        2959.75           1352          83.00       329.56
 1243.66        2960.00           1356         121.00       495.21
 1243.69        2960.25           1359         139.00       573.68
 1243.72        2960.50           1362         176.00       734.98
 1243.75        2960.75           1366         227.00       957.31
 1243.78        2961.00           1369         266.00      1127.33
 1243.81        2961.25           1372         297.00      1262.47
 1243.84        2961.50           1376         387.00      1654.83
 1243.87        2961.75           1379         521.00      2239.03
 1243.90        2962.00           1382        1243.00      5387.10
 1243.93        2962.25           1386        2898.00     12605.47
 1243.96        2962.50           1389        4225.00     18395.50
 1243.99        2962.75           1392        5646.00     24597.92
 1244.03        2963.00           1396        7522.00     32789.87
 1244.06        2963.25           1399        8996.00     39229.23
 1244.09        2963.50           1402       10392.00     45330.13
 1244.12        2963.75           1406       12570.00     54853.06
 1244.15        2964.00           1409       13989.00     61060.31
 1244.18        2964.25           1412       15673.00     68429.79
 1244.21        2964.50           1416       17649.00     77081.27
 1244.24        2964.75           1419       19093.00     83406.35
 1244.27        2965.00           1422       20530.00     89703.16
 1244.30        2965.25           1426       22649.00     98992.77
 1244.33        2965.50           1429       23980.00    104830.50
 1244.36        2965.75           1432       25600.00    111938.50
 1244.40        2966.00           1436       27660.00    120981.50
 1244.43        2966.25           1439       28870.00    126295.40
 1244.46        2966.50           1442       30283.00    132503.00
 1244.49        2966.75           1446       31792.00    139134.90
 1244.52        2967.00           1449       31955.00    139851.40
 1244.55        2967.25           1452       32022.00    140146.00
 1244.58        2967.50           1456       32028.00    140172.40
 1244.61        2967.75           1459       32104.00    140506.50
 1244.65        2968.00           1462       31845.00    139367.90
 1244.68        2968.25           1466       31104.00    136110.90
 1244.71        2968.50           1469       29758.00    130196.30
 1244.74        2968.75           1472       28373.00    124112.50
 1244.77        2969.00           1476       26575.00    116217.90
 1244.80        2969.25           1479       25254.00    110420.10
 1244.83        2969.50           1482       23651.00    103387.30
 1244.86        2969.75           1486       21730.00     94963.26
 1244.89        2970.00           1489       20344.00     88887.98
 1244.92        2970.25           1492       18754.00     81921.24
 1244.96        2970.50           1496       16985.00     74173.59
 1244.99        2970.75           1499       15505.00     67694.45
 1245.02        2971.00           1502       13952.00     60898.43
 1245.05        2971.25           1506       11948.00     52132.91
 1245.08        2971.50           1509       10440.00     45539.94
 1245.11        2971.75           1513        8631.00     37634.44
 1245.14        2972.00           1516        7079.00     30855.06
 1245.17        2972.25           1519        5799.00     25265.88
 1245.20        2972.50           1523        3838.00     16706.72
 1245.23        2972.75           1526        2365.00     10280.42
 1245.26        2973.00           1529        1235.00      5352.21
 1245.29        2973.25           1533         443.00      1898.97
 1245.32        2973.50           1536         323.00      1375.82
 1245.36        2973.75           1539         261.00      1105.53
 1245.39        2974.00           1543         233.00       983.46
 1245.42        2974.25           1546         177.00       739.34
 1245.45        2974.50           1549         134.00       551.88
 1245.48        2974.75           1553          96.00       386.23
 1245.51        2975.00           1556          76.00       299.04
 1245.54        2975.25           1559          60.00       229.30
 1245.57        2975.50           1563          64.00       246.73
 1245.60        2975.75           1566          63.00       242.37
 1245.63        2976.00           1569          50.00       185.70
 1245.66        2976.25           1573          58.00       220.58
 1245.69        2976.50           1576          57.00       216.22
 1245.72        2976.75           1579          56.00       211.86
 1245.75        2977.00           1583          58.00       220.58
 1245.79        2977.25           1586          77.00       303.40
 1245.82        2977.50           1590          55.00       207.50
 1245.85        2977.75           1593          51.00       190.06
 1245.88        2978.00           1596          50.00       185.70
 1245.91        2978.25           1600          54.00       203.14
 1245.94        2978.50           1603          66.00       255.45
 1245.97        2978.75           1606          56.00       211.86
 1246.00        2979.00           1610          66.00       255.45
 1246.03        2979.25           1613          52.00       194.42
 1246.06        2979.50           1616          55.00       207.50
 1246.09        2979.75           1620          62.00       238.01
 1246.12        2980.00           1623          54.00       203.14
 1246.15        2980.25           1626          47.00       172.63
 1246.19        2980.50           1630          50.00       185.70
 1246.22        2980.75           1633          53.00       198.78
 1246.25        2981.00           1637          55.00       207.50
 1246.28        2981.25           1640          58.00       220.58
 1246.31        2981.50           1643          56.00       211.86
 1246.34        2981.75           1647          60.00       229.30
 1246.37        2982.00           1650          55.00       207.50
 1246.40        2982.25           1653          58.00       220.58
 1246.43        2982.50           1657          57.00       216.22
 1246.46        2982.75           1660          57.00       216.22
 1246.49        2983.00           1663          49.00       181.34
 1246.52        2983.25           1667          62.00       238.01
 1246.56        2983.50           1670          51.00       190.06
 1246.59        2983.75           1673          55.00       207.50
 1246.62        2984.00           1677          60.00       229.30
HS scan finished at 20:46:50
end
