************************************************************
  HS Scan of (1) Internal mercury lamp
************************************************************
Integration time is 0.2294 seconds per sample
dh290418Manchester 53.47 2.23 2.804185pr1000
************************************************************
Dead Time -------------------------  3E-08 
Number of Cycles Used -------------  4 
Starting Wavelength (Angstroms) ---  2950 
Final Wavelength (Angstoms) -------  2984 
Wavelength Increment (Angstroms) --  .25 
Filter Wheel #1 Position ---------- (1) Ground quartz diffuser (ND=2.32)
Filter Wheel #2 Position ---------- (1) Neutral Density 0.494



************************************************************
HS scan start time = 01:22:29
Dark Count =  5.8 


Time (GMT)  Wavelength (Ang)  Step Number  Raw Counts  Counts/Second

   82.85        2950.00           1222          53.00       205.76
   82.91        2950.25           1226          62.00       244.99
   82.94        2950.50           1229          58.00       227.55
   82.98        2950.75           1232          64.00       253.71
   83.01        2951.00           1236          60.00       236.27
   83.04        2951.25           1239          58.00       227.55
   83.07        2951.50           1242          58.00       227.55
   83.10        2951.75           1246          66.00       262.43
   83.13        2952.00           1249          56.00       218.83
   83.16        2952.25           1252          60.00       236.27
   83.19        2952.50           1256          53.00       205.76
   83.22        2952.75           1259          53.00       205.76
   83.25        2953.00           1262          53.00       205.76
   83.28        2953.25           1266          59.00       231.91
   83.31        2953.50           1269          57.00       223.19
   83.34        2953.75           1272          64.00       253.71
   83.37        2954.00           1276          58.00       227.55
   83.41        2954.25           1279          56.00       218.83
   83.44        2954.50           1282          60.00       236.27
   83.47        2954.75           1286          57.00       223.19
   83.50        2955.00           1289          63.00       249.35
   83.53        2955.25           1292          60.00       236.27
   83.56        2955.50           1296          63.00       249.35
   83.59        2955.75           1299          55.00       214.47
   83.62        2956.00           1302          56.00       218.83
   83.65        2956.25           1306          57.00       223.19
   83.68        2956.50           1309          54.00       210.11
   83.71        2956.75           1312          57.00       223.19
   83.74        2957.00           1316          72.00       288.58
   83.77        2957.25           1319          58.00       227.55
   83.80        2957.50           1322          64.00       253.71
   83.84        2957.75           1326          65.00       258.07
   83.87        2958.00           1329          64.00       253.71
   83.90        2958.25           1332          58.00       227.55
   83.93        2958.50           1336          52.00       201.40
   83.96        2958.75           1339          60.00       236.27
   83.99        2959.00           1342          56.00       218.83
   84.02        2959.25           1346          63.00       249.35
   84.05        2959.50           1349          64.00       253.71
   84.08        2959.75           1352          75.00       301.66
   84.11        2960.00           1356         101.00       415.00
   84.14        2960.25           1359         144.00       602.45
   84.18        2960.50           1362         167.00       702.72
   84.21        2960.75           1366         207.00       877.09
   84.24        2961.00           1369         239.00      1016.60
   84.27        2961.25           1372         271.00      1156.10
   84.30        2961.50           1376         324.00      1387.15
   84.33        2961.75           1379         446.00      1919.03
   84.36        2962.00           1382         826.00      3575.80
   84.39        2962.25           1386        2354.00     10239.41
   84.42        2962.50           1389        3711.00     16159.53
   84.45        2962.75           1392        5021.00     21876.60
   84.48        2963.00           1396        6876.00     29975.51
   84.51        2963.25           1399        8414.00     36693.38
   84.55        2963.50           1402        9900.00     43186.69
   84.58        2963.75           1406       11956.00     52174.90
   84.61        2964.00           1409       13588.00     59312.95
   84.64        2964.25           1412       15130.00     66060.18
   84.67        2964.50           1416       17004.00     74263.78
   84.70        2964.75           1419       18579.00     81161.63
   84.73        2965.00           1422       20063.00     87663.55
   84.76        2965.25           1426       22074.00     96478.49
   84.79        2965.50           1429       23552.00    102960.10
   84.82        2965.75           1432       24874.00    108759.70
   84.85        2966.00           1436       26732.00    116914.10
   84.89        2966.25           1439       28284.00    123728.70
   84.92        2966.50           1442       29654.00    129746.40
   84.95        2966.75           1446       31345.00    137177.20
   84.98        2967.00           1449       32099.00    140491.50
   85.01        2967.25           1452       32266.00    141225.70
   85.04        2967.50           1456       32184.00    140865.20
   85.07        2967.75           1459       32237.00    141098.20
   85.10        2968.00           1462       32146.00    140698.10
   85.13        2968.25           1466       31503.00    137871.60
   85.17        2968.50           1469       30491.00    133424.00
   85.20        2968.75           1472       29159.00    127571.90
   85.23        2969.00           1476       27279.00    119315.60
   85.26        2969.25           1479       25882.00    113183.10
   85.29        2969.50           1482       24470.00    106987.10
   85.32        2969.75           1486       22354.00     97706.21
   85.35        2970.00           1489       20740.00     90630.56
   85.38        2970.25           1492       19431.00     84894.22
   85.41        2970.50           1496       17369.00     75862.08
   85.44        2970.75           1499       15944.00     69623.05
   85.47        2971.00           1502       14363.00     62703.73
   85.50        2971.25           1506       12515.00     54619.51
   85.54        2971.50           1509       10835.00     47273.63
   85.57        2971.75           1513        9004.00     39271.18
   85.60        2972.00           1516        7518.00     32779.39
   85.63        2972.25           1519        6028.00     26272.66
   85.66        2972.50           1523        4026.00     17534.07
   85.69        2972.75           1526        2715.00     11814.13
   85.72        2973.00           1529        1485.00      6449.37
   85.75        2973.25           1533         513.00      2211.13
   85.78        2973.50           1536         352.00      1509.22
   85.82        2973.75           1539         270.00      1151.74
   85.85        2974.00           1543         243.00      1034.03
   85.88        2974.25           1546         174.00       733.23
   85.91        2974.50           1549         133.00       554.50
   85.94        2974.75           1553         104.00       428.08
   85.97        2975.00           1556          80.00       323.46
   86.00        2975.25           1559          72.00       288.58
   86.03        2975.50           1563          60.00       236.27
   86.06        2975.75           1566          67.00       266.79
   86.09        2976.00           1569          53.00       205.76
   86.12        2976.25           1573          54.00       210.11
   86.15        2976.50           1576          56.00       218.83
   86.19        2976.75           1579          53.00       205.76
   86.22        2977.00           1583          59.00       231.91
   86.25        2977.25           1586          62.00       244.99
   86.28        2977.50           1590          54.00       210.11
   86.31        2977.75           1593          61.00       240.63
   86.34        2978.00           1596          57.00       223.19
   86.37        2978.25           1600          55.00       214.47
   86.40        2978.50           1603          54.00       210.11
   86.43        2978.75           1606          56.00       218.83
   86.46        2979.00           1610          54.00       210.11
   86.49        2979.25           1613          56.00       218.83
   86.53        2979.50           1616          58.00       227.55
   86.56        2979.75           1620          55.00       214.47
   86.59        2980.00           1623          51.00       197.04
   86.62        2980.25           1626          65.00       258.07
   86.65        2980.50           1630          61.00       240.63
   86.68        2980.75           1633          48.00       183.96
   86.71        2981.00           1637          56.00       218.83
   86.74        2981.25           1640          51.00       197.04
   86.77        2981.50           1643          70.00       279.86
   86.80        2981.75           1647          58.00       227.55
   86.83        2982.00           1650          50.00       192.68
   86.86        2982.25           1653          60.00       236.27
   86.89        2982.50           1657          51.00       197.04
   86.92        2982.75           1660          62.00       244.99
   86.95        2983.00           1663          57.00       223.19
   86.99        2983.25           1667          49.00       188.32
   87.02        2983.50           1670          52.00       201.40
   87.05        2983.75           1673          55.00       214.47
   87.08        2984.00           1677          51.00       197.04
HS scan finished at 01:27:18
end
************************************************************
  HS Scan of (1) Internal mercury lamp
************************************************************
Integration time is 0.2294 seconds per sample
dh290418Manchester 53.47 2.23 2.804185pr1000
************************************************************
Dead Time -------------------------  3E-08 
Number of Cycles Used -------------  4 
Starting Wavelength (Angstroms) ---  2950 
Final Wavelength (Angstoms) -------  2984 
Wavelength Increment (Angstroms) --  .25 
Filter Wheel #1 Position ---------- (1) Ground quartz diffuser (ND=2.32)
Filter Wheel #2 Position ---------- (1) Neutral Density 0.494



************************************************************
HS scan start time = 20:42:01
Dark Count =  6.9 


Time (GMT)  Wavelength (Ang)  Step Number  Raw Counts  Counts/Second

 1242.38        2950.00           1222          57.00       218.40
 1242.45        2950.25           1226          53.00       200.96
 1242.48        2950.50           1229          63.00       244.55
 1242.51        2950.75           1232          54.00       205.32
 1242.54        2951.00           1236          69.00       270.71
 1242.57        2951.25           1239          60.00       231.48
 1242.60        2951.50           1242          58.00       222.76
 1242.63        2951.75           1246          57.00       218.40
 1242.66        2952.00           1249          63.00       244.55
 1242.69        2952.25           1252          52.00       196.60
 1242.72        2952.50           1256          54.00       205.32
 1242.75        2952.75           1259          67.00       261.99
 1242.78        2953.00           1262          62.00       240.19
 1242.81        2953.25           1266          56.00       214.04
 1242.84        2953.50           1269          58.00       222.76
 1242.88        2953.75           1272          64.00       248.91
 1242.91        2954.00           1276          56.00       214.04
 1242.94        2954.25           1279          56.00       214.04
 1242.97        2954.50           1282          60.00       231.48
 1243.00        2954.75           1286          55.00       209.68
 1243.03        2955.00           1289          60.00       231.48
 1243.06        2955.25           1292          62.00       240.19
 1243.09        2955.50           1296          53.00       200.96
 1243.12        2955.75           1299          56.00       214.04
 1243.15        2956.00           1302          59.00       227.12
 1243.18        2956.25           1306          62.00       240.19
 1243.22        2956.50           1309          53.00       200.96
 1243.25        2956.75           1312          52.00       196.60
 1243.28        2957.00           1316          56.00       214.04
 1243.31        2957.25           1319          61.00       235.83
 1243.34        2957.50           1322          65.00       253.27
 1243.37        2957.75           1326          56.00       214.04
 1243.40        2958.00           1329          61.00       235.83
 1243.43        2958.25           1332          60.00       231.48
 1243.46        2958.50           1336          62.00       240.19
 1243.49        2958.75           1339          66.00       257.63
 1243.52        2959.00           1342          60.00       231.48
 1243.55        2959.25           1346          65.00       253.27
 1243.58        2959.50           1349          68.00       266.35
 1243.62        2959.75           1352          70.00       275.07
 1243.65        2960.00           1356         107.00       436.36
 1243.68        2960.25           1359         150.00       623.81
 1243.71        2960.50           1362         167.00       697.92
 1243.74        2960.75           1366         221.00       933.33
 1243.77        2961.00           1369         258.00      1094.63
 1243.80        2961.25           1372         299.00      1273.37
 1243.83        2961.50           1376         407.00      1744.21
 1243.86        2961.75           1379         730.00      3152.43
 1243.89        2962.00           1382        1609.00      6985.33
 1243.92        2962.25           1386        3405.00     14819.58
 1243.95        2962.50           1389        4804.00     20924.64
 1243.99        2962.75           1392        6122.00     26678.27
 1244.02        2963.00           1396        8180.00     35666.31
 1244.05        2963.25           1399        9496.00     41416.29
 1244.08        2963.50           1402       11063.00     48265.57
 1244.11        2963.75           1406       13246.00     57812.03
 1244.14        2964.00           1409       14919.00     65131.94
 1244.17        2964.25           1412       16289.00     71128.52
 1244.20        2964.50           1416       18296.00     79917.18
 1244.23        2964.75           1419       19786.00     86444.91
 1244.27        2965.00           1422       21212.00     92694.64
 1244.30        2965.25           1426       23447.00    102494.70
 1244.33        2965.50           1429       24910.00    108912.80
 1244.36        2965.75           1432       26294.00    114986.60
 1244.39        2966.00           1436       28198.00    123346.20
 1244.42        2966.25           1439       29615.00    129570.30
 1244.45        2966.50           1442       30851.00    135001.20
 1244.48        2966.75           1446       31966.00    139902.00
 1244.51        2967.00           1449       32240.00    141106.50
 1244.55        2967.25           1452       32150.00    140710.90
 1244.58        2967.50           1456       32070.00    140359.20
 1244.61        2967.75           1459       32012.00    140104.20
 1244.64        2968.00           1462       31951.00    139836.10
 1244.67        2968.25           1466       30573.00    133779.50
 1244.70        2968.50           1469       29353.00    128419.30
 1244.73        2968.75           1472       27930.00    122169.30
 1244.76        2969.00           1476       26086.00    114073.70
 1244.79        2969.25           1479       24553.00    107346.50
 1244.83        2969.50           1482       22890.00    100051.80
 1244.86        2969.75           1486       20899.00     91322.66
 1244.89        2970.00           1489       19600.00     85629.89
 1244.92        2970.25           1492       18006.00     78646.99
 1244.95        2970.50           1496       16176.00     70633.81
 1244.98        2970.75           1499       14732.00     64313.60
 1245.01        2971.00           1502       13256.00     57855.79
 1245.04        2971.25           1506       11162.00     48698.39
 1245.07        2971.50           1509        9614.00     41931.97
 1245.10        2971.75           1513        7771.00     33879.67
 1245.13        2972.00           1516        6313.00     27512.24
 1245.17        2972.25           1519        4913.00     21400.40
 1245.20        2972.50           1523        3026.00     13166.06
 1245.23        2972.75           1526        1515.00      6575.40
 1245.26        2973.00           1529         664.00      2864.68
 1245.29        2973.25           1533         361.00      1543.66
 1245.32        2973.50           1536         302.00      1286.45
 1245.35        2973.75           1539         238.00      1007.44
 1245.38        2974.00           1543         202.00       850.50
 1245.41        2974.25           1546         150.00       623.81
 1245.44        2974.50           1549         116.00       475.60
 1245.47        2974.75           1553          74.00       292.50
 1245.50        2975.00           1556          60.00       231.48
 1245.53        2975.25           1559          66.00       257.63
 1245.57        2975.50           1563          71.00       279.43
 1245.60        2975.75           1566          55.00       209.68
 1245.63        2976.00           1569          61.00       235.83
 1245.66        2976.25           1573          54.00       205.32
 1245.69        2976.50           1576          57.00       218.40
 1245.72        2976.75           1579          62.00       240.19
 1245.75        2977.00           1583          61.00       235.83
 1245.78        2977.25           1586          58.00       222.76
 1245.81        2977.50           1590          55.00       209.68
 1245.84        2977.75           1593          61.00       235.83
 1245.87        2978.00           1596          57.00       218.40
 1245.90        2978.25           1600          54.00       205.32
 1245.94        2978.50           1603          59.00       227.12
 1245.97        2978.75           1606          58.00       222.76
 1246.00        2979.00           1610          47.00       174.80
 1246.03        2979.25           1613          53.00       200.96
 1246.06        2979.50           1616          55.00       209.68
 1246.09        2979.75           1620          58.00       222.76
 1246.12        2980.00           1623          55.00       209.68
 1246.15        2980.25           1626          58.00       222.76
 1246.18        2980.50           1630          53.00       200.96
 1246.21        2980.75           1633          49.00       183.52
 1246.24        2981.00           1637          57.00       218.40
 1246.27        2981.25           1640          53.00       200.96
 1246.30        2981.50           1643          60.00       231.48
 1246.33        2981.75           1647          59.00       227.12
 1246.36        2982.00           1650          67.00       261.99
 1246.40        2982.25           1653          54.00       205.32
 1246.43        2982.50           1657          56.00       214.04
 1246.46        2982.75           1660          42.00       153.01
 1246.49        2983.00           1663          55.00       209.68
 1246.52        2983.25           1667          50.00       187.88
 1246.55        2983.50           1670          55.00       209.68
 1246.58        2983.75           1673          61.00       235.83
 1246.61        2984.00           1677          61.00       235.83
HS scan finished at 20:46:50
end
