************************************************************
  HS Scan of (1) Internal mercury lamp
************************************************************
Integration time is 0.2294 seconds per sample
dh250418Manchester 53.47 2.23 2.804185pr1000
************************************************************
Dead Time -------------------------  3E-08 
Number of Cycles Used -------------  4 
Starting Wavelength (Angstroms) ---  2950 
Final Wavelength (Angstoms) -------  2984 
Wavelength Increment (Angstroms) --  .25 
Filter Wheel #1 Position ---------- (1) Ground quartz diffuser (ND=2.32)
Filter Wheel #2 Position ---------- (1) Neutral Density 0.494



************************************************************
HS scan start time = 01:35:03
Dark Count =  7.3 


Time (GMT)  Wavelength (Ang)  Step Number  Raw Counts  Counts/Second

   95.42        2950.00           1222          63.00       242.81
   95.48        2950.25           1226          60.00       229.73
   95.51        2950.50           1229          61.00       234.09
   95.54        2950.75           1232          56.00       212.29
   95.58        2951.00           1236          74.00       290.76
   95.61        2951.25           1239          61.00       234.09
   95.64        2951.50           1242          57.00       216.65
   95.67        2951.75           1246          60.00       229.73
   95.70        2952.00           1249          64.00       247.17
   95.73        2952.25           1252          59.00       225.37
   95.76        2952.50           1256          64.00       247.17
   95.79        2952.75           1259          61.00       234.09
   95.82        2953.00           1262          54.00       203.58
   95.85        2953.25           1266          67.00       260.25
   95.88        2953.50           1269          58.00       221.01
   95.91        2953.75           1272          56.00       212.29
   95.94        2954.00           1276          63.00       242.81
   95.98        2954.25           1279          56.00       212.29
   96.01        2954.50           1282          60.00       229.73
   96.04        2954.75           1286          57.00       216.65
   96.07        2955.00           1289          59.00       225.37
   96.10        2955.25           1292          58.00       221.01
   96.13        2955.50           1296          53.00       199.22
   96.16        2955.75           1299          59.00       225.37
   96.19        2956.00           1302          57.00       216.65
   96.22        2956.25           1306          59.00       225.37
   96.25        2956.50           1309          56.00       212.29
   96.28        2956.75           1312          59.00       225.37
   96.32        2957.00           1316          69.00       268.96
   96.35        2957.25           1319          62.00       238.45
   96.38        2957.50           1322          59.00       225.37
   96.41        2957.75           1326          64.00       247.17
   96.44        2958.00           1329          59.00       225.37
   96.47        2958.25           1332          60.00       229.73
   96.50        2958.50           1336          54.00       203.58
   96.53        2958.75           1339          55.00       207.94
   96.56        2959.00           1342          55.00       207.94
   96.59        2959.25           1346          66.00       255.89
   96.62        2959.50           1349          65.00       251.53
   96.65        2959.75           1352          75.00       295.12
   96.68        2960.00           1356         101.00       408.46
   96.72        2960.25           1359         136.00       561.04
   96.75        2960.50           1362         175.00       731.05
   96.78        2960.75           1366         205.00       861.84
   96.81        2961.00           1369         255.00      1079.81
   96.84        2961.25           1372         309.00      1315.22
   96.87        2961.50           1376         392.00      1677.07
   96.90        2961.75           1379         616.00      2653.66
   96.93        2962.00           1382        1349.00      5849.76
   96.96        2962.25           1386        2962.00     12885.10
   96.99        2962.50           1389        4354.00     18958.91
   97.03        2962.75           1392        5956.00     25951.76
   97.06        2963.00           1396        7828.00     34126.90
   97.09        2963.25           1399        9148.00     39893.84
   97.12        2963.50           1402       10791.00     47074.72
   97.15        2963.75           1406       12808.00     55894.43
   97.18        2964.00           1409       14564.00     63576.69
   97.21        2964.25           1412       16033.00     70006.07
   97.24        2964.50           1416       17900.00     78180.97
   97.27        2964.75           1419       19356.00     84559.05
   97.30        2965.00           1422       20985.00     91697.85
   97.33        2965.25           1426       23286.00    101786.80
   97.37        2965.50           1429       24629.00    107678.10
   97.40        2965.75           1432       26121.00    114225.50
   97.43        2966.00           1436       28046.00    122676.90
   97.46        2966.25           1439       29585.00    129436.70
   97.49        2966.50           1442       30759.00    134595.10
   97.52        2966.75           1446       31964.00    139891.40
   97.55        2967.00           1449       32153.00    140722.30
   97.58        2967.25           1452       32230.00    141060.80
   97.61        2967.50           1456       32040.00    140225.50
   97.65        2967.75           1459       32115.00    140555.30
   97.68        2968.00           1462       31934.00    139759.60
   97.71        2968.25           1466       30760.00    134599.50
   97.74        2968.50           1469       29514.00    129124.80
   97.77        2968.75           1472       28209.00    123392.70
   97.80        2969.00           1476       26255.00    114813.70
   97.83        2969.25           1479       24750.00    108209.00
   97.86        2969.50           1482       23296.00    101830.70
   97.89        2969.75           1486       21151.00     92425.49
   97.92        2970.00           1489       19713.00     86123.28
   97.96        2970.25           1492       18280.00     79845.35
   97.99        2970.50           1496       16425.00     71722.16
   98.02        2970.75           1499       14935.00     65200.21
   98.05        2971.00           1502       13458.00     58737.68
   98.08        2971.25           1506       11488.00     50121.96
   98.11        2971.50           1509       10196.00     44473.87
   98.14        2971.75           1513        8239.00     35922.30
   98.17        2972.00           1516        6730.00     29331.38
   98.20        2972.25           1519        5236.00     22808.54
   98.23        2972.50           1523        3295.00     14337.90
   98.26        2972.75           1526        1889.00      8204.72
   98.30        2973.00           1529         863.00      3730.58
   98.33        2973.25           1533         405.00      1733.74
   98.36        2973.50           1536         308.00      1310.86
   98.39        2973.75           1539         270.00      1145.20
   98.42        2974.00           1543         214.00       901.07
   98.45        2974.25           1546         161.00       670.02
   98.48        2974.50           1549         123.00       504.37
   98.51        2974.75           1553          86.00       343.07
   98.54        2975.00           1556          66.00       255.89
   98.57        2975.25           1559          61.00       234.09
   98.60        2975.50           1563          58.00       221.01
   98.63        2975.75           1566          51.00       190.50
   98.67        2976.00           1569          59.00       225.37
   98.70        2976.25           1573          52.00       194.86
   98.73        2976.50           1576          56.00       212.29
   98.76        2976.75           1579          63.00       242.81
   98.79        2977.00           1583          58.00       221.01
   98.82        2977.25           1586          57.00       216.65
   98.85        2977.50           1590          57.00       216.65
   98.88        2977.75           1593          59.00       225.37
   98.91        2978.00           1596          59.00       225.37
   98.94        2978.25           1600          57.00       216.65
   98.97        2978.50           1603          53.00       199.22
   99.00        2978.75           1606          55.00       207.94
   99.03        2979.00           1610          57.00       216.65
   99.06        2979.25           1613          48.00       177.42
   99.09        2979.50           1616          53.00       199.22
   99.12        2979.75           1620          53.00       199.22
   99.15        2980.00           1623          52.00       194.86
   99.19        2980.25           1626          46.00       168.70
   99.22        2980.50           1630          60.00       229.73
   99.25        2980.75           1633          49.00       181.78
   99.28        2981.00           1637          52.00       194.86
   99.31        2981.25           1640          50.00       186.14
   99.34        2981.50           1643          51.00       190.50
   99.37        2981.75           1647          56.00       212.29
   99.40        2982.00           1650          55.00       207.94
   99.43        2982.25           1653          59.00       225.37
   99.46        2982.50           1657          51.00       190.50
   99.49        2982.75           1660          50.00       186.14
   99.52        2983.00           1663          55.00       207.94
   99.55        2983.25           1667          51.00       190.50
   99.58        2983.50           1670          55.00       207.94
   99.62        2983.75           1673          52.00       194.86
   99.65        2984.00           1677          52.00       194.86
HS scan finished at 01:39:52
end
************************************************************
  HS Scan of (1) Internal mercury lamp
************************************************************
Integration time is 0.2294 seconds per sample
dh250418Manchester 53.47 2.23 2.804185pr1000
************************************************************
Dead Time -------------------------  3E-08 
Number of Cycles Used -------------  4 
Starting Wavelength (Angstroms) ---  2950 
Final Wavelength (Angstoms) -------  2984 
Wavelength Increment (Angstroms) --  .25 
Filter Wheel #1 Position ---------- (1) Ground quartz diffuser (ND=2.32)
Filter Wheel #2 Position ---------- (1) Neutral Density 0.494



************************************************************
HS scan start time = 20:42:04
Dark Count =  6.7 


Time (GMT)  Wavelength (Ang)  Step Number  Raw Counts  Counts/Second

 1242.43        2950.00           1222          70.00       275.94
 1242.50        2950.25           1226          55.00       210.55
 1242.53        2950.50           1229          54.00       206.19
 1242.56        2950.75           1232          55.00       210.55
 1242.59        2951.00           1236          66.00       258.50
 1242.63        2951.25           1239          59.00       227.99
 1242.66        2951.50           1242          60.00       232.35
 1242.69        2951.75           1246          58.00       223.63
 1242.72        2952.00           1249          70.00       275.94
 1242.75        2952.25           1252          58.00       223.63
 1242.78        2952.50           1256          64.00       249.78
 1242.81        2952.75           1259          59.00       227.99
 1242.84        2953.00           1262          64.00       249.78
 1242.87        2953.25           1266          58.00       223.63
 1242.90        2953.50           1269          70.00       275.94
 1242.93        2953.75           1272          60.00       232.35
 1242.96        2954.00           1276          58.00       223.63
 1242.99        2954.25           1279          61.00       236.71
 1243.03        2954.50           1282          62.00       241.07
 1243.06        2954.75           1286          60.00       232.35
 1243.09        2955.00           1289          66.00       258.50
 1243.12        2955.25           1292          59.00       227.99
 1243.15        2955.50           1296          83.00       332.61
 1243.18        2955.75           1299          60.00       232.35
 1243.21        2956.00           1302          66.00       258.50
 1243.24        2956.25           1306          60.00       232.35
 1243.27        2956.50           1309          59.00       227.99
 1243.30        2956.75           1312          55.00       210.55
 1243.33        2957.00           1316          54.00       206.19
 1243.36        2957.25           1319          50.00       188.75
 1243.39        2957.50           1322          51.00       193.11
 1243.42        2957.75           1326          62.00       241.07
 1243.46        2958.00           1329          59.00       227.99
 1243.49        2958.25           1332          59.00       227.99
 1243.52        2958.50           1336          58.00       223.63
 1243.55        2958.75           1339          55.00       210.55
 1243.58        2959.00           1342          63.00       245.42
 1243.61        2959.25           1346          63.00       245.42
 1243.64        2959.50           1349          63.00       245.42
 1243.67        2959.75           1352          73.00       289.02
 1243.70        2960.00           1356          91.00       367.48
 1243.73        2960.25           1359         120.00       493.90
 1243.76        2960.50           1362         165.00       690.08
 1243.79        2960.75           1366         217.00       916.76
 1243.82        2961.00           1369         242.00      1025.75
 1243.86        2961.25           1372         286.00      1217.57
 1243.89        2961.50           1376         347.00      1483.50
 1243.92        2961.75           1379         467.00      2006.66
 1243.95        2962.00           1382         990.00      4286.95
 1243.98        2962.25           1386        2589.00     11260.56
 1244.01        2962.50           1389        3927.00     17098.13
 1244.04        2962.75           1392        5357.00     23339.35
 1244.07        2963.00           1396        7274.00     31709.75
 1244.10        2963.25           1399        8796.00     38358.42
 1244.13        2963.50           1402       10263.00     44769.33
 1244.16        2963.75           1406       12171.00     53111.15
 1244.19        2964.00           1409       13666.00     59650.24
 1244.23        2964.25           1412       15265.00     66647.08
 1244.26        2964.50           1416       17235.00     75271.36
 1244.29        2964.75           1419       18655.00     81490.61
 1244.32        2965.00           1422       20364.00     88978.71
 1244.35        2965.25           1426       22392.00     97868.89
 1244.38        2965.50           1429       23906.00    104508.90
 1244.41        2965.75           1432       25170.00    110054.60
 1244.44        2966.00           1436       27305.00    119425.80
 1244.47        2966.25           1439       28634.00    125261.90
 1244.51        2966.50           1442       29877.00    130722.20
 1244.54        2966.75           1446       31499.00    137850.10
 1244.57        2967.00           1449       31974.00    139938.10
 1244.60        2967.25           1452       32096.00    140474.40
 1244.63        2967.50           1456       32045.00    140250.20
 1244.66        2967.75           1459       31816.00    139243.50
 1244.69        2968.00           1462       31942.00    139797.40
 1244.72        2968.25           1466       31120.00    136184.30
 1244.75        2968.50           1469       29903.00    130836.40
 1244.78        2968.75           1472       28499.00    124669.00
 1244.81        2969.00           1476       26735.00    116923.40
 1244.84        2969.25           1479       25136.00    109905.40
 1244.87        2969.50           1482       23924.00    104587.90
 1244.91        2969.75           1486       22018.00     96229.02
 1244.94        2970.00           1489       20448.00     89346.84
 1244.97        2970.25           1492       19046.00     83203.51
 1245.00        2970.50           1496       17162.00     74951.69
 1245.03        2970.75           1499       15635.00     68266.52
 1245.06        2971.00           1502       14099.00     61544.66
 1245.09        2971.25           1506       12273.00     53557.21
 1245.12        2971.50           1509       10683.00     46605.23
 1245.16        2971.75           1513        8741.00     38118.11
 1245.19        2972.00           1516        7214.00     31447.70
 1245.22        2972.25           1519        5802.00     25282.03
 1245.25        2972.50           1523        3995.00     17394.87
 1245.28        2972.75           1526        2591.00     11269.28
 1245.31        2973.00           1529        1306.00      5664.87
 1245.34        2973.25           1533         513.00      2207.21
 1245.37        2973.50           1536         330.00      1409.39
 1245.40        2973.75           1539         277.00      1178.33
 1245.43        2974.00           1543         232.00       982.16
 1245.46        2974.25           1546         183.00       768.54
 1245.49        2974.50           1549         135.00       559.29
 1245.53        2974.75           1553          83.00       332.61
 1245.56        2975.00           1556          69.00       271.58
 1245.59        2975.25           1559          56.00       214.91
 1245.62        2975.50           1563          68.00       267.22
 1245.65        2975.75           1566          70.00       275.94
 1245.68        2976.00           1569          56.00       214.91
 1245.71        2976.25           1573          51.00       193.11
 1245.74        2976.50           1576          57.00       219.27
 1245.77        2976.75           1579          56.00       214.91
 1245.80        2977.00           1583          58.00       223.63
 1245.83        2977.25           1586          59.00       227.99
 1245.86        2977.50           1590          57.00       219.27
 1245.89        2977.75           1593          58.00       223.63
 1245.93        2978.00           1596          59.00       227.99
 1245.96        2978.25           1600          54.00       206.19
 1245.99        2978.50           1603          64.00       249.78
 1246.02        2978.75           1606          55.00       210.55
 1246.05        2979.00           1610          56.00       214.91
 1246.08        2979.25           1613          57.00       219.27
 1246.11        2979.50           1616          57.00       219.27
 1246.14        2979.75           1620          58.00       223.63
 1246.17        2980.00           1623          61.00       236.71
 1246.20        2980.25           1626          51.00       193.11
 1246.23        2980.50           1630          53.00       201.83
 1246.26        2980.75           1633          59.00       227.99
 1246.29        2981.00           1637          53.00       201.83
 1246.32        2981.25           1640          49.00       184.40
 1246.36        2981.50           1643          47.00       175.68
 1246.39        2981.75           1647          52.00       197.47
 1246.42        2982.00           1650          55.00       210.55
 1246.45        2982.25           1653          52.00       197.47
 1246.48        2982.50           1657          50.00       188.75
 1246.51        2982.75           1660          52.00       197.47
 1246.54        2983.00           1663          55.00       210.55
 1246.57        2983.25           1667          59.00       227.99
 1246.60        2983.50           1670          63.00       245.42
 1246.63        2983.75           1673          61.00       236.71
 1246.66        2984.00           1677          48.00       180.04
HS scan finished at 20:46:53
end
