************************************************************
  HS Scan of (1) Internal mercury lamp
************************************************************
Integration time is 0.2294 seconds per sample
dh290417Manchester 53.47 2.23 2.804185pr1000
************************************************************
Dead Time -------------------------  3E-08 
Number of Cycles Used -------------  4 
Starting Wavelength (Angstroms) ---  2950 
Final Wavelength (Angstoms) -------  2984 
Wavelength Increment (Angstroms) --  .25 
Filter Wheel #1 Position ---------- (1) Ground quartz diffuser (ND=2.32)
Filter Wheel #2 Position ---------- (1) Neutral Density 0.494



************************************************************
HS scan start time = 01:30:26
Dark Count =  6.7 


Time (GMT)  Wavelength (Ang)  Step Number  Raw Counts  Counts/Second

   90.80        2950.00           1222          50.00       188.75
   90.87        2950.25           1226          48.00       180.04
   90.90        2950.50           1229          48.00       180.04
   90.93        2950.75           1232          42.00       153.88
   90.96        2951.00           1236          55.00       210.55
   90.99        2951.25           1239          46.00       171.32
   91.02        2951.50           1242          45.00       166.96
   91.05        2951.75           1246          41.00       149.52
   91.08        2952.00           1249          47.00       175.68
   91.11        2952.25           1252          47.00       175.68
   91.15        2952.50           1256          46.00       171.32
   91.18        2952.75           1259          45.00       166.96
   91.21        2953.00           1262          50.00       188.75
   91.24        2953.25           1266          49.00       184.40
   91.27        2953.50           1269          45.00       166.96
   91.30        2953.75           1272          51.00       193.11
   91.33        2954.00           1276          42.00       153.88
   91.36        2954.25           1279          52.00       197.47
   91.39        2954.50           1282          46.00       171.32
   91.42        2954.75           1286          45.00       166.96
   91.45        2955.00           1289          57.00       219.27
   91.48        2955.25           1292          49.00       184.40
   91.51        2955.50           1296          43.00       158.24
   91.55        2955.75           1299          51.00       193.11
   91.58        2956.00           1302          51.00       193.11
   91.61        2956.25           1306          49.00       184.40
   91.64        2956.50           1309          44.00       162.60
   91.67        2956.75           1312          47.00       175.68
   91.70        2957.00           1316          53.00       201.83
   91.73        2957.25           1319          40.00       145.16
   91.76        2957.50           1322          52.00       197.47
   91.79        2957.75           1326          47.00       175.68
   91.82        2958.00           1329          47.00       175.68
   91.85        2958.25           1332          51.00       193.11
   91.89        2958.50           1336          46.00       171.32
   91.92        2958.75           1339          44.00       162.60
   91.95        2959.00           1342          44.00       162.60
   91.98        2959.25           1346          47.00       175.68
   92.01        2959.50           1349          52.00       197.47
   92.04        2959.75           1352          66.00       258.50
   92.07        2960.00           1356          97.00       393.64
   92.10        2960.25           1359         128.00       528.78
   92.13        2960.50           1362         173.00       724.95
   92.16        2960.75           1366         232.00       982.16
   92.19        2961.00           1369         272.00      1156.54
   92.22        2961.25           1372         315.00      1343.99
   92.26        2961.50           1376         419.00      1797.39
   92.29        2961.75           1379         709.00      3061.75
   92.32        2962.00           1382        1427.00      6192.52
   92.35        2962.25           1386        3150.00     13707.90
   92.38        2962.50           1389        4746.00     20672.36
   92.41        2962.75           1392        6422.00     27989.06
   92.44        2963.00           1396        8620.00     37589.44
   92.47        2963.25           1399       10459.00     45626.06
   92.50        2963.50           1402       12288.00     53622.81
   92.53        2963.75           1406       14622.00     63833.11
   92.57        2964.00           1409       16344.00     71370.18
   92.60        2964.25           1412       18103.00     79072.71
   92.63        2964.50           1416       20388.00     89083.89
   92.66        2964.75           1419       21982.00     96071.18
   92.69        2965.00           1422       23718.00    103684.30
   92.72        2965.25           1426       26058.00    113951.70
   92.75        2965.50           1429       27916.00    122108.70
   92.78        2965.75           1432       29484.00    128995.60
   92.81        2966.00           1436       31818.00    139252.30
   92.84        2966.25           1439       33524.00    146753.20
   92.88        2966.50           1442       34696.00    151908.20
   92.91        2966.75           1446       36311.00    159014.40
   92.94        2967.00           1449       36471.00    159718.60
   92.97        2967.25           1452       36832.00    161307.50
   93.00        2967.50           1456       36652.00    160515.20
   93.03        2967.75           1459       36630.00    160418.40
   93.06        2968.00           1462       36658.00    160541.60
   93.09        2968.25           1466       35445.00    155203.50
   93.12        2968.50           1469       33928.00    148530.00
   93.15        2968.75           1472       32333.00    141516.30
   93.18        2969.00           1476       30163.00    131978.80
   93.21        2969.25           1479       28459.00    124493.30
   93.25        2969.50           1482       26629.00    116458.10
   93.28        2969.75           1486       24464.00    106956.90
   93.31        2970.00           1489       22966.00    100386.00
   93.34        2970.25           1492       21205.00     92664.84
   93.37        2970.50           1496       18945.00     82761.03
   93.40        2970.75           1499       17385.00     75928.21
   93.43        2971.00           1502       15641.00     68292.78
   93.46        2971.25           1506       13470.00     58792.80
   93.49        2971.50           1509       11820.00     51576.26
   93.52        2971.75           1513        9530.00     41565.75
   93.55        2972.00           1516        7890.00     34400.35
   93.58        2972.25           1519        6109.00     26622.39
   93.61        2972.50           1523        3876.00     16875.59
   93.65        2972.75           1526        2395.00     10414.33
   93.68        2973.00           1529        1221.00      5294.22
   93.71        2973.25           1533         522.00      2246.45
   93.74        2973.50           1536         378.00      1618.65
   93.77        2973.75           1539         310.00      1322.20
   93.80        2974.00           1543         262.00      1112.94
   93.83        2974.25           1546         202.00       851.37
   93.86        2974.50           1549         146.00       607.25
   93.89        2974.75           1553          99.00       402.36
   93.92        2975.00           1556          77.00       306.45
   93.96        2975.25           1559          53.00       201.83
   93.99        2975.50           1563          47.00       175.68
   94.02        2975.75           1566          48.00       180.04
   94.05        2976.00           1569          41.00       149.52
   94.08        2976.25           1573          46.00       171.32
   94.11        2976.50           1576          46.00       171.32
   94.14        2976.75           1579          47.00       175.68
   94.17        2977.00           1583          44.00       162.60
   94.20        2977.25           1586          45.00       166.96
   94.23        2977.50           1590          44.00       162.60
   94.27        2977.75           1593          48.00       180.04
   94.30        2978.00           1596          49.00       184.40
   94.33        2978.25           1600          38.00       136.44
   94.36        2978.50           1603          45.00       166.96
   94.39        2978.75           1606          51.00       193.11
   94.42        2979.00           1610          44.00       162.60
   94.45        2979.25           1613          50.00       188.75
   94.48        2979.50           1616          44.00       162.60
   94.51        2979.75           1620          53.00       201.83
   94.54        2980.00           1623          47.00       175.68
   94.57        2980.25           1626          51.00       193.11
   94.61        2980.50           1630          44.00       162.60
   94.64        2980.75           1633          54.00       206.19
   94.67        2981.00           1637          44.00       162.60
   94.70        2981.25           1640          53.00       201.83
   94.73        2981.50           1643          54.00       206.19
   94.76        2981.75           1647          48.00       180.04
   94.79        2982.00           1650          53.00       201.83
   94.82        2982.25           1653          45.00       166.96
   94.85        2982.50           1657          48.00       180.04
   94.88        2982.75           1660          39.00       140.80
   94.91        2983.00           1663          45.00       166.96
   94.94        2983.25           1667          53.00       201.83
   94.97        2983.50           1670          46.00       171.32
   95.00        2983.75           1673          41.00       149.52
   95.04        2984.00           1677          48.00       180.04
HS scan finished at 01:35:15
end
************************************************************
  HS Scan of (1) Internal mercury lamp
************************************************************
Integration time is 0.2294 seconds per sample
dh290417Manchester 53.47 2.23 2.804185pr1000
************************************************************
Dead Time -------------------------  3E-08 
Number of Cycles Used -------------  4 
Starting Wavelength (Angstroms) ---  2950 
Final Wavelength (Angstoms) -------  2984 
Wavelength Increment (Angstroms) --  .25 
Filter Wheel #1 Position ---------- (1) Ground quartz diffuser (ND=2.32)
Filter Wheel #2 Position ---------- (1) Neutral Density 0.494



************************************************************
HS scan start time = 20:42:01
Dark Count =  5.4 


Time (GMT)  Wavelength (Ang)  Step Number  Raw Counts  Counts/Second

 1242.38        2950.00           1222          50.00       194.42
 1242.44        2950.25           1226          40.00       150.83
 1242.48        2950.50           1229          48.00       185.70
 1242.51        2950.75           1232          46.00       176.98
 1242.54        2951.00           1236          45.00       172.63
 1242.57        2951.25           1239          49.00       190.06
 1242.60        2951.50           1242          45.00       172.63
 1242.63        2951.75           1246          51.00       198.78
 1242.66        2952.00           1249          46.00       176.98
 1242.69        2952.25           1252          48.00       185.70
 1242.72        2952.50           1256          53.00       207.50
 1242.75        2952.75           1259          50.00       194.42
 1242.78        2953.00           1262          40.00       150.83
 1242.81        2953.25           1266          47.00       181.34
 1242.84        2953.50           1269          55.00       216.22
 1242.88        2953.75           1272          50.00       194.42
 1242.91        2954.00           1276          45.00       172.63
 1242.94        2954.25           1279          41.00       155.19
 1242.97        2954.50           1282          41.00       155.19
 1243.00        2954.75           1286          40.00       150.83
 1243.03        2955.00           1289          49.00       190.06
 1243.06        2955.25           1292          48.00       185.70
 1243.09        2955.50           1296          43.00       163.91
 1243.12        2955.75           1299          53.00       207.50
 1243.15        2956.00           1302          46.00       176.98
 1243.18        2956.25           1306          40.00       150.83
 1243.21        2956.50           1309          50.00       194.42
 1243.24        2956.75           1312          44.00       168.27
 1243.28        2957.00           1316          53.00       207.50
 1243.31        2957.25           1319          54.00       211.86
 1243.34        2957.50           1322          52.00       203.14
 1243.37        2957.75           1326          50.00       194.42
 1243.40        2958.00           1329          43.00       163.91
 1243.43        2958.25           1332          50.00       194.42
 1243.46        2958.50           1336          52.00       203.14
 1243.49        2958.75           1339          48.00       185.70
 1243.52        2959.00           1342          47.00       181.34
 1243.55        2959.25           1346          49.00       190.06
 1243.58        2959.50           1349          63.00       251.09
 1243.62        2959.75           1352          67.00       268.53
 1243.65        2960.00           1356         103.00       425.46
 1243.68        2960.25           1359         131.00       547.52
 1243.71        2960.50           1362         199.00       843.96
 1243.74        2960.75           1366         230.00       979.10
 1243.77        2961.00           1369         273.00      1166.56
 1243.80        2961.25           1372         327.00      1401.98
 1243.83        2961.50           1376         425.00      1829.22
 1243.86        2961.75           1379         728.00      3150.25
 1243.89        2962.00           1382        1418.00      6158.94
 1243.92        2962.25           1386        3339.00     14538.16
 1243.95        2962.50           1389        5027.00     21904.54
 1243.99        2962.75           1392        6641.00     28951.03
 1244.02        2963.00           1396        8771.00     38254.86
 1244.05        2963.25           1399       10458.00     45627.37
 1244.08        2963.50           1402       12027.00     52487.12
 1244.11        2963.75           1406       14328.00     62552.33
 1244.14        2964.00           1409       16041.00     70049.41
 1244.17        2964.25           1412       17936.00     78346.96
 1244.20        2964.50           1416       20100.00     87827.44
 1244.23        2964.75           1419       21730.00     94972.04
 1244.27        2965.00           1422       23635.00    103325.90
 1244.30        2965.25           1426       25897.00    113250.70
 1244.33        2965.50           1429       27503.00    120300.90
 1244.36        2965.75           1432       29416.00    128702.60
 1244.39        2966.00           1436       31668.00    138598.60
 1244.42        2966.25           1439       33177.00    145233.00
 1244.45        2966.50           1442       34790.00    152327.50
 1244.48        2966.75           1446       36152.00    158320.40
 1244.51        2967.00           1449       36381.00    159328.20
 1244.54        2967.25           1452       36565.00    160138.00
 1244.57        2967.50           1456       36768.00    161031.50
 1244.60        2967.75           1459       36518.00    159931.20
 1244.64        2968.00           1462       36345.00    159169.80
 1244.67        2968.25           1466       35067.00    153546.10
 1244.70        2968.50           1469       33699.00    147528.60
 1244.73        2968.75           1472       32179.00    140845.00
 1244.76        2969.00           1476       30038.00    131435.30
 1244.79        2969.25           1479       28368.00    124099.40
 1244.82        2969.50           1482       26888.00    117600.70
 1244.85        2969.75           1486       24600.00    107559.20
 1244.88        2970.00           1489       22961.00    100369.80
 1244.92        2970.25           1492       21278.00     92990.54
 1244.95        2970.50           1496       19023.00     83108.44
 1244.98        2970.75           1499       17218.00     75202.61
 1245.01        2971.00           1502       15370.00     67112.32
 1245.04        2971.25           1506       13241.00     57796.73
 1245.07        2971.50           1509       11321.00     49400.10
 1245.10        2971.75           1513        9178.00     40033.23
 1245.13        2972.00           1516        7553.00     32934.01
 1245.16        2972.25           1519        6006.00     26178.36
 1245.19        2972.50           1523        3694.00     16087.10
 1245.23        2972.75           1526        2248.00      9778.81
 1245.26        2973.00           1529        1152.00      4999.01
 1245.29        2973.25           1533         487.00      2099.52
 1245.32        2973.50           1536         353.00      1515.33
 1245.35        2973.75           1539         308.00      1319.15
 1245.38        2974.00           1543         267.00      1140.41
 1245.41        2974.25           1546         189.00       800.37
 1245.44        2974.50           1549         142.00       595.48
 1245.47        2974.75           1553          97.00       399.31
 1245.50        2975.00           1556          79.00       320.84
 1245.53        2975.25           1559          56.00       220.58
 1245.57        2975.50           1563          48.00       185.70
 1245.60        2975.75           1566          48.00       185.70
 1245.63        2976.00           1569          52.00       203.14
 1245.66        2976.25           1573          49.00       190.06
 1245.69        2976.50           1576          43.00       163.91
 1245.72        2976.75           1579          50.00       194.42
 1245.75        2977.00           1583          44.00       168.27
 1245.78        2977.25           1586          43.00       163.91
 1245.81        2977.50           1590          49.00       190.06
 1245.84        2977.75           1593          53.00       207.50
 1245.87        2978.00           1596          43.00       163.91
 1245.90        2978.25           1600          43.00       163.91
 1245.93        2978.50           1603          48.00       185.70
 1245.96        2978.75           1606          54.00       211.86
 1246.00        2979.00           1610          46.00       176.98
 1246.03        2979.25           1613          45.00       172.63
 1246.06        2979.50           1616          43.00       163.91
 1246.09        2979.75           1620          40.00       150.83
 1246.12        2980.00           1623          47.00       181.34
 1246.15        2980.25           1626          37.00       137.75
 1246.18        2980.50           1630          48.00       185.70
 1246.21        2980.75           1633          44.00       168.27
 1246.24        2981.00           1637          44.00       168.27
 1246.27        2981.25           1640          48.00       185.70
 1246.30        2981.50           1643          45.00       172.63
 1246.33        2981.75           1647          44.00       168.27
 1246.36        2982.00           1650          47.00       181.34
 1246.39        2982.25           1653          39.00       146.47
 1246.42        2982.50           1657          45.00       172.63
 1246.45        2982.75           1660          50.00       194.42
 1246.49        2983.00           1663          48.00       185.70
 1246.52        2983.25           1667          51.00       198.78
 1246.55        2983.50           1670          48.00       185.70
 1246.58        2983.75           1673          45.00       172.63
 1246.61        2984.00           1677          50.00       194.42
HS scan finished at 20:46:50
end
