************************************************************
  HS Scan of (1) Internal mercury lamp
************************************************************
Integration time is 0.2294 seconds per sample
dh210419Manchester 53.47 2.23 2.804185pr1000
************************************************************
Dead Time -------------------------  3E-08 
Number of Cycles Used -------------  4 
Starting Wavelength (Angstroms) ---  2950 
Final Wavelength (Angstoms) -------  2984 
Wavelength Increment (Angstroms) --  .25 
Filter Wheel #1 Position ---------- (1) Ground quartz diffuser (ND=2.32)
Filter Wheel #2 Position ---------- (1) Neutral Density 0.494



************************************************************
HS scan start time = 01:22:35
Dark Count =  4.8 


Time (GMT)  Wavelength (Ang)  Step Number  Raw Counts  Counts/Second

   82.95        2950.00           1222          55.00       218.83
   83.02        2950.25           1226          49.00       192.68
   83.05        2950.50           1229          57.00       227.55
   83.08        2950.75           1232          60.00       240.63
   83.11        2951.00           1236          53.00       210.11
   83.14        2951.25           1239          61.00       244.99
   83.17        2951.50           1242          58.00       231.91
   83.20        2951.75           1246          57.00       227.55
   83.23        2952.00           1249          56.00       223.19
   83.26        2952.25           1252          55.00       218.83
   83.29        2952.50           1256          53.00       210.11
   83.33        2952.75           1259          56.00       223.19
   83.36        2953.00           1262          54.00       214.47
   83.39        2953.25           1266          59.00       236.27
   83.42        2953.50           1269          55.00       218.83
   83.45        2953.75           1272          50.00       197.04
   83.48        2954.00           1276          58.00       231.91
   83.51        2954.25           1279          56.00       223.19
   83.54        2954.50           1282          52.00       205.76
   83.57        2954.75           1286          56.00       223.19
   83.60        2955.00           1289          52.00       205.76
   83.64        2955.25           1292          51.00       201.40
   83.67        2955.50           1296          47.00       183.96
   83.70        2955.75           1299          53.00       210.11
   83.73        2956.00           1302          54.00       214.47
   83.76        2956.25           1306          54.00       214.47
   83.79        2956.50           1309          51.00       201.40
   83.82        2956.75           1312          57.00       227.55
   83.85        2957.00           1316          61.00       244.99
   83.88        2957.25           1319          56.00       223.19
   83.91        2957.50           1322          55.00       218.83
   83.95        2957.75           1326          52.00       205.76
   83.98        2958.00           1329          60.00       240.63
   84.01        2958.25           1332          48.00       188.32
   84.04        2958.50           1336          65.00       262.43
   84.07        2958.75           1339          58.00       231.91
   84.10        2959.00           1342          57.00       227.55
   84.13        2959.25           1346          61.00       244.99
   84.16        2959.50           1349          53.00       210.11
   84.19        2959.75           1352          68.00       275.50
   84.22        2960.00           1356          96.00       397.56
   84.25        2960.25           1359         116.00       484.75
   84.29        2960.50           1362         141.00       593.73
   84.32        2960.75           1366         197.00       837.86
   84.35        2961.00           1369         203.00       864.02
   84.38        2961.25           1372         261.00      1116.86
   84.41        2961.50           1376         331.00      1422.03
   84.44        2961.75           1379         450.00      1940.83
   84.47        2962.00           1382         895.00      3881.01
   84.50        2962.25           1386        2234.00      9720.36
   84.53        2962.50           1389        3479.00     15151.61
   84.57        2962.75           1392        4683.00     20405.69
   84.60        2963.00           1396        6224.00     27132.80
   84.63        2963.25           1399        7591.00     33102.61
   84.66        2963.50           1402        8844.00     38576.45
   84.69        2963.75           1406       10477.00     45713.05
   84.72        2964.00           1409       11806.00     51523.35
   84.75        2964.25           1412       13131.00     57318.19
   84.78        2964.50           1416       14804.00     64637.86
   84.81        2964.75           1419       16109.00     70349.72
   84.84        2965.00           1422       17446.00     76203.65
   84.88        2965.25           1426       19134.00     83597.36
   84.91        2965.50           1429       20387.00     89087.82
   84.94        2965.75           1432       21483.00     93891.83
   84.97        2966.00           1436       23159.00    101240.80
   85.00        2966.25           1439       24179.00    105714.90
   85.03        2966.50           1442       25426.00    111186.30
   85.06        2966.75           1446       26421.00    115553.30
   85.09        2967.00           1449       26875.00    117546.30
   85.12        2967.25           1452       27043.00    118283.90
   85.16        2967.50           1456       27007.00    118125.80
   85.19        2967.75           1459       26920.00    117743.90
   85.22        2968.00           1462       26876.00    117550.70
   85.25        2968.25           1466       26049.00    113920.50
   85.28        2968.50           1469       25123.00    109856.70
   85.31        2968.75           1472       23986.00    104868.20
   85.34        2969.00           1476       22191.00     96995.87
   85.37        2969.25           1479       20877.00     91235.43
   85.40        2969.50           1482       19683.00     86002.77
   85.44        2969.75           1486       18105.00     79089.78
   85.47        2970.00           1489       16714.00     72998.40
   85.50        2970.25           1492       15584.00     68051.61
   85.53        2970.50           1496       14029.00     61246.70
   85.56        2970.75           1499       12747.00     55638.57
   85.59        2971.00           1502       11565.00     50469.57
   85.62        2971.25           1506        9962.00     43462.04
   85.65        2971.50           1509        8656.00     37755.03
   85.69        2971.75           1513        7070.00     30827.10
   85.72        2972.00           1516        5893.00     25687.62
   85.75        2972.25           1519        4682.00     20401.32
   85.78        2972.50           1523        3033.00     13205.75
   85.81        2972.75           1526        1921.00      8355.19
   85.84        2973.00           1529         924.00      4007.46
   85.87        2973.25           1533         395.00      1701.05
   85.90        2973.50           1536         282.00      1208.41
   85.93        2973.75           1539         255.00      1090.71
   85.96        2974.00           1543         204.00       868.37
   85.99        2974.25           1546         159.00       672.20
   86.03        2974.50           1549         124.00       519.62
   86.06        2974.75           1553          94.00       388.85
   86.09        2975.00           1556          71.00       288.58
   86.12        2975.25           1559          65.00       262.43
   86.15        2975.50           1563          49.00       192.68
   86.18        2975.75           1566          62.00       249.35
   86.21        2976.00           1569          49.00       192.68
   86.24        2976.25           1573          55.00       218.83
   86.27        2976.50           1576          51.00       201.40
   86.30        2976.75           1579          54.00       214.47
   86.34        2977.00           1583          51.00       201.40
   86.37        2977.25           1586          48.00       188.32
   86.40        2977.50           1590          49.00       192.68
   86.43        2977.75           1593          64.00       258.07
   86.46        2978.00           1596          52.00       205.76
   86.49        2978.25           1600          50.00       197.04
   86.52        2978.50           1603          49.00       192.68
   86.55        2978.75           1606          52.00       205.76
   86.58        2979.00           1610          54.00       214.47
   86.62        2979.25           1613          47.00       183.96
   86.65        2979.50           1616          52.00       205.76
   86.68        2979.75           1620          51.00       201.40
   86.71        2980.00           1623          63.00       253.71
   86.74        2980.25           1626          51.00       201.40
   86.77        2980.50           1630          51.00       201.40
   86.80        2980.75           1633          48.00       188.32
   86.83        2981.00           1637          50.00       197.04
   86.86        2981.25           1640          53.00       210.11
   86.90        2981.50           1643          53.00       210.11
   86.93        2981.75           1647          52.00       205.76
   86.96        2982.00           1650          53.00       210.11
   86.99        2982.25           1653          49.00       192.68
   87.02        2982.50           1657          47.00       183.96
   87.05        2982.75           1660          48.00       188.32
   87.08        2983.00           1663          51.00       201.40
   87.11        2983.25           1667          49.00       192.68
   87.14        2983.50           1670          51.00       201.40
   87.17        2983.75           1673          53.00       210.11
   87.21        2984.00           1677          44.00       170.88
HS scan finished at 01:27:25
end
************************************************************
  HS Scan of (1) Internal mercury lamp
************************************************************
Integration time is 0.2294 seconds per sample
dh210419Manchester 53.47 2.23 3.018777pr1000
************************************************************
Dead Time -------------------------  3E-08 
Number of Cycles Used -------------  4 
Starting Wavelength (Angstroms) ---  2950 
Final Wavelength (Angstoms) -------  2984 
Wavelength Increment (Angstroms) --  .25 
Filter Wheel #1 Position ---------- (1) Ground quartz diffuser (ND=2.32)
Filter Wheel #2 Position ---------- (1) Neutral Density 0.494



************************************************************
HS scan start time = 20:12:22
Dark Count =  6.6 


Time (GMT)  Wavelength (Ang)  Step Number  Raw Counts  Counts/Second

 1212.73        2950.00           1222          54.00       206.63
 1212.80        2950.25           1226          53.00       202.27
 1212.83        2950.50           1229          53.00       202.27
 1212.86        2950.75           1232          54.00       206.63
 1212.89        2951.00           1236          53.00       202.27
 1212.92        2951.25           1239          56.00       215.35
 1212.96        2951.50           1242          56.00       215.35
 1212.99        2951.75           1246          58.00       224.06
 1213.02        2952.00           1249          57.00       219.71
 1213.05        2952.25           1252          49.00       184.83
 1213.08        2952.50           1256          57.00       219.71
 1213.11        2952.75           1259          59.00       228.42
 1213.14        2953.00           1262          56.00       215.35
 1213.17        2953.25           1266          53.00       202.27
 1213.20        2953.50           1269          47.00       176.11
 1213.23        2953.75           1272          56.00       215.35
 1213.27        2954.00           1276          53.00       202.27
 1213.30        2954.25           1279          52.00       197.91
 1213.33        2954.50           1282          50.00       189.19
 1213.36        2954.75           1286          58.00       224.06
 1213.39        2955.00           1289          49.00       184.83
 1213.42        2955.25           1292          49.00       184.83
 1213.45        2955.50           1296          55.00       210.99
 1213.48        2955.75           1299          52.00       197.91
 1213.51        2956.00           1302          52.00       197.91
 1213.54        2956.25           1306          54.00       206.63
 1213.58        2956.50           1309          52.00       197.91
 1213.61        2956.75           1312          54.00       206.63
 1213.64        2957.00           1316          49.00       184.83
 1213.67        2957.25           1319          58.00       224.06
 1213.70        2957.50           1322          57.00       219.71
 1213.73        2957.75           1326          51.00       193.55
 1213.76        2958.00           1329          55.00       210.99
 1213.79        2958.25           1332          64.00       250.22
 1213.82        2958.50           1336          55.00       210.99
 1213.86        2958.75           1339          60.00       232.78
 1213.89        2959.00           1342          58.00       224.06
 1213.92        2959.25           1346          52.00       197.91
 1213.95        2959.50           1349          60.00       232.78
 1213.98        2959.75           1352          73.00       289.45
 1214.01        2960.00           1356         101.00       411.51
 1214.04        2960.25           1359         124.00       511.78
 1214.07        2960.50           1362         152.00       633.84
 1214.10        2960.75           1366         211.00       891.04
 1214.14        2961.00           1369         238.00      1008.75
 1214.17        2961.25           1372         282.00      1200.57
 1214.20        2961.50           1376         335.00      1431.62
 1214.23        2961.75           1379         488.00      2098.65
 1214.26        2962.00           1382        1061.00      4596.97
 1214.29        2962.25           1386        2583.00     11234.82
 1214.32        2962.50           1389        3969.00     17281.84
 1214.35        2962.75           1392        5317.00     23165.18
 1214.38        2963.00           1396        7124.00     31055.08
 1214.42        2963.25           1399        8511.00     37113.67
 1214.45        2963.50           1402        9761.00     42575.71
 1214.48        2963.75           1406       11798.00     51480.49
 1214.51        2964.00           1409       13060.00     56999.74
 1214.54        2964.25           1412       14466.00     63150.92
 1214.57        2964.50           1416       16332.00     71318.08
 1214.60        2964.75           1419       17670.00     77176.75
 1214.63        2965.00           1422       19054.00     83239.00
 1214.67        2965.25           1426       20977.00     91665.85
 1214.70        2965.50           1429       22410.00     97948.26
 1214.73        2965.75           1432       23818.00    104123.30
 1214.76        2966.00           1436       25632.00    112082.40
 1214.79        2966.25           1439       26929.00    117775.50
 1214.82        2966.50           1442       28201.00    123360.70
 1214.85        2966.75           1446       29545.00    129264.10
 1214.88        2967.00           1449       29922.00    130920.40
 1214.91        2967.25           1452       30058.00    131517.90
 1214.95        2967.50           1456       29899.00    130819.30
 1214.98        2967.75           1459       30037.00    131425.60
 1215.01        2968.00           1462       29872.00    130700.70
 1215.04        2968.25           1466       28948.00    126641.50
 1215.07        2968.50           1469       27795.00    121577.80
 1215.10        2968.75           1472       26556.00    116138.00
 1215.13        2969.00           1476       24832.00    108571.90
 1215.16        2969.25           1479       23359.00    102110.10
 1215.19        2969.50           1482       22083.00     96514.44
 1215.23        2969.75           1486       20254.00     88497.07
 1215.26        2970.00           1489       18937.00     82726.43
 1215.29        2970.25           1492       17576.00     76765.08
 1215.32        2970.50           1496       15733.00     68695.93
 1215.35        2970.75           1499       14321.00     62516.45
 1215.38        2971.00           1502       12882.00     56221.16
 1215.41        2971.25           1506       11121.00     48520.45
 1215.44        2971.50           1509        9464.00     41277.76
 1215.47        2971.75           1513        7778.00     33911.55
 1215.51        2972.00           1516        6382.00     27814.83
 1215.54        2972.25           1519        4995.00     21759.63
 1215.57        2972.50           1523        3302.00     14371.50
 1215.60        2972.75           1526        1964.00      8534.88
 1215.63        2973.00           1529         851.00      3681.31
 1215.66        2973.25           1533         379.00      1623.44
 1215.69        2973.50           1536         300.00      1279.04
 1215.72        2973.75           1539         249.00      1056.70
 1215.75        2974.00           1543         219.00       925.92
 1215.79        2974.25           1546         153.00       638.20
 1215.82        2974.50           1549         107.00       437.67
 1215.85        2974.75           1553          91.00       367.92
 1215.88        2975.00           1556          72.00       285.09
 1215.91        2975.25           1559          60.00       232.78
 1215.94        2975.50           1563          58.00       224.06
 1215.97        2975.75           1566          57.00       219.71
 1216.00        2976.00           1569          59.00       228.42
 1216.03        2976.25           1573          51.00       193.55
 1216.06        2976.50           1576          54.00       206.63
 1216.10        2976.75           1579          59.00       228.42
 1216.13        2977.00           1583          48.00       180.47
 1216.16        2977.25           1586          52.00       197.91
 1216.19        2977.50           1590          47.00       176.11
 1216.22        2977.75           1593          48.00       180.47
 1216.25        2978.00           1596          54.00       206.63
 1216.28        2978.25           1600          49.00       184.83
 1216.31        2978.50           1603          56.00       215.35
 1216.34        2978.75           1606          55.00       210.99
 1216.37        2979.00           1610          50.00       189.19
 1216.41        2979.25           1613          47.00       176.11
 1216.44        2979.50           1616          49.00       184.83
 1216.47        2979.75           1620          41.00       149.96
 1216.50        2980.00           1623          53.00       202.27
 1216.53        2980.25           1626          50.00       189.19
 1216.56        2980.50           1630          55.00       210.99
 1216.59        2980.75           1633          49.00       184.83
 1216.62        2981.00           1637          48.00       180.47
 1216.65        2981.25           1640          55.00       210.99
 1216.68        2981.50           1643          52.00       197.91
 1216.72        2981.75           1647          60.00       232.78
 1216.75        2982.00           1650          47.00       176.11
 1216.78        2982.25           1653          50.00       189.19
 1216.81        2982.50           1657          43.00       158.68
 1216.84        2982.75           1660          53.00       202.27
 1216.87        2983.00           1663          45.00       167.39
 1216.90        2983.25           1667          45.00       167.39
 1216.93        2983.50           1670          50.00       189.19
 1216.96        2983.75           1673          47.00       176.11
 1217.00        2984.00           1677          41.00       149.96
HS scan finished at 20:17:13
end
