************************************************************
  HS Scan of (1) Internal mercury lamp
************************************************************
Integration time is 0.2294 seconds per sample
dh260418Manchester 53.47 2.23 2.804185pr1000
************************************************************
Dead Time -------------------------  3E-08 
Number of Cycles Used -------------  4 
Starting Wavelength (Angstroms) ---  2950 
Final Wavelength (Angstoms) -------  2984 
Wavelength Increment (Angstroms) --  .25 
Filter Wheel #1 Position ---------- (1) Ground quartz diffuser (ND=2.32)
Filter Wheel #2 Position ---------- (1) Neutral Density 0.494



************************************************************
HS scan start time = 02:11:06
Dark Count =  3.7 


Time (GMT)  Wavelength (Ang)  Step Number  Raw Counts  Counts/Second

  131.46        2950.00           1222          60.00       245.42
  131.53        2950.25           1226          54.00       219.27
  131.56        2950.50           1229          57.00       232.35
  131.59        2950.75           1232          56.00       227.99
  131.62        2951.00           1236          65.00       267.22
  131.65        2951.25           1239          59.00       241.07
  131.68        2951.50           1242          50.00       201.83
  131.71        2951.75           1246          60.00       245.42
  131.74        2952.00           1249          64.00       262.86
  131.77        2952.25           1252          56.00       227.99
  131.81        2952.50           1256          55.00       223.63
  131.84        2952.75           1259          60.00       245.42
  131.87        2953.00           1262          63.00       258.50
  131.90        2953.25           1266          50.00       201.83
  131.93        2953.50           1269          59.00       241.07
  131.96        2953.75           1272          63.00       258.50
  131.99        2954.00           1276          70.00       289.02
  132.02        2954.25           1279          63.00       258.50
  132.05        2954.50           1282          53.00       214.91
  132.08        2954.75           1286          59.00       241.07
  132.11        2955.00           1289          60.00       245.42
  132.14        2955.25           1292          55.00       223.63
  132.17        2955.50           1296          61.00       249.78
  132.21        2955.75           1299          56.00       227.99
  132.24        2956.00           1302          57.00       232.35
  132.27        2956.25           1306          60.00       245.42
  132.30        2956.50           1309          52.00       210.55
  132.33        2956.75           1312          60.00       245.42
  132.36        2957.00           1316          57.00       232.35
  132.39        2957.25           1319          59.00       241.07
  132.42        2957.50           1322          55.00       223.63
  132.45        2957.75           1326          58.00       236.71
  132.48        2958.00           1329          58.00       236.71
  132.51        2958.25           1332          54.00       219.27
  132.54        2958.50           1336          60.00       245.42
  132.58        2958.75           1339          63.00       258.50
  132.61        2959.00           1342          62.00       254.14
  132.64        2959.25           1346          65.00       267.22
  132.67        2959.50           1349          66.00       271.58
  132.70        2959.75           1352          81.00       336.97
  132.73        2960.00           1356         103.00       432.87
  132.76        2960.25           1359         126.00       533.14
  132.79        2960.50           1362         166.00       707.51
  132.82        2960.75           1366         221.00       947.28
  132.85        2961.00           1369         279.00      1200.13
  132.88        2961.25           1372         298.00      1282.96
  132.91        2961.50           1376         378.00      1631.73
  132.95        2961.75           1379         478.00      2067.70
  132.98        2962.00           1382         950.00      4125.62
  133.01        2962.25           1386        2431.00     10584.44
  133.04        2962.50           1389        3844.00     16749.04
  133.07        2962.75           1392        5235.00     22819.89
  133.10        2963.00           1396        7296.00     31818.94
  133.13        2963.25           1399        8681.00     37869.06
  133.16        2963.50           1402       10118.00     44148.67
  133.19        2963.75           1406       12281.00     53605.32
  133.22        2964.00           1409       13870.00     60555.86
  133.26        2964.25           1412       15366.00     67102.25
  133.29        2964.50           1416       17312.00     75621.68
  133.32        2964.75           1419       18858.00     82393.05
  133.35        2965.00           1422       20511.00     89636.09
  133.38        2965.25           1426       22234.00     97189.24
  133.41        2965.50           1429       23779.00    103965.00
  133.44        2965.75           1432       25232.00    110339.80
  133.47        2966.00           1436       27232.00    119118.50
  133.50        2966.25           1439       28781.00    125920.70
  133.53        2966.50           1442       30049.00    131491.10
  133.56        2966.75           1446       31670.00    138614.90
  133.59        2967.00           1449       32076.00    140399.60
  133.63        2967.25           1452       32050.00    140285.30
  133.66        2967.50           1456       32154.00    140742.50
  133.69        2967.75           1459       32125.00    140615.10
  133.72        2968.00           1462       31916.00    139696.30
  133.75        2968.25           1466       31249.00    136764.40
  133.78        2968.50           1469       30176.00    132049.10
  133.81        2968.75           1472       28643.00    125314.60
  133.84        2969.00           1476       26563.00    116181.50
  133.87        2969.25           1479       25180.00    110111.60
  133.91        2969.50           1482       23655.00    103421.10
  133.94        2969.75           1486       21668.00     94707.68
  133.97        2970.00           1489       20174.00     88159.19
  134.00        2970.25           1492       18883.00     82502.56
  134.03        2970.50           1496       16891.00     73778.20
  134.06        2970.75           1499       15510.00     67732.53
  134.09        2971.00           1502       13921.00     60778.99
  134.12        2971.25           1506       12049.00     52590.76
  134.15        2971.50           1509       10525.00     45927.67
  134.19        2971.75           1513        8592.00     37480.22
  134.22        2972.00           1516        7168.00     31259.91
  134.25        2972.25           1519        5626.00     24526.76
  134.28        2972.50           1523        3697.00     16107.61
  134.31        2972.75           1526        2353.00     10244.21
  134.34        2973.00           1529        1115.00      4845.08
  134.37        2973.25           1533         428.00      1849.71
  134.40        2973.50           1536         314.00      1352.71
  134.43        2973.75           1539         250.00      1073.71
  134.46        2974.00           1543         216.00       925.48
  134.50        2974.25           1546         157.00       668.28
  134.53        2974.50           1549         126.00       533.14
  134.56        2974.75           1553          88.00       367.48
  134.59        2975.00           1556          68.00       280.30
  134.62        2975.25           1559          60.00       245.42
  134.65        2975.50           1563          57.00       232.35
  134.68        2975.75           1566          54.00       219.27
  134.71        2976.00           1569          54.00       219.27
  134.74        2976.25           1573          66.00       271.58
  134.77        2976.50           1576          63.00       258.50
  134.80        2976.75           1579          59.00       241.07
  134.83        2977.00           1583          62.00       254.14
  134.86        2977.25           1586          61.00       249.78
  134.89        2977.50           1590          56.00       227.99
  134.93        2977.75           1593          61.00       249.78
  134.96        2978.00           1596          54.00       219.27
  134.99        2978.25           1600          53.00       214.91
  135.02        2978.50           1603          58.00       236.71
  135.05        2978.75           1606          57.00       232.35
  135.08        2979.00           1610          55.00       223.63
  135.11        2979.25           1613          52.00       210.55
  135.14        2979.50           1616          60.00       245.42
  135.17        2979.75           1620          57.00       232.35
  135.20        2980.00           1623          54.00       219.27
  135.23        2980.25           1626          53.00       214.91
  135.27        2980.50           1630          51.00       206.19
  135.30        2980.75           1633          58.00       236.71
  135.33        2981.00           1637          44.00       175.68
  135.36        2981.25           1640          50.00       201.83
  135.39        2981.50           1643          60.00       245.42
  135.42        2981.75           1647          54.00       219.27
  135.45        2982.00           1650          54.00       219.27
  135.48        2982.25           1653          57.00       232.35
  135.51        2982.50           1657          54.00       219.27
  135.54        2982.75           1660          62.00       254.14
  135.57        2983.00           1663          59.00       241.07
  135.61        2983.25           1667          53.00       214.91
  135.64        2983.50           1670          55.00       223.63
  135.67        2983.75           1673          55.00       223.63
  135.70        2984.00           1677          51.00       206.19
HS scan finished at 02:15:55
end
************************************************************
  HS Scan of (1) Internal mercury lamp
************************************************************
Integration time is 0.2294 seconds per sample
dh260418Manchester 53.47 2.23 2.804185pr1000
************************************************************
Dead Time -------------------------  3E-08 
Number of Cycles Used -------------  4 
Starting Wavelength (Angstroms) ---  2950 
Final Wavelength (Angstoms) -------  2984 
Wavelength Increment (Angstroms) --  .25 
Filter Wheel #1 Position ---------- (1) Ground quartz diffuser (ND=2.32)
Filter Wheel #2 Position ---------- (1) Neutral Density 0.494



************************************************************
HS scan start time = 20:42:02
Dark Count =  7.5 


Time (GMT)  Wavelength (Ang)  Step Number  Raw Counts  Counts/Second

 1242.40        2950.00           1222          57.00       215.78
 1242.47        2950.25           1226          59.00       224.50
 1242.50        2950.50           1229          60.00       228.86
 1242.53        2950.75           1232          60.00       228.86
 1242.56        2951.00           1236          64.00       246.30
 1242.59        2951.25           1239          56.00       211.42
 1242.62        2951.50           1242          60.00       228.86
 1242.65        2951.75           1246          62.00       237.58
 1242.68        2952.00           1249          54.00       202.70
 1242.72        2952.25           1252          55.00       207.06
 1242.75        2952.50           1256          55.00       207.06
 1242.78        2952.75           1259          56.00       211.42
 1242.81        2953.00           1262          54.00       202.70
 1242.84        2953.25           1266          56.00       211.42
 1242.87        2953.50           1269          57.00       215.78
 1242.90        2953.75           1272          62.00       237.58
 1242.93        2954.00           1276          57.00       215.78
 1242.96        2954.25           1279          60.00       228.86
 1242.99        2954.50           1282          55.00       207.06
 1243.02        2954.75           1286          56.00       211.42
 1243.06        2955.00           1289          58.00       220.14
 1243.09        2955.25           1292          54.00       202.70
 1243.12        2955.50           1296          57.00       215.78
 1243.15        2955.75           1299          63.00       241.94
 1243.18        2956.00           1302          71.00       276.81
 1243.21        2956.25           1306          53.00       198.34
 1243.24        2956.50           1309          62.00       237.58
 1243.27        2956.75           1312          63.00       241.94
 1243.30        2957.00           1316          57.00       215.78
 1243.33        2957.25           1319          59.00       224.50
 1243.36        2957.50           1322          60.00       228.86
 1243.39        2957.75           1326          55.00       207.06
 1243.42        2958.00           1329          60.00       228.86
 1243.46        2958.25           1332          57.00       215.78
 1243.49        2958.50           1336          56.00       211.42
 1243.52        2958.75           1339          61.00       233.22
 1243.55        2959.00           1342          49.00       180.91
 1243.58        2959.25           1346          64.00       246.30
 1243.61        2959.50           1349          64.00       246.30
 1243.64        2959.75           1352          74.00       289.89
 1243.67        2960.00           1356         110.00       446.82
 1243.70        2960.25           1359         133.00       547.09
 1243.73        2960.50           1362         168.00       699.67
 1243.76        2960.75           1366         220.00       926.36
 1243.80        2961.00           1369         258.00      1092.01
 1243.83        2961.25           1372         292.00      1240.24
 1243.86        2961.50           1376         336.00      1432.06
 1243.89        2961.75           1379         444.00      1902.90
 1243.92        2962.00           1382         876.00      3786.39
 1243.95        2962.25           1386        2496.00     10851.40
 1243.98        2962.50           1389        3893.00     16946.28
 1244.01        2962.75           1392        5333.00     23231.09
 1244.04        2963.00           1396        7168.00     31243.31
 1244.07        2963.25           1399        8587.00     37441.77
 1244.11        2963.50           1402       10137.00     44215.10
 1244.14        2963.75           1406       12102.00     52805.91
 1244.17        2964.00           1409       13590.00     59314.26
 1244.20        2964.25           1412       15191.00     66319.71
 1244.23        2964.50           1416       17115.00     74742.38
 1244.26        2964.75           1419       18733.00     81828.80
 1244.29        2965.00           1422       20324.00     88799.90
 1244.32        2965.25           1426       22223.00     97124.35
 1244.35        2965.50           1429       23716.00    103672.00
 1244.38        2965.75           1432       25239.00    110353.80
 1244.41        2966.00           1436       27341.00    119580.40
 1244.45        2966.25           1439       28480.00    124582.00
 1244.48        2966.50           1442       30032.00    131399.70
 1244.51        2966.75           1446       31471.00    137723.50
 1244.54        2967.00           1449       32020.00    140136.80
 1244.57        2967.25           1452       32015.00    140114.80
 1244.60        2967.50           1456       31981.00    139965.30
 1244.63        2967.75           1459       32204.00    140945.60
 1244.66        2968.00           1462       32093.00    140457.70
 1244.69        2968.25           1466       30976.00    135547.90
 1244.72        2968.50           1469       29863.00    130657.20
 1244.76        2968.75           1472       28222.00    123449.00
 1244.79        2969.00           1476       26604.00    116344.80
 1244.82        2969.25           1479       25183.00    110108.10
 1244.85        2969.50           1482       23739.00    103772.90
 1244.88        2969.75           1486       21705.00     94853.22
 1244.91        2970.00           1489       20160.00     88081.18
 1244.94        2970.25           1492       18687.00     81627.28
 1244.97        2970.50           1496       16747.00     73131.06
 1245.00        2970.75           1499       15251.00     66582.31
 1245.03        2971.00           1502       13740.00     59970.49
 1245.06        2971.25           1506       11625.00     50720.10
 1245.09        2971.50           1509       10081.00     43970.35
 1245.13        2971.75           1513        8161.00     35580.68
 1245.16        2972.00           1516        6674.00     29085.96
 1245.19        2972.25           1519        5336.00     23244.19
 1245.22        2972.50           1523        3506.00     15257.64
 1245.25        2972.75           1526        2068.00      8984.55
 1245.28        2973.00           1529         946.00      4091.61
 1245.31        2973.25           1533         420.00      1798.27
 1245.34        2973.50           1536         304.00      1292.55
 1245.37        2973.75           1539         271.00      1148.69
 1245.40        2974.00           1543         231.00       974.31
 1245.43        2974.25           1546         173.00       721.46
 1245.46        2974.50           1549         140.00       577.60
 1245.50        2974.75           1553          91.00       364.00
 1245.53        2975.00           1556          72.00       281.17
 1245.56        2975.25           1559          59.00       224.50
 1245.59        2975.50           1563          56.00       211.42
 1245.62        2975.75           1566          65.00       250.66
 1245.65        2976.00           1569          63.00       241.94
 1245.68        2976.25           1573          60.00       228.86
 1245.71        2976.50           1576          65.00       250.66
 1245.74        2976.75           1579          55.00       207.06
 1245.77        2977.00           1583          56.00       211.42
 1245.80        2977.25           1586          55.00       207.06
 1245.83        2977.50           1590          62.00       237.58
 1245.86        2977.75           1593          62.00       237.58
 1245.90        2978.00           1596          52.00       193.99
 1245.93        2978.25           1600          61.00       233.22
 1245.96        2978.50           1603          50.00       185.27
 1245.99        2978.75           1606          58.00       220.14
 1246.02        2979.00           1610          47.00       172.19
 1246.05        2979.25           1613          50.00       185.27
 1246.08        2979.50           1616          59.00       224.50
 1246.11        2979.75           1620          52.00       193.99
 1246.14        2980.00           1623          51.00       189.63
 1246.17        2980.25           1626          54.00       202.70
 1246.20        2980.50           1630          54.00       202.70
 1246.23        2980.75           1633          54.00       202.70
 1246.26        2981.00           1637          50.00       185.27
 1246.30        2981.25           1640          60.00       228.86
 1246.33        2981.50           1643          52.00       193.99
 1246.36        2981.75           1647          52.00       193.99
 1246.39        2982.00           1650          59.00       224.50
 1246.42        2982.25           1653          45.00       163.47
 1246.45        2982.50           1657          52.00       193.99
 1246.48        2982.75           1660          59.00       224.50
 1246.51        2983.00           1663          52.00       193.99
 1246.54        2983.25           1667          58.00       220.14
 1246.57        2983.50           1670          55.00       207.06
 1246.60        2983.75           1673          56.00       211.42
 1246.63        2984.00           1677          52.00       193.99
HS scan finished at 20:46:51
end
