************************************************************
  HS Scan of (1) Internal mercury lamp
************************************************************
Integration time is 0.2294 seconds per sample
dh200418Manchester 53.47 2.23 2.804185pr1000
************************************************************
Dead Time -------------------------  3E-08 
Number of Cycles Used -------------  4 
Starting Wavelength (Angstroms) ---  2950 
Final Wavelength (Angstoms) -------  2984 
Wavelength Increment (Angstroms) --  .25 
Filter Wheel #1 Position ---------- (1) Ground quartz diffuser (ND=2.32)
Filter Wheel #2 Position ---------- (1) Neutral Density 0.494



************************************************************
HS scan start time = 01:31:19
Dark Count =  5.6 


Time (GMT)  Wavelength (Ang)  Step Number  Raw Counts  Counts/Second

   91.68        2950.00           1222          49.00       189.19
   91.75        2950.25           1226          67.00       267.66
   91.78        2950.50           1229          57.00       224.06
   91.81        2950.75           1232          57.00       224.06
   91.84        2951.00           1236          63.00       250.22
   91.87        2951.25           1239          63.00       250.22
   91.90        2951.50           1242          65.00       258.94
   91.93        2951.75           1246          63.00       250.22
   91.97        2952.00           1249          62.00       245.86
   92.00        2952.25           1252          62.00       245.86
   92.03        2952.50           1256          58.00       228.42
   92.06        2952.75           1259          61.00       241.50
   92.09        2953.00           1262          54.00       210.99
   92.12        2953.25           1266          58.00       228.42
   92.15        2953.50           1269          52.00       202.27
   92.18        2953.75           1272          55.00       215.35
   92.21        2954.00           1276          52.00       202.27
   92.24        2954.25           1279          52.00       202.27
   92.27        2954.50           1282          57.00       224.06
   92.30        2954.75           1286          55.00       215.35
   92.33        2955.00           1289          69.00       276.38
   92.36        2955.25           1292          63.00       250.22
   92.39        2955.50           1296          56.00       219.71
   92.43        2955.75           1299          71.00       285.09
   92.46        2956.00           1302          58.00       228.42
   92.49        2956.25           1306          59.00       232.78
   92.52        2956.50           1309          58.00       228.42
   92.55        2956.75           1312          58.00       228.42
   92.58        2957.00           1316          54.00       210.99
   92.61        2957.25           1319          60.00       237.14
   92.64        2957.50           1322          71.00       285.09
   92.67        2957.75           1326          72.00       289.45
   92.70        2958.00           1329          59.00       232.78
   92.74        2958.25           1332          60.00       237.14
   92.77        2958.50           1336          60.00       237.14
   92.80        2958.75           1339          68.00       272.02
   92.83        2959.00           1342          57.00       224.06
   92.86        2959.25           1346          55.00       215.35
   92.89        2959.50           1349          74.00       298.17
   92.92        2959.75           1352          73.00       293.81
   92.95        2960.00           1356          97.00       398.44
   92.98        2960.25           1359         109.00       450.75
   93.01        2960.50           1362         149.00       625.12
   93.04        2960.75           1366         203.00       860.53
   93.08        2961.00           1369         229.00       973.87
   93.11        2961.25           1372         283.00      1209.29
   93.14        2961.50           1376         343.00      1470.86
   93.17        2961.75           1379         513.00      2212.00
   93.20        2962.00           1382        1146.00      4971.97
   93.23        2962.25           1386        2793.00     12155.26
   93.26        2962.50           1389        4182.00     18215.71
   93.29        2962.75           1392        5657.00     24653.80
   93.32        2963.00           1396        7547.00     32906.93
   93.35        2963.25           1399        9107.00     39722.11
   93.38        2963.50           1402       10485.00     45744.52
   93.41        2963.75           1406       12478.00     54458.57
   93.45        2964.00           1409       13838.00     60407.55
   93.48        2964.25           1412       15465.00     67527.25
   93.51        2964.50           1416       17400.00     75998.71
   93.54        2964.75           1419       18739.00     81863.41
   93.57        2965.00           1422       20334.00     88852.05
   93.60        2965.25           1426       22321.00     97562.38
   93.63        2965.50           1429       23711.00    103658.40
   93.66        2965.75           1432       25273.00    110511.40
   93.70        2966.00           1436       27144.00    118723.80
   93.73        2966.25           1439       28798.00    125987.10
   93.76        2966.50           1442       30031.00    131403.70
   93.79        2966.75           1446       31337.00    137142.90
   93.82        2967.00           1449       31591.00    138259.30
   93.85        2967.25           1452       31670.00    138606.60
   93.88        2967.50           1456       31716.00    138808.80
   93.91        2967.75           1459       31859.00    139437.40
   93.94        2968.00           1462       31570.00    138167.00
   93.98        2968.25           1466       30629.00    134031.30
   94.01        2968.50           1469       29441.00    128811.60
   94.04        2968.75           1472       27979.00    122390.20
   94.07        2969.00           1476       26105.00    114162.80
   94.10        2969.25           1479       24611.00    107606.60
   94.13        2969.50           1482       22978.00    100443.50
   94.16        2969.75           1486       21216.00     92717.88
   94.19        2970.00           1489       19714.00     86135.12
   94.22        2970.25           1492       18233.00     79646.94
   94.26        2970.50           1496       16533.00     72202.44
   94.29        2970.75           1499       15148.00     66139.82
   94.32        2971.00           1502       13591.00     59326.94
   94.35        2971.25           1506       11583.00     50544.77
   94.38        2971.50           1509       10069.00     43926.21
   94.41        2971.75           1513        8037.00     35047.29
   94.44        2972.00           1516        6544.00     28526.58
   94.47        2972.25           1519        5247.00     22863.98
   94.50        2972.50           1523        3255.00     14170.80
   94.53        2972.75           1526        1914.00      8321.17
   94.56        2973.00           1529         886.00      3838.28
   94.60        2973.25           1533         454.00      1954.78
   94.63        2973.50           1536         331.00      1418.54
   94.66        2973.75           1539         301.00      1287.76
   94.69        2974.00           1543         239.00      1017.47
   94.72        2974.25           1546         193.00       816.93
   94.75        2974.50           1549         149.00       625.12
   94.78        2974.75           1553         106.00       437.67
   94.81        2975.00           1556          82.00       333.05
   94.84        2975.25           1559          71.00       285.09
   94.87        2975.50           1563          59.00       232.78
   94.90        2975.75           1566          57.00       224.06
   94.93        2976.00           1569          51.00       197.91
   94.97        2976.25           1573          61.00       241.50
   95.00        2976.50           1576          50.00       193.55
   95.03        2976.75           1579          57.00       224.06
   95.06        2977.00           1583          64.00       254.58
   95.09        2977.25           1586          49.00       189.19
   95.12        2977.50           1590          56.00       219.71
   95.15        2977.75           1593          52.00       202.27
   95.18        2978.00           1596          58.00       228.42
   95.21        2978.25           1600          55.00       215.35
   95.24        2978.50           1603          54.00       210.99
   95.27        2978.75           1606          58.00       228.42
   95.30        2979.00           1610          52.00       202.27
   95.33        2979.25           1613          50.00       193.55
   95.36        2979.50           1616          53.00       206.63
   95.40        2979.75           1620          47.00       180.47
   95.43        2980.00           1623          54.00       210.99
   95.46        2980.25           1626          55.00       215.35
   95.49        2980.50           1630          55.00       215.35
   95.52        2980.75           1633          55.00       215.35
   95.55        2981.00           1637          62.00       245.86
   95.58        2981.25           1640          50.00       193.55
   95.61        2981.50           1643          52.00       202.27
   95.64        2981.75           1647          50.00       193.55
   95.67        2982.00           1650          51.00       197.91
   95.70        2982.25           1653          53.00       206.63
   95.73        2982.50           1657          51.00       197.91
   95.76        2982.75           1660          48.00       184.83
   95.80        2983.00           1663          58.00       228.42
   95.83        2983.25           1667          49.00       189.19
   95.86        2983.50           1670          55.00       215.35
   95.89        2983.75           1673          54.00       210.99
   95.92        2984.00           1677          53.00       206.63
HS scan finished at 01:36:08
end
************************************************************
  HS Scan of (1) Internal mercury lamp
************************************************************
Integration time is 0.2294 seconds per sample
dh200418Manchester 53.47 2.23 2.804185pr1000
************************************************************
Dead Time -------------------------  3E-08 
Number of Cycles Used -------------  4 
Starting Wavelength (Angstroms) ---  2950 
Final Wavelength (Angstoms) -------  2984 
Wavelength Increment (Angstroms) --  .25 
Filter Wheel #1 Position ---------- (1) Ground quartz diffuser (ND=2.32)
Filter Wheel #2 Position ---------- (1) Neutral Density 0.494



************************************************************
HS scan start time = 20:12:04
Dark Count =  6.4 


Time (GMT)  Wavelength (Ang)  Step Number  Raw Counts  Counts/Second

 1212.44        2950.00           1222          59.00       229.30
 1212.51        2950.25           1226          62.00       242.37
 1212.54        2950.50           1229          64.00       251.09
 1212.57        2950.75           1232          53.00       203.14
 1212.60        2951.00           1236          63.00       246.73
 1212.63        2951.25           1239          67.00       264.17
 1212.66        2951.50           1242          61.00       238.01
 1212.69        2951.75           1246          67.00       264.17
 1212.73        2952.00           1249          60.00       233.65
 1212.76        2952.25           1252          54.00       207.50
 1212.79        2952.50           1256          56.00       216.22
 1212.82        2952.75           1259          64.00       251.09
 1212.85        2953.00           1262          60.00       233.65
 1212.88        2953.25           1266          52.00       198.78
 1212.91        2953.50           1269          58.00       224.94
 1212.94        2953.75           1272          62.00       242.37
 1212.97        2954.00           1276          70.00       277.25
 1213.00        2954.25           1279          57.00       220.58
 1213.03        2954.50           1282          56.00       216.22
 1213.06        2954.75           1286          59.00       229.30
 1213.09        2955.00           1289          59.00       229.30
 1213.12        2955.25           1292          62.00       242.37
 1213.15        2955.50           1296          54.00       207.50
 1213.18        2955.75           1299          71.00       281.61
 1213.21        2956.00           1302          63.00       246.73
 1213.25        2956.25           1306          63.00       246.73
 1213.28        2956.50           1309          64.00       251.09
 1213.31        2956.75           1312          62.00       242.37
 1213.34        2957.00           1316          55.00       211.86
 1213.37        2957.25           1319          71.00       281.61
 1213.40        2957.50           1322          54.00       207.50
 1213.43        2957.75           1326          56.00       216.22
 1213.46        2958.00           1329          53.00       203.14
 1213.49        2958.25           1332          59.00       229.30
 1213.52        2958.50           1336          55.00       211.86
 1213.55        2958.75           1339          59.00       229.30
 1213.58        2959.00           1342          57.00       220.58
 1213.61        2959.25           1346          62.00       242.37
 1213.65        2959.50           1349          68.00       268.53
 1213.68        2959.75           1352          88.00       355.71
 1213.71        2960.00           1356         117.00       482.13
 1213.74        2960.25           1359         143.00       595.48
 1213.77        2960.50           1362         171.00       717.54
 1213.80        2960.75           1366         225.00       952.95
 1213.83        2961.00           1369         250.00      1061.93
 1213.86        2961.25           1372         289.00      1231.96
 1213.89        2961.50           1376         367.00      1572.00
 1213.92        2961.75           1379         502.00      2160.56
 1213.95        2962.00           1382        1067.00      4624.01
 1213.99        2962.25           1386        2623.00     11410.18
 1214.02        2962.50           1389        3994.00     17391.81
 1214.05        2962.75           1392        5398.00     23519.64
 1214.08        2963.00           1396        7317.00     31898.86
 1214.11        2963.25           1399        8735.00     38093.20
 1214.14        2963.50           1402       10206.00     44521.50
 1214.17        2963.75           1406       12248.00     53449.20
 1214.20        2964.00           1409       13697.00     59787.17
 1214.23        2964.25           1412       15269.00     66665.90
 1214.26        2964.50           1416       17325.00     75666.78
 1214.30        2964.75           1419       18806.00     82153.41
 1214.33        2965.00           1422       20289.00     88651.33
 1214.36        2965.25           1426       22357.00     97716.72
 1214.39        2965.50           1429       23854.00    104282.10
 1214.42        2965.75           1432       25159.00    110007.60
 1214.45        2966.00           1436       27082.00    118448.10
 1214.48        2966.25           1439       28368.00    124095.00
 1214.51        2966.50           1442       29775.00    130275.40
 1214.54        2966.75           1446       31240.00    136713.00
 1214.58        2967.00           1449       31640.00    138471.20
 1214.61        2967.25           1452       31765.00    139020.60
 1214.64        2967.50           1456       31826.00    139288.80
 1214.67        2967.75           1459       31719.00    138818.40
 1214.70        2968.00           1462       31599.00    138290.90
 1214.73        2968.25           1466       30442.00    133206.10
 1214.76        2968.50           1469       29090.00    127266.20
 1214.79        2968.75           1472       27750.00    121381.00
 1214.82        2969.00           1476       26021.00    113790.60
 1214.85        2969.25           1479       24595.00    107532.90
 1214.88        2969.50           1482       23117.00    101049.60
 1214.91        2969.75           1486       21476.00     93854.12
 1214.95        2970.00           1489       19921.00     87038.66
 1214.98        2970.25           1492       18447.00     80580.78
 1215.01        2970.50           1496       16404.00     71634.16
 1215.04        2970.75           1499       15011.00     65536.75
 1215.07        2971.00           1502       13402.00     58496.64
 1215.10        2971.25           1506       11448.00     49951.00
 1215.13        2971.50           1509       10006.00     43647.35
 1215.16        2971.75           1513        8238.00     35921.86
 1215.19        2972.00           1516        6798.00     29632.26
 1215.23        2972.25           1519        5333.00     23235.90
 1215.26        2972.50           1523        3425.00     14909.02
 1215.29        2972.75           1526        2022.00      8788.72
 1215.32        2973.00           1529         902.00      3904.56
 1215.35        2973.25           1533         414.00      1776.90
 1215.38        2973.50           1536         309.00      1319.15
 1215.41        2973.75           1539         245.00      1040.14
 1215.44        2974.00           1543         227.00       961.67
 1215.47        2974.25           1546         170.00       713.18
 1215.50        2974.50           1549         134.00       556.24
 1215.53        2974.75           1553          88.00       355.71
 1215.57        2975.00           1556          75.00       299.04
 1215.60        2975.25           1559          63.00       246.73
 1215.63        2975.50           1563          56.00       216.22
 1215.66        2975.75           1566          60.00       233.65
 1215.69        2976.00           1569          59.00       229.30
 1215.72        2976.25           1573          52.00       198.78
 1215.75        2976.50           1576          60.00       233.65
 1215.78        2976.75           1579          53.00       203.14
 1215.81        2977.00           1583          52.00       198.78
 1215.84        2977.25           1586          57.00       220.58
 1215.87        2977.50           1590          44.00       163.91
 1215.90        2977.75           1593          55.00       211.86
 1215.93        2978.00           1596          52.00       198.78
 1215.97        2978.25           1600          49.00       185.70
 1216.00        2978.50           1603          56.00       216.22
 1216.03        2978.75           1606          54.00       207.50
 1216.06        2979.00           1610          47.00       176.98
 1216.09        2979.25           1613          57.00       220.58
 1216.12        2979.50           1616          57.00       220.58
 1216.15        2979.75           1620          51.00       194.42
 1216.18        2980.00           1623          54.00       207.50
 1216.21        2980.25           1626          58.00       224.94
 1216.24        2980.50           1630          57.00       220.58
 1216.28        2980.75           1633          63.00       246.73
 1216.31        2981.00           1637          55.00       211.86
 1216.34        2981.25           1640          59.00       229.30
 1216.37        2981.50           1643          53.00       203.14
 1216.40        2981.75           1647          48.00       181.34
 1216.43        2982.00           1650          52.00       198.78
 1216.46        2982.25           1653          57.00       220.58
 1216.49        2982.50           1657          52.00       198.78
 1216.52        2982.75           1660          53.00       203.14
 1216.55        2983.00           1663          58.00       224.94
 1216.58        2983.25           1667          54.00       207.50
 1216.62        2983.50           1670          49.00       185.70
 1216.65        2983.75           1673          56.00       216.22
 1216.68        2984.00           1677          58.00       224.94
HS scan finished at 20:16:54
end
