************************************************************
  HS Scan of (1) Internal mercury lamp
************************************************************
Integration time is 0.2294 seconds per sample
dh240418Manchester 53.47 2.23 2.804185pr1000
************************************************************
Dead Time -------------------------  3E-08 
Number of Cycles Used -------------  4 
Starting Wavelength (Angstroms) ---  2950 
Final Wavelength (Angstoms) -------  2984 
Wavelength Increment (Angstroms) --  .25 
Filter Wheel #1 Position ---------- (1) Ground quartz diffuser (ND=2.32)
Filter Wheel #2 Position ---------- (1) Neutral Density 0.494



************************************************************
HS scan start time = 01:35:03
Dark Count =  5.4 


Time (GMT)  Wavelength (Ang)  Step Number  Raw Counts  Counts/Second

   95.42        2950.00           1222          60.00       238.01
   95.49        2950.25           1226          63.00       251.09
   95.52        2950.50           1229          53.00       207.50
   95.55        2950.75           1232          53.00       207.50
   95.58        2951.00           1236          57.00       224.94
   95.61        2951.25           1239          66.00       264.17
   95.64        2951.50           1242          64.00       255.45
   95.67        2951.75           1246          66.00       264.17
   95.70        2952.00           1249          63.00       251.09
   95.73        2952.25           1252          66.00       264.17
   95.77        2952.50           1256          57.00       224.94
   95.80        2952.75           1259          54.00       211.86
   95.83        2953.00           1262          53.00       207.50
   95.86        2953.25           1266          55.00       216.22
   95.89        2953.50           1269          51.00       198.78
   95.92        2953.75           1272          60.00       238.01
   95.95        2954.00           1276          54.00       211.86
   95.98        2954.25           1279          70.00       281.61
   96.01        2954.50           1282          53.00       207.50
   96.04        2954.75           1286          62.00       246.73
   96.07        2955.00           1289          68.00       272.89
   96.10        2955.25           1292          66.00       264.17
   96.14        2955.50           1296          60.00       238.01
   96.17        2955.75           1299          52.00       203.14
   96.20        2956.00           1302          48.00       185.70
   96.23        2956.25           1306          55.00       216.22
   96.26        2956.50           1309          60.00       238.01
   96.29        2956.75           1312          56.00       220.58
   96.32        2957.00           1316          58.00       229.30
   96.35        2957.25           1319          58.00       229.30
   96.38        2957.50           1322          54.00       211.86
   96.41        2957.75           1326          61.00       242.37
   96.44        2958.00           1329          58.00       229.30
   96.47        2958.25           1332          62.00       246.73
   96.51        2958.50           1336          54.00       211.86
   96.54        2958.75           1339          58.00       229.30
   96.57        2959.00           1342          58.00       229.30
   96.60        2959.25           1346          57.00       224.94
   96.63        2959.50           1349          68.00       272.89
   96.66        2959.75           1352          70.00       281.61
   96.69        2960.00           1356         106.00       438.54
   96.72        2960.25           1359         135.00       564.96
   96.75        2960.50           1362         178.00       752.41
   96.78        2960.75           1366         218.00       926.79
   96.81        2961.00           1369         245.00      1044.50
   96.84        2961.25           1372         283.00      1210.16
   96.87        2961.50           1376         353.00      1515.33
   96.90        2961.75           1379         528.00      2278.27
   96.93        2962.00           1382        1207.00      5238.84
   96.97        2962.25           1386        2936.00     12779.97
   97.00        2962.50           1389        4293.00     18700.99
   97.03        2962.75           1392        5767.00     25134.90
   97.06        2963.00           1396        7574.00     33025.73
   97.09        2963.25           1399        9060.00     39517.62
   97.12        2963.50           1402       10633.00     46392.34
   97.15        2963.75           1406       12739.00     55600.95
   97.18        2964.00           1409       14137.00     61716.61
   97.21        2964.25           1412       15619.00     68202.18
   97.25        2964.50           1416       17691.00     77273.96
   97.28        2964.75           1419       19040.00     83182.91
   97.31        2965.00           1422       20564.00     89860.94
   97.34        2965.25           1426       22597.00     98773.51
   97.37        2965.50           1429       24120.00    105453.40
   97.40        2965.75           1432       25786.00    112763.60
   97.43        2966.00           1436       27529.00    120415.00
   97.46        2966.25           1439       29033.00    127020.20
   97.49        2966.50           1442       30258.00    132401.90
   97.52        2966.75           1446       31658.00    138554.70
   97.56        2967.00           1449       31977.00    139956.90
   97.59        2967.25           1452       31914.00    139680.00
   97.62        2967.50           1456       32092.00    140462.50
   97.65        2967.75           1459       32009.00    140097.60
   97.68        2968.00           1462       31851.00    139403.10
   97.71        2968.25           1466       30512.00    133518.10
   97.74        2968.50           1469       29470.00    128939.80
   97.77        2968.75           1472       27927.00    122162.70
   97.80        2969.00           1476       26080.00    114053.90
   97.83        2969.25           1479       24864.00    108717.60
   97.87        2969.50           1482       23046.00    100742.60
   97.90        2969.75           1486       21322.00     93183.41
   97.93        2970.00           1489       19888.00     86898.43
   97.96        2970.25           1492       18303.00     79954.41
   97.99        2970.50           1496       16390.00     71577.25
   98.02        2970.75           1499       14861.00     64884.68
   98.05        2971.00           1502       13247.00     57822.97
   98.08        2971.25           1506       11270.00     49177.12
   98.11        2971.50           1509        9784.00     42681.47
   98.15        2971.75           1513        8019.00     34969.54
   98.18        2972.00           1516        6577.00     28671.56
   98.21        2972.25           1519        5214.00     22720.80
   98.24        2972.50           1523        3304.00     14385.46
   98.27        2972.75           1526        1852.00      8051.64
   98.30        2973.00           1529         891.00      3860.95
   98.33        2973.25           1533         424.00      1824.86
   98.36        2973.50           1536         331.00      1419.42
   98.39        2973.75           1539         291.00      1245.03
   98.42        2974.00           1543         254.00      1083.73
   98.45        2974.25           1546         175.00       739.34
   98.48        2974.50           1549         154.00       647.79
   98.51        2974.75           1553         110.00       455.98
   98.55        2975.00           1556          72.00       290.33
   98.58        2975.25           1559          78.00       316.48
   98.61        2975.50           1563          62.00       246.73
   98.64        2975.75           1566          61.00       242.37
   98.67        2976.00           1569          58.00       229.30
   98.70        2976.25           1573          56.00       220.58
   98.73        2976.50           1576          53.00       207.50
   98.76        2976.75           1579          50.00       194.42
   98.79        2977.00           1583          57.00       224.94
   98.82        2977.25           1586          50.00       194.42
   98.85        2977.50           1590          54.00       211.86
   98.88        2977.75           1593          55.00       216.22
   98.91        2978.00           1596          54.00       211.86
   98.94        2978.25           1600          52.00       203.14
   98.98        2978.50           1603          52.00       203.14
   99.01        2978.75           1606          58.00       229.30
   99.04        2979.00           1610          58.00       229.30
   99.07        2979.25           1613          46.00       176.98
   99.10        2979.50           1616          53.00       207.50
   99.13        2979.75           1620          62.00       246.73
   99.16        2980.00           1623          48.00       185.70
   99.19        2980.25           1626          54.00       211.86
   99.22        2980.50           1630          52.00       203.14
   99.25        2980.75           1633          64.00       255.45
   99.28        2981.00           1637          55.00       216.22
   99.31        2981.25           1640          55.00       216.22
   99.35        2981.50           1643          47.00       181.34
   99.38        2981.75           1647          60.00       238.01
   99.41        2982.00           1650          50.00       194.42
   99.44        2982.25           1653          56.00       220.58
   99.47        2982.50           1657          57.00       224.94
   99.50        2982.75           1660          52.00       203.14
   99.53        2983.00           1663          53.00       207.50
   99.56        2983.25           1667          52.00       203.14
   99.59        2983.50           1670          52.00       203.14
   99.62        2983.75           1673          65.00       259.81
   99.65        2984.00           1677          54.00       211.86
HS scan finished at 01:39:52
end
************************************************************
  HS Scan of (1) Internal mercury lamp
************************************************************
Integration time is 0.2294 seconds per sample
dh240418Manchester 53.47 2.23 2.804185pr1000
************************************************************
Dead Time -------------------------  3E-08 
Number of Cycles Used -------------  4 
Starting Wavelength (Angstroms) ---  2950 
Final Wavelength (Angstoms) -------  2984 
Wavelength Increment (Angstroms) --  .25 
Filter Wheel #1 Position ---------- (1) Ground quartz diffuser (ND=2.32)
Filter Wheel #2 Position ---------- (1) Neutral Density 0.494



************************************************************
HS scan start time = 20:12:00
Dark Count =  6.4 


Time (GMT)  Wavelength (Ang)  Step Number  Raw Counts  Counts/Second

 1212.37        2950.00           1222          56.00       216.22
 1212.44        2950.25           1226          54.00       207.50
 1212.47        2950.50           1229          54.00       207.50
 1212.50        2950.75           1232          57.00       220.58
 1212.53        2951.00           1236          69.00       272.89
 1212.56        2951.25           1239          57.00       220.58
 1212.60        2951.50           1242          70.00       277.25
 1212.63        2951.75           1246          62.00       242.37
 1212.66        2952.00           1249          66.00       259.81
 1212.69        2952.25           1252          60.00       233.65
 1212.72        2952.50           1256          55.00       211.86
 1212.75        2952.75           1259          66.00       259.81
 1212.78        2953.00           1262          55.00       211.86
 1212.81        2953.25           1266          58.00       224.94
 1212.84        2953.50           1269          60.00       233.65
 1212.87        2953.75           1272          56.00       216.22
 1212.90        2954.00           1276          58.00       224.94
 1212.93        2954.25           1279          61.00       238.01
 1212.96        2954.50           1282          60.00       233.65
 1213.00        2954.75           1286          57.00       220.58
 1213.03        2955.00           1289          59.00       229.30
 1213.06        2955.25           1292          60.00       233.65
 1213.09        2955.50           1296          63.00       246.73
 1213.12        2955.75           1299          53.00       203.14
 1213.15        2956.00           1302          64.00       251.09
 1213.18        2956.25           1306          59.00       229.30
 1213.21        2956.50           1309          59.00       229.30
 1213.24        2956.75           1312          62.00       242.37
 1213.27        2957.00           1316          62.00       242.37
 1213.30        2957.25           1319          50.00       190.06
 1213.33        2957.50           1322          56.00       216.22
 1213.36        2957.75           1326          62.00       242.37
 1213.40        2958.00           1329          58.00       224.94
 1213.43        2958.25           1332          64.00       251.09
 1213.46        2958.50           1336          59.00       229.30
 1213.49        2958.75           1339          59.00       229.30
 1213.52        2959.00           1342          54.00       207.50
 1213.55        2959.25           1346          65.00       255.45
 1213.58        2959.50           1349          68.00       268.53
 1213.61        2959.75           1352          80.00       320.84
 1213.64        2960.00           1356         115.00       473.42
 1213.67        2960.25           1359         139.00       578.04
 1213.70        2960.50           1362         162.00       678.31
 1213.73        2960.75           1366         217.00       918.07
 1213.76        2961.00           1369         265.00      1127.33
 1213.79        2961.25           1372         288.00      1227.60
 1213.83        2961.50           1376         372.00      1593.80
 1213.86        2961.75           1379         525.00      2260.83
 1213.89        2962.00           1382        1131.00      4903.08
 1213.92        2962.25           1386        2745.00     11942.38
 1213.95        2962.50           1389        4280.00     18639.89
 1213.98        2962.75           1392        5635.00     24554.26
 1214.01        2963.00           1396        7569.00     32999.52
 1214.04        2963.25           1399        9201.00     40129.36
 1214.07        2963.50           1402       10815.00     47183.57
 1214.10        2963.75           1406       12690.00     55382.27
 1214.13        2964.00           1409       14250.00     62206.65
 1214.16        2964.25           1412       15844.00     69182.68
 1214.20        2964.50           1416       17792.00     77711.93
 1214.23        2964.75           1419       19220.00     83967.13
 1214.26        2965.00           1422       20656.00     90259.77
 1214.29        2965.25           1426       22749.00     99435.68
 1214.32        2965.50           1429       24151.00    105585.00
 1214.35        2965.75           1432       25662.00    112215.00
 1214.38        2966.00           1436       27750.00    121381.00
 1214.41        2966.25           1439       29144.00    127503.40
 1214.44        2966.50           1442       30374.00    132907.30
 1214.47        2966.75           1446       31641.00    138475.60
 1214.50        2967.00           1449       31981.00    139970.10
 1214.53        2967.25           1452       31849.00    139389.90
 1214.57        2967.50           1456       31879.00    139521.70
 1214.60        2967.75           1459       31991.00    140014.10
 1214.63        2968.00           1462       31760.00    138998.60
 1214.66        2968.25           1466       30573.00    133781.70
 1214.69        2968.50           1469       29240.00    127925.10
 1214.72        2968.75           1472       27906.00    122066.10
 1214.75        2969.00           1476       26065.00    113983.70
 1214.78        2969.25           1479       24478.00    107019.60
 1214.81        2969.50           1482       23089.00    100926.80
 1214.84        2969.75           1486       21330.00     93214.10
 1214.87        2970.00           1489       19797.00     86495.30
 1214.91        2970.25           1492       18531.00     80948.74
 1214.94        2970.50           1496       16597.00     72479.15
 1214.97        2970.75           1499       15019.00     65571.76
 1215.00        2971.00           1502       13751.00     60023.42
 1215.03        2971.25           1506       11652.00     50842.97
 1215.06        2971.50           1509       10101.00     44062.57
 1215.09        2971.75           1513        8252.00     35983.02
 1215.12        2972.00           1516        6815.00     29706.50
 1215.15        2972.25           1519        5416.00     23598.22
 1215.18        2972.50           1523        3522.00     15332.25
 1215.22        2972.75           1526        2243.00      9752.64
 1215.25        2973.00           1529        1059.00      4589.12
 1215.28        2973.25           1533         441.00      1894.62
 1215.31        2973.50           1536         330.00      1410.70
 1215.34        2973.75           1539         267.00      1136.05
 1215.37        2974.00           1543         223.00       944.23
 1215.40        2974.25           1546         172.00       721.90
 1215.43        2974.50           1549         124.00       512.65
 1215.46        2974.75           1553          93.00       377.51
 1215.50        2975.00           1556          78.00       312.12
 1215.53        2975.25           1559          70.00       277.25
 1215.56        2975.50           1563          62.00       242.37
 1215.59        2975.75           1566          58.00       224.94
 1215.62        2976.00           1569          56.00       216.22
 1215.65        2976.25           1573          59.00       229.30
 1215.68        2976.50           1576          49.00       185.70
 1215.71        2976.75           1579          59.00       229.30
 1215.74        2977.00           1583          56.00       216.22
 1215.77        2977.25           1586          52.00       198.78
 1215.80        2977.50           1590          57.00       220.58
 1215.83        2977.75           1593          60.00       233.65
 1215.86        2978.00           1596          54.00       207.50
 1215.89        2978.25           1600          55.00       211.86
 1215.93        2978.50           1603          62.00       242.37
 1215.96        2978.75           1606          60.00       233.65
 1215.99        2979.00           1610          53.00       203.14
 1216.02        2979.25           1613          58.00       224.94
 1216.05        2979.50           1616          54.00       207.50
 1216.08        2979.75           1620          55.00       211.86
 1216.11        2980.00           1623          58.00       224.94
 1216.14        2980.25           1626          46.00       172.63
 1216.17        2980.50           1630          58.00       224.94
 1216.20        2980.75           1633          55.00       211.86
 1216.23        2981.00           1637          66.00       259.81
 1216.26        2981.25           1640          55.00       211.86
 1216.29        2981.50           1643          47.00       176.98
 1216.32        2981.75           1647          59.00       229.30
 1216.35        2982.00           1650          57.00       220.58
 1216.39        2982.25           1653          53.00       203.14
 1216.42        2982.50           1657          59.00       229.30
 1216.45        2982.75           1660          52.00       198.78
 1216.48        2983.00           1663          51.00       194.42
 1216.51        2983.25           1667          56.00       216.22
 1216.54        2983.50           1670          57.00       220.58
 1216.57        2983.75           1673          55.00       211.86
 1216.60        2984.00           1677          61.00       238.01
HS scan finished at 20:16:49
end
