************************************************************
  HS Scan of (1) Internal mercury lamp
************************************************************
Integration time is 0.2294 seconds per sample
dh270418Manchester 53.47 2.23 2.804185pr1000
************************************************************
Dead Time -------------------------  3E-08 
Number of Cycles Used -------------  4 
Starting Wavelength (Angstroms) ---  2950 
Final Wavelength (Angstoms) -------  2984 
Wavelength Increment (Angstroms) --  .25 
Filter Wheel #1 Position ---------- (1) Ground quartz diffuser (ND=2.32)
Filter Wheel #2 Position ---------- (1) Neutral Density 0.494



************************************************************
HS scan start time = 01:30:06
Dark Count =  7.4 


Time (GMT)  Wavelength (Ang)  Step Number  Raw Counts  Counts/Second

   90.48        2950.00           1222          62.00       238.01
   90.54        2950.25           1226          67.00       259.81
   90.57        2950.50           1229          74.00       290.33
   90.60        2950.75           1232          63.00       242.37
   90.63        2951.00           1236          65.00       251.09
   90.67        2951.25           1239          54.00       203.14
   90.70        2951.50           1242          57.00       216.22
   90.73        2951.75           1246          57.00       216.22
   90.76        2952.00           1249          55.00       207.50
   90.79        2952.25           1252          70.00       272.89
   90.82        2952.50           1256          58.00       220.58
   90.85        2952.75           1259          56.00       211.86
   90.88        2953.00           1262          58.00       220.58
   90.91        2953.25           1266          57.00       216.22
   90.94        2953.50           1269          53.00       198.78
   90.97        2953.75           1272          58.00       220.58
   91.00        2954.00           1276          64.00       246.73
   91.03        2954.25           1279          48.00       176.98
   91.07        2954.50           1282          61.00       233.65
   91.10        2954.75           1286          63.00       242.37
   91.13        2955.00           1289          59.00       224.94
   91.16        2955.25           1292          59.00       224.94
   91.19        2955.50           1296          63.00       242.37
   91.22        2955.75           1299          59.00       224.94
   91.25        2956.00           1302          58.00       220.58
   91.28        2956.25           1306          55.00       207.50
   91.31        2956.50           1309          61.00       233.65
   91.34        2956.75           1312          50.00       185.70
   91.37        2957.00           1316          50.00       185.70
   91.41        2957.25           1319          59.00       224.94
   91.44        2957.50           1322          60.00       229.30
   91.47        2957.75           1326          59.00       224.94
   91.50        2958.00           1329          59.00       224.94
   91.53        2958.25           1332          65.00       251.09
   91.56        2958.50           1336          61.00       233.65
   91.59        2958.75           1339          63.00       242.37
   91.62        2959.00           1342          64.00       246.73
   91.65        2959.25           1346          68.00       264.17
   91.68        2959.50           1349          69.00       268.53
   91.71        2959.75           1352          81.00       320.84
   91.74        2960.00           1356         119.00       486.49
   91.77        2960.25           1359         159.00       660.87
   91.80        2960.50           1362         184.00       769.85
   91.83        2960.75           1366         226.00       952.95
   91.87        2961.00           1369         280.00      1188.36
   91.90        2961.25           1372         305.00      1297.35
   91.93        2961.50           1376         376.00      1606.88
   91.96        2961.75           1379         560.00      2409.07
   91.99        2962.00           1382        1182.00      5121.10
   92.02        2962.25           1386        2845.00     12374.25
   92.05        2962.50           1389        4302.00     18731.54
   92.08        2962.75           1392        5719.00     24916.62
   92.11        2963.00           1396        7514.00     32754.93
   92.15        2963.25           1399        8933.00     38953.95
   92.18        2963.50           1402       10546.00     46003.29
   92.21        2963.75           1406       12667.00     55277.30
   92.24        2964.00           1409       14316.00     62491.07
   92.27        2964.25           1412       15714.00     68609.25
   92.30        2964.50           1416       17810.00     77786.36
   92.33        2964.75           1419       19151.00     83660.45
   92.36        2965.00           1422       20743.00     90636.71
   92.39        2965.25           1426       22863.00     99931.22
   92.42        2965.50           1429       24399.00    106668.60
   92.45        2965.75           1432       25890.00    113211.20
   92.48        2966.00           1436       27957.00    122285.60
   92.51        2966.25           1439       29166.00    127595.60
   92.54        2966.50           1442       30428.00    133140.20
   92.57        2966.75           1446       31779.00    139077.80
   92.61        2967.00           1449       32132.00    140629.50
   92.64        2967.25           1452       32134.00    140638.30
   92.67        2967.50           1456       32052.00    140277.90
   92.70        2967.75           1459       31962.00    139882.20
   92.73        2968.00           1462       31874.00    139495.40
   92.76        2968.25           1466       30932.00    135355.00
   92.79        2968.50           1469       29611.00    129550.50
   92.82        2968.75           1472       28234.00    123502.10
   92.85        2969.00           1476       26524.00    115994.10
   92.88        2969.25           1479       24966.00    109156.40
   92.91        2969.50           1482       23215.00    101475.00
   92.94        2969.75           1486       21331.00     93214.10
   92.98        2970.00           1489       20053.00     87612.71
   93.01        2970.25           1492       18576.00     81141.49
   93.04        2970.50           1496       16440.00     71787.38
   93.07        2970.75           1499       15020.00     65571.76
   93.10        2971.00           1502       13593.00     59327.82
   93.13        2971.25           1506       11709.00     51087.83
   93.16        2971.50           1509       10214.00     44552.10
   93.19        2971.75           1513        8442.00     36808.71
   93.22        2972.00           1516        6884.00     30003.46
   93.25        2972.25           1519        5427.00     23641.87
   93.28        2972.50           1523        3516.00     15301.71
   93.32        2972.75           1526        2090.00      9080.94
   93.35        2973.00           1529         975.00      4218.49
   93.38        2973.25           1533         416.00      1781.26
   93.41        2973.50           1536         299.00      1271.19
   93.44        2973.75           1539         234.00       987.82
   93.47        2974.00           1543         239.00      1009.62
   93.50        2974.25           1546         171.00       713.18
   93.53        2974.50           1549         125.00       512.65
   93.56        2974.75           1553          80.00       316.48
   93.59        2975.00           1556          75.00       294.68
   93.62        2975.25           1559          58.00       220.58
   93.65        2975.50           1563          60.00       229.30
   93.68        2975.75           1566          58.00       220.58
   93.71        2976.00           1569          52.00       194.42
   93.74        2976.25           1573          54.00       203.14
   93.77        2976.50           1576          56.00       211.86
   93.80        2976.75           1579          56.00       211.86
   93.84        2977.00           1583          48.00       176.98
   93.87        2977.25           1586          58.00       220.58
   93.90        2977.50           1590          58.00       220.58
   93.93        2977.75           1593          57.00       216.22
   93.96        2978.00           1596          52.00       194.42
   93.99        2978.25           1600          57.00       216.22
   94.02        2978.50           1603          60.00       229.30
   94.05        2978.75           1606          55.00       207.50
   94.08        2979.00           1610          60.00       229.30
   94.11        2979.25           1613          60.00       229.30
   94.14        2979.50           1616          58.00       220.58
   94.17        2979.75           1620          54.00       203.14
   94.20        2980.00           1623          52.00       194.42
   94.23        2980.25           1626          56.00       211.86
   94.26        2980.50           1630          55.00       207.50
   94.29        2980.75           1633          52.00       194.42
   94.32        2981.00           1637          58.00       220.58
   94.36        2981.25           1640          63.00       242.37
   94.39        2981.50           1643          58.00       220.58
   94.42        2981.75           1647          47.00       172.63
   94.45        2982.00           1650          51.00       190.06
   94.48        2982.25           1653          57.00       216.22
   94.51        2982.50           1657          57.00       216.22
   94.54        2982.75           1660          53.00       198.78
   94.57        2983.00           1663          48.00       176.98
   94.60        2983.25           1667          49.00       181.34
   94.63        2983.50           1670          54.00       203.14
   94.66        2983.75           1673          51.00       190.06
   94.69        2984.00           1677          53.00       198.78
HS scan finished at 01:34:55
end
************************************************************
  HS Scan of (1) Internal mercury lamp
************************************************************
Integration time is 0.2294 seconds per sample
dh270418Manchester 53.47 2.23 2.804185pr1000
************************************************************
Dead Time -------------------------  3E-08 
Number of Cycles Used -------------  4 
Starting Wavelength (Angstroms) ---  2950 
Final Wavelength (Angstoms) -------  2984 
Wavelength Increment (Angstroms) --  .25 
Filter Wheel #1 Position ---------- (1) Ground quartz diffuser (ND=2.32)
Filter Wheel #2 Position ---------- (1) Neutral Density 0.494



************************************************************
HS scan start time = 20:42:01
Dark Count =  5.5 


Time (GMT)  Wavelength (Ang)  Step Number  Raw Counts  Counts/Second

 1242.38        2950.00           1222          51.00       198.34
 1242.45        2950.25           1226          71.00       285.53
 1242.48        2950.50           1229          59.00       233.22
 1242.51        2950.75           1232          63.00       250.66
 1242.54        2951.00           1236          59.00       233.22
 1242.58        2951.25           1239          56.00       220.14
 1242.61        2951.50           1242          56.00       220.14
 1242.64        2951.75           1246          57.00       224.50
 1242.67        2952.00           1249          58.00       228.86
 1242.70        2952.25           1252          68.00       272.45
 1242.73        2952.50           1256          55.00       215.78
 1242.76        2952.75           1259          58.00       228.86
 1242.79        2953.00           1262          62.00       246.30
 1242.82        2953.25           1266          57.00       224.50
 1242.85        2953.50           1269          59.00       233.22
 1242.88        2953.75           1272          59.00       233.22
 1242.91        2954.00           1276          70.00       281.17
 1242.94        2954.25           1279          55.00       215.78
 1242.97        2954.50           1282          61.00       241.94
 1243.01        2954.75           1286          60.00       237.58
 1243.04        2955.00           1289          57.00       224.50
 1243.07        2955.25           1292          63.00       250.66
 1243.10        2955.50           1296          56.00       220.14
 1243.13        2955.75           1299          56.00       220.14
 1243.16        2956.00           1302          58.00       228.86
 1243.19        2956.25           1306          54.00       211.42
 1243.22        2956.50           1309          63.00       250.66
 1243.25        2956.75           1312          60.00       237.58
 1243.28        2957.00           1316          61.00       241.94
 1243.31        2957.25           1319          57.00       224.50
 1243.34        2957.50           1322          60.00       237.58
 1243.37        2957.75           1326          58.00       228.86
 1243.40        2958.00           1329          68.00       272.45
 1243.43        2958.25           1332          66.00       263.73
 1243.47        2958.50           1336          66.00       263.73
 1243.50        2958.75           1339          58.00       228.86
 1243.53        2959.00           1342          65.00       259.37
 1243.56        2959.25           1346          65.00       259.37
 1243.59        2959.50           1349          64.00       255.02
 1243.62        2959.75           1352          79.00       320.40
 1243.65        2960.00           1356          93.00       381.43
 1243.68        2960.25           1359         118.00       490.42
 1243.71        2960.50           1362         158.00       664.79
 1243.74        2960.75           1366         213.00       904.56
 1243.77        2961.00           1369         234.00       996.11
 1243.80        2961.25           1372         294.00      1257.68
 1243.84        2961.50           1376         354.00      1519.25
 1243.87        2961.75           1379         518.00      2234.24
 1243.90        2962.00           1382        1092.00      4736.94
 1243.93        2962.25           1386        2646.00     11514.44
 1243.96        2962.50           1389        4076.00     17753.57
 1243.99        2962.75           1392        5695.00     24820.13
 1244.02        2963.00           1396        7500.00     32702.08
 1244.05        2963.25           1399        9065.00     39539.03
 1244.08        2963.50           1402       10562.00     46081.54
 1244.11        2963.75           1406       12456.00     54362.78
 1244.14        2964.00           1409       14058.00     61370.52
 1244.18        2964.25           1412       15472.00     67558.33
 1244.21        2964.50           1416       17768.00     77610.75
 1244.24        2964.75           1419       19129.00     83572.40
 1244.27        2965.00           1422       20635.00     90171.68
 1244.30        2965.25           1426       22535.00     98501.19
 1244.33        2965.50           1429       23957.00    104737.90
 1244.36        2965.75           1432       25449.00    111284.20
 1244.39        2966.00           1436       27311.00    119457.40
 1244.42        2966.25           1439       28689.00    125508.70
 1244.45        2966.50           1442       30081.00    131623.80
 1244.48        2966.75           1446       31584.00    138229.00
 1244.52        2967.00           1449       32019.00    140141.10
 1244.55        2967.25           1452       32337.00    141539.10
 1244.58        2967.50           1456       32174.00    140822.50
 1244.61        2967.75           1459       32153.00    140730.20
 1244.64        2968.00           1462       32010.00    140101.60
 1244.67        2968.25           1466       31173.00    136422.50
 1244.70        2968.50           1469       29943.00    131017.40
 1244.73        2968.75           1472       28251.00    123585.10
 1244.76        2969.00           1476       26537.00    116059.50
 1244.79        2969.25           1479       25207.00    110222.20
 1244.82        2969.50           1482       23863.00    104325.60
 1244.85        2969.75           1486       21930.00     95848.44
 1244.89        2970.00           1489       20242.00     88449.31
 1244.92        2970.25           1492       18995.00     82985.33
 1244.95        2970.50           1496       16824.00     73476.96
 1244.98        2970.75           1499       15271.00     66678.59
 1245.01        2971.00           1502       13807.00     60272.36
 1245.04        2971.25           1506       11773.00     51375.99
 1245.07        2971.50           1509       10437.00     45535.14
 1245.10        2971.75           1513        8543.00     37258.28
 1245.13        2972.00           1516        6946.00     30282.51
 1245.17        2972.25           1519        5534.00     24117.27
 1245.20        2972.50           1523        3671.00     15986.31
 1245.23        2972.75           1526        2234.00      9717.31
 1245.26        2973.00           1529         955.00      4139.57
 1245.29        2973.25           1533         425.00      1828.78
 1245.32        2973.50           1536         301.00      1288.19
 1245.35        2973.75           1539         265.00      1131.25
 1245.38        2974.00           1543         226.00       961.23
 1245.41        2974.25           1546         160.00       673.51
 1245.45        2974.50           1549         134.00       560.17
 1245.48        2974.75           1553          97.00       398.87
 1245.51        2975.00           1556          73.00       294.25
 1245.54        2975.25           1559          69.00       276.81
 1245.57        2975.50           1563          65.00       259.37
 1245.60        2975.75           1566          56.00       220.14
 1245.63        2976.00           1569          57.00       224.50
 1245.66        2976.25           1573          53.00       207.06
 1245.69        2976.50           1576          53.00       207.06
 1245.72        2976.75           1579          58.00       228.86
 1245.75        2977.00           1583          55.00       215.78
 1245.78        2977.25           1586          59.00       233.22
 1245.81        2977.50           1590          61.00       241.94
 1245.84        2977.75           1593          52.00       202.70
 1245.87        2978.00           1596          61.00       241.94
 1245.91        2978.25           1600          53.00       207.06
 1245.94        2978.50           1603          57.00       224.50
 1245.97        2978.75           1606          49.00       189.63
 1246.00        2979.00           1610          58.00       228.86
 1246.03        2979.25           1613          54.00       211.42
 1246.06        2979.50           1616          54.00       211.42
 1246.09        2979.75           1620          53.00       207.06
 1246.12        2980.00           1623          53.00       207.06
 1246.15        2980.25           1626          58.00       228.86
 1246.18        2980.50           1630          61.00       241.94
 1246.21        2980.75           1633          63.00       250.66
 1246.24        2981.00           1637          56.00       220.14
 1246.27        2981.25           1640          51.00       198.34
 1246.31        2981.50           1643          52.00       202.70
 1246.34        2981.75           1647          53.00       207.06
 1246.37        2982.00           1650          57.00       224.50
 1246.40        2982.25           1653          52.00       202.70
 1246.43        2982.50           1657          58.00       228.86
 1246.46        2982.75           1660          48.00       185.27
 1246.49        2983.00           1663          54.00       211.42
 1246.52        2983.25           1667          48.00       185.27
 1246.55        2983.50           1670          51.00       198.34
 1246.58        2983.75           1673          61.00       241.94
 1246.61        2984.00           1677          53.00       207.06
HS scan finished at 20:46:50
end
