************************************************************
  HS Scan of (1) Internal mercury lamp
************************************************************
Integration time is 0.2294 seconds per sample
dh210418Manchester 53.47 2.23 2.804185pr1000
************************************************************
Dead Time -------------------------  3E-08 
Number of Cycles Used -------------  4 
Starting Wavelength (Angstroms) ---  2950 
Final Wavelength (Angstoms) -------  2984 
Wavelength Increment (Angstroms) --  .25 
Filter Wheel #1 Position ---------- (1) Ground quartz diffuser (ND=2.32)
Filter Wheel #2 Position ---------- (1) Neutral Density 0.494



************************************************************
HS scan start time = 01:21:51
Dark Count =  5.9 


Time (GMT)  Wavelength (Ang)  Step Number  Raw Counts  Counts/Second

   82.21        2950.00           1222          64.00       253.27
   82.28        2950.25           1226          61.00       240.19
   82.31        2950.50           1229          58.00       227.12
   82.34        2950.75           1232          57.00       222.76
   82.37        2951.00           1236          56.00       218.40
   82.40        2951.25           1239          57.00       222.76
   82.44        2951.50           1242          62.00       244.55
   82.47        2951.75           1246          49.00       187.88
   82.50        2952.00           1249          64.00       253.27
   82.53        2952.25           1252          61.00       240.19
   82.56        2952.50           1256          58.00       227.12
   82.59        2952.75           1259          64.00       253.27
   82.62        2953.00           1262          61.00       240.19
   82.65        2953.25           1266          62.00       244.55
   82.68        2953.50           1269          64.00       253.27
   82.71        2953.75           1272          54.00       209.68
   82.74        2954.00           1276          56.00       218.40
   82.77        2954.25           1279          67.00       266.35
   82.80        2954.50           1282          60.00       235.83
   82.84        2954.75           1286          55.00       214.04
   82.87        2955.00           1289          61.00       240.19
   82.90        2955.25           1292          60.00       235.83
   82.93        2955.50           1296          54.00       209.68
   82.96        2955.75           1299          60.00       235.83
   82.99        2956.00           1302          62.00       244.55
   83.02        2956.25           1306          58.00       227.12
   83.05        2956.50           1309          58.00       227.12
   83.08        2956.75           1312          60.00       235.83
   83.11        2957.00           1316          71.00       283.79
   83.15        2957.25           1319          61.00       240.19
   83.18        2957.50           1322          58.00       227.12
   83.21        2957.75           1326          62.00       244.55
   83.24        2958.00           1329          60.00       235.83
   83.27        2958.25           1332          67.00       266.35
   83.30        2958.50           1336          59.00       231.48
   83.33        2958.75           1339          64.00       253.27
   83.36        2959.00           1342          62.00       244.55
   83.39        2959.25           1346          75.00       301.22
   83.42        2959.50           1349          73.00       292.50
   83.45        2959.75           1352          74.00       296.86
   83.48        2960.00           1356         100.00       410.21
   83.52        2960.25           1359         158.00       663.05
   83.55        2960.50           1362         182.00       767.67
   83.58        2960.75           1366         237.00      1007.44
   83.61        2961.00           1369         276.00      1177.46
   83.64        2961.25           1372         291.00      1242.85
   83.67        2961.50           1376         376.00      1613.42
   83.70        2961.75           1379         454.00      1953.47
   83.73        2962.00           1382         799.00      3457.64
   83.76        2962.25           1386        2203.00      9580.35
   83.79        2962.50           1389        3513.00     15295.16
   83.82        2962.75           1392        4922.00     21444.04
   83.85        2963.00           1396        6724.00     29311.29
   83.89        2963.25           1399        8280.00     36107.53
   83.92        2963.50           1402        9704.00     42329.66
   83.95        2963.75           1406       11847.00     51697.82
   83.98        2964.00           1409       13202.00     57623.94
   84.01        2964.25           1412       14867.00     64908.75
   84.04        2964.50           1416       16935.00     73961.23
   84.07        2964.75           1419       18250.00     79720.07
   84.10        2965.00           1422       19828.00     86633.33
   84.13        2965.25           1426       21848.00     95487.19
   84.17        2965.50           1429       23406.00    102319.30
   84.20        2965.75           1432       24756.00    108241.50
   84.23        2966.00           1436       26718.00    116852.20
   84.26        2966.25           1439       28120.00    123008.00
   84.29        2966.50           1442       29615.00    129574.60
   84.32        2966.75           1446       31108.00    136135.10
   84.35        2967.00           1449       31746.00    138939.30
   84.38        2967.25           1452       32084.00    140425.10
   84.41        2967.50           1456       31853.00    139409.60
   84.44        2967.75           1459       32095.00    140473.50
   84.48        2968.00           1462       31920.00    139704.20
   84.51        2968.25           1466       31459.00    137677.80
   84.54        2968.50           1469       30429.00    133151.10
   84.57        2968.75           1472       29191.00    127712.00
   84.60        2969.00           1476       27063.00    118366.80
   84.63        2969.25           1479       25695.00    112362.00
   84.66        2969.50           1482       24143.00    105552.10
   84.69        2969.75           1486       22198.00     97021.74
   84.72        2970.00           1489       20741.00     90634.51
   84.76        2970.25           1492       19298.00     84311.06
   84.79        2970.50           1496       17425.00     76106.88
   84.82        2970.75           1499       15987.00     69810.84
   84.85        2971.00           1502       14556.00     63547.81
   84.88        2971.25           1506       12573.00     54872.74
   84.91        2971.50           1509       10997.00     47981.40
   84.94        2971.75           1513        9106.00     39716.43
   84.97        2972.00           1516        7560.00     32962.40
   85.00        2972.25           1519        6140.00     26761.23
   85.04        2972.50           1523        4286.00     18668.26
   85.07        2972.75           1526        2843.00     12372.07
   85.10        2973.00           1529        1590.00      6906.84
   85.13        2973.25           1533         543.00      2341.49
   85.16        2973.50           1536         331.00      1417.24
   85.19        2973.75           1539         274.00      1168.74
   85.22        2974.00           1543         236.00      1003.08
   85.25        2974.25           1546         186.00       785.11
   85.28        2974.50           1549         135.00       562.78
   85.31        2974.75           1553         105.00       432.00
   85.34        2975.00           1556          81.00       327.38
   85.37        2975.25           1559          63.00       248.91
   85.40        2975.50           1563          59.00       231.48
   85.43        2975.75           1566          59.00       231.48
   85.47        2976.00           1569          61.00       240.19
   85.50        2976.25           1573          54.00       209.68
   85.53        2976.50           1576          53.00       205.32
   85.56        2976.75           1579          50.00       192.24
   85.59        2977.00           1583          63.00       248.91
   85.62        2977.25           1586          55.00       214.04
   85.65        2977.50           1590          56.00       218.40
   85.68        2977.75           1593          67.00       266.35
   85.71        2978.00           1596          62.00       244.55
   85.74        2978.25           1600          60.00       235.83
   85.77        2978.50           1603          56.00       218.40
   85.80        2978.75           1606          57.00       222.76
   85.83        2979.00           1610          55.00       214.04
   85.86        2979.25           1613          60.00       235.83
   85.89        2979.50           1616          64.00       253.27
   85.92        2979.75           1620          58.00       227.12
   85.95        2980.00           1623          56.00       218.40
   85.99        2980.25           1626          64.00       253.27
   86.02        2980.50           1630          60.00       235.83
   86.05        2980.75           1633          47.00       179.16
   86.08        2981.00           1637          53.00       205.32
   86.11        2981.25           1640          54.00       209.68
   86.14        2981.50           1643          54.00       209.68
   86.17        2981.75           1647          56.00       218.40
   86.20        2982.00           1650          55.00       214.04
   86.23        2982.25           1653          54.00       209.68
   86.26        2982.50           1657          59.00       231.48
   86.29        2982.75           1660          54.00       209.68
   86.32        2983.00           1663          52.00       200.96
   86.36        2983.25           1667          49.00       187.88
   86.39        2983.50           1670          54.00       209.68
   86.42        2983.75           1673          57.00       222.76
   86.45        2984.00           1677          52.00       200.96
HS scan finished at 01:26:40
end
************************************************************
  HS Scan of (1) Internal mercury lamp
************************************************************
Integration time is 0.2294 seconds per sample
dh210418Manchester 53.47 2.23 3.072425pr1000
************************************************************
Dead Time -------------------------  3E-08 
Number of Cycles Used -------------  4 
Starting Wavelength (Angstroms) ---  2950 
Final Wavelength (Angstoms) -------  2984 
Wavelength Increment (Angstroms) --  .25 
Filter Wheel #1 Position ---------- (1) Ground quartz diffuser (ND=2.32)
Filter Wheel #2 Position ---------- (1) Neutral Density 0.494



************************************************************
HS scan start time = 20:12:06
Dark Count =  5.6 


Time (GMT)  Wavelength (Ang)  Step Number  Raw Counts  Counts/Second

 1212.48        2950.00           1222          55.00       215.35
 1212.54        2950.25           1226          62.00       245.86
 1212.57        2950.50           1229          51.00       197.91
 1212.61        2950.75           1232          61.00       241.50
 1212.64        2951.00           1236          59.00       232.78
 1212.67        2951.25           1239          58.00       228.42
 1212.70        2951.50           1242          61.00       241.50
 1212.73        2951.75           1246          56.00       219.71
 1212.76        2952.00           1249          69.00       276.38
 1212.79        2952.25           1252          51.00       197.91
 1212.82        2952.50           1256          59.00       232.78
 1212.85        2952.75           1259          69.00       276.38
 1212.88        2953.00           1262          62.00       245.86
 1212.91        2953.25           1266          52.00       202.27
 1212.95        2953.50           1269          64.00       254.58
 1212.98        2953.75           1272          57.00       224.06
 1213.01        2954.00           1276          58.00       228.42
 1213.04        2954.25           1279          55.00       215.35
 1213.07        2954.50           1282          51.00       197.91
 1213.10        2954.75           1286          68.00       272.02
 1213.13        2955.00           1289          54.00       210.99
 1213.16        2955.25           1292          57.00       224.06
 1213.19        2955.50           1296          55.00       215.35
 1213.22        2955.75           1299          61.00       241.50
 1213.25        2956.00           1302          66.00       263.30
 1213.29        2956.25           1306          60.00       237.14
 1213.32        2956.50           1309          57.00       224.06
 1213.35        2956.75           1312          57.00       224.06
 1213.38        2957.00           1316          61.00       241.50
 1213.41        2957.25           1319          57.00       224.06
 1213.44        2957.50           1322          52.00       202.27
 1213.47        2957.75           1326          58.00       228.42
 1213.50        2958.00           1329          61.00       241.50
 1213.53        2958.25           1332          53.00       206.63
 1213.56        2958.50           1336          54.00       210.99
 1213.59        2958.75           1339          59.00       232.78
 1213.63        2959.00           1342          56.00       219.71
 1213.66        2959.25           1346          64.00       254.58
 1213.69        2959.50           1349          74.00       298.17
 1213.72        2959.75           1352          87.00       354.84
 1213.75        2960.00           1356         126.00       524.86
 1213.78        2960.25           1359         155.00       651.28
 1213.81        2960.50           1362         208.00       882.32
 1213.84        2960.75           1366         257.00      1095.94
 1213.88        2961.00           1369         296.00      1265.96
 1213.91        2961.25           1372         323.00      1383.67
 1213.94        2961.50           1376         441.00      1898.10
 1213.97        2961.75           1379         662.00      2861.62
 1214.00        2962.00           1382        1440.00      6254.01
 1214.03        2962.25           1386        3368.00     14663.82
 1214.06        2962.50           1389        4823.00     21013.24
 1214.09        2962.75           1392        6373.00     27779.90
 1214.12        2963.00           1396        8659.00     37764.65
 1214.16        2963.25           1399       10236.00     44656.13
 1214.19        2963.50           1402       11904.00     51948.38
 1214.22        2963.75           1406       14036.00     61273.82
 1214.25        2964.00           1409       15769.00     68857.88
 1214.28        2964.25           1412       17487.00     76379.71
 1214.31        2964.50           1416       19636.00     85793.33
 1214.34        2964.75           1419       21198.00     92638.97
 1214.37        2965.00           1422       22731.00     99360.25
 1214.41        2965.25           1426       25152.00    109980.40
 1214.44        2965.50           1429       26997.00    118078.40
 1214.47        2965.75           1432       28616.00    125187.70
 1214.50        2966.00           1436       30819.00    134866.30
 1214.53        2966.25           1439       32208.00    140971.60
 1214.56        2966.50           1442       33806.00    147998.30
 1214.59        2966.75           1446       34925.00    152920.50
 1214.62        2967.00           1449       35398.00    155001.60
 1214.65        2967.25           1452       35288.00    154517.60
 1214.69        2967.50           1456       35255.00    154372.40
 1214.72        2967.75           1459       35219.00    154214.00
 1214.75        2968.00           1462       35120.00    153778.40
 1214.78        2968.25           1466       33652.00    147321.00
 1214.81        2968.50           1469       32159.00    140756.20
 1214.84        2968.75           1472       30553.00    133697.40
 1214.87        2969.00           1476       28546.00    124880.20
 1214.90        2969.25           1479       26861.00    117481.30
 1214.93        2969.50           1482       25059.00    109572.30
 1214.97        2969.75           1486       22906.00    100127.70
 1215.00        2970.00           1489       21425.00     93634.06
 1215.03        2970.25           1492       19842.00     86695.99
 1215.06        2970.50           1496       17706.00     77338.78
 1215.09        2970.75           1499       16157.00     70556.35
 1215.12        2971.00           1502       14614.00     63802.92
 1215.15        2971.25           1506       12676.00     55324.53
 1215.18        2971.50           1509       10987.00     47938.99
 1215.22        2971.75           1513        8745.00     38140.40
 1215.25        2972.00           1516        6989.00     30469.86
 1215.28        2972.25           1519        5371.00     23405.27
 1215.31        2972.50           1523        3172.00     13808.68
 1215.34        2972.75           1526        1776.00      7719.31
 1215.37        2973.00           1529         797.00      3450.23
 1215.40        2973.25           1533         411.00      1767.31
 1215.43        2973.50           1536         328.00      1405.46
 1215.46        2973.75           1539         271.00      1156.97
 1215.49        2974.00           1543         223.00       947.72
 1215.53        2974.25           1546         170.00       716.67
 1215.56        2974.50           1549         122.00       507.42
 1215.59        2974.75           1553          76.00       306.89
 1215.62        2975.00           1556          69.00       276.38
 1215.65        2975.25           1559          63.00       250.22
 1215.68        2975.50           1563          59.00       232.78
 1215.71        2975.75           1566          56.00       219.71
 1215.74        2976.00           1569          59.00       232.78
 1215.77        2976.25           1573          62.00       245.86
 1215.80        2976.50           1576          56.00       219.71
 1215.84        2976.75           1579          62.00       245.86
 1215.87        2977.00           1583          58.00       228.42
 1215.90        2977.25           1586          52.00       202.27
 1215.93        2977.50           1590          54.00       210.99
 1215.96        2977.75           1593          61.00       241.50
 1215.99        2978.00           1596          58.00       228.42
 1216.02        2978.25           1600          60.00       237.14
 1216.05        2978.50           1603          49.00       189.19
 1216.08        2978.75           1606          53.00       206.63
 1216.11        2979.00           1610          57.00       224.06
 1216.14        2979.25           1613          52.00       202.27
 1216.18        2979.50           1616          61.00       241.50
 1216.21        2979.75           1620          60.00       237.14
 1216.24        2980.00           1623          52.00       202.27
 1216.27        2980.25           1626          61.00       241.50
 1216.30        2980.50           1630          54.00       210.99
 1216.33        2980.75           1633          61.00       241.50
 1216.36        2981.00           1637          52.00       202.27
 1216.39        2981.25           1640          52.00       202.27
 1216.42        2981.50           1643          64.00       254.58
 1216.45        2981.75           1647          56.00       219.71
 1216.48        2982.00           1650          53.00       206.63
 1216.51        2982.25           1653          52.00       202.27
 1216.55        2982.50           1657          49.00       189.19
 1216.58        2982.75           1660          56.00       219.71
 1216.61        2983.00           1663          49.00       189.19
 1216.64        2983.25           1667          59.00       232.78
 1216.67        2983.50           1670          54.00       210.99
 1216.70        2983.75           1673          49.00       189.19
 1216.73        2984.00           1677          55.00       215.35
HS scan finished at 20:16:57
end
