************************************************************
  HS Scan of (1) Internal mercury lamp
************************************************************
Integration time is 0.2294 seconds per sample
dh200419Manchester 53.47 2.23 2.804185pr1000
************************************************************
Dead Time -------------------------  3E-08 
Number of Cycles Used -------------  4 
Starting Wavelength (Angstroms) ---  2950 
Final Wavelength (Angstoms) -------  2984 
Wavelength Increment (Angstroms) --  .25 
Filter Wheel #1 Position ---------- (1) Ground quartz diffuser (ND=2.32)
Filter Wheel #2 Position ---------- (1) Neutral Density 0.494



************************************************************
HS scan start time = 01:32:01
Dark Count =  7.5 


Time (GMT)  Wavelength (Ang)  Step Number  Raw Counts  Counts/Second

   92.39        2950.00           1222          63.00       241.94
   92.46        2950.25           1226          61.00       233.22
   92.49        2950.50           1229          54.00       202.70
   92.52        2950.75           1232          69.00       268.09
   92.55        2951.00           1236          46.00       167.83
   92.58        2951.25           1239          48.00       176.55
   92.61        2951.50           1242          62.00       237.58
   92.64        2951.75           1246          63.00       241.94
   92.67        2952.00           1249          53.00       198.34
   92.70        2952.25           1252          54.00       202.70
   92.73        2952.50           1256          57.00       215.78
   92.77        2952.75           1259          52.00       193.99
   92.80        2953.00           1262          60.00       228.86
   92.83        2953.25           1266          54.00       202.70
   92.86        2953.50           1269          49.00       180.91
   92.89        2953.75           1272          53.00       198.34
   92.92        2954.00           1276          59.00       224.50
   92.95        2954.25           1279          56.00       211.42
   92.98        2954.50           1282          52.00       193.99
   93.01        2954.75           1286          59.00       224.50
   93.05        2955.00           1289          53.00       198.34
   93.08        2955.25           1292          55.00       207.06
   93.11        2955.50           1296          52.00       193.99
   93.14        2955.75           1299          51.00       189.63
   93.17        2956.00           1302          59.00       224.50
   93.20        2956.25           1306          53.00       198.34
   93.23        2956.50           1309          52.00       193.99
   93.26        2956.75           1312          52.00       193.99
   93.29        2957.00           1316          53.00       198.34
   93.32        2957.25           1319          51.00       189.63
   93.36        2957.50           1322          64.00       246.30
   93.39        2957.75           1326          55.00       207.06
   93.42        2958.00           1329          56.00       211.42
   93.45        2958.25           1332          55.00       207.06
   93.48        2958.50           1336          65.00       250.66
   93.51        2958.75           1339          58.00       220.14
   93.54        2959.00           1342          51.00       189.63
   93.57        2959.25           1346          57.00       215.78
   93.61        2959.50           1349          59.00       224.50
   93.64        2959.75           1352          70.00       272.45
   93.67        2960.00           1356          94.00       377.07
   93.70        2960.25           1359         134.00       551.45
   93.73        2960.50           1362         147.00       608.12
   93.76        2960.75           1366         191.00       799.93
   93.79        2961.00           1369         231.00       974.31
   93.82        2961.25           1372         260.00      1100.73
   93.85        2961.50           1376         303.00      1288.19
   93.88        2961.75           1379         410.00      1754.67
   93.92        2962.00           1382         838.00      3620.71
   93.95        2962.25           1386        2091.00      9084.87
   93.98        2962.50           1389        3290.00     14315.21
   94.01        2962.75           1392        4508.00     19630.13
   94.04        2963.00           1396        6082.00     26501.01
   94.07        2963.25           1399        7397.00     32243.47
   94.10        2963.50           1402        8565.00     37345.66
   94.13        2963.75           1406       10284.00     44857.62
   94.16        2964.00           1409       11534.00     50322.21
   94.19        2964.25           1412       12981.00     56650.26
   94.23        2964.50           1416       14484.00     63225.74
   94.26        2964.75           1419       15631.00     68245.51
   94.29        2965.00           1422       16850.00     73582.04
   94.32        2965.25           1426       18562.00     81079.72
   94.35        2965.50           1429       19686.00     86004.09
   94.38        2965.75           1432       21097.00     92187.91
   94.41        2966.00           1436       22801.00     99658.90
   94.44        2966.25           1439       23920.00    104566.80
   94.48        2966.50           1442       25152.00    109972.10
   94.51        2966.75           1446       26319.00    115093.80
   94.54        2967.00           1449       26679.00    116674.00
   94.57        2967.25           1452       26769.00    117069.10
   94.60        2967.50           1456       26600.00    116327.20
   94.63        2967.75           1459       26725.00    116876.00
   94.66        2968.00           1462       26685.00    116700.40
   94.69        2968.25           1466       26052.00    113921.80
   94.72        2968.50           1469       24954.00    109103.30
   94.76        2968.75           1472       23879.00    104387.00
   94.79        2969.00           1476       22204.00     97041.04
   94.82        2969.25           1479       20895.00     91302.50
   94.85        2969.50           1482       19626.00     85741.19
   94.88        2969.75           1486       17956.00     78425.37
   94.91        2970.00           1489       16812.00     73415.66
   94.94        2970.25           1492       15647.00     68315.55
   94.97        2970.50           1496       13901.00     60674.86
   95.01        2970.75           1499       12878.00     56199.73
   95.04        2971.00           1502       11754.00     51284.16
   95.07        2971.25           1506       10152.00     44280.67
   95.10        2971.50           1509        8895.00     38787.48
   95.13        2971.75           1513        7197.00     31369.96
   95.16        2972.00           1516        5834.00     25418.24
   95.19        2972.25           1519        4622.00     20127.67
   95.22        2972.50           1523        3041.00     13228.88
   95.25        2972.75           1526        1945.00      8448.09
   95.29        2973.00           1529         931.00      4026.21
   95.32        2973.25           1533         376.00      1606.44
   95.35        2973.50           1536         267.00      1131.25
   95.38        2973.75           1539         228.00       961.23
   95.41        2974.00           1543         200.00       839.17
   95.44        2974.25           1546         147.00       608.12
   95.47        2974.50           1549         125.00       512.21
   95.50        2974.75           1553          81.00       320.40
   95.53        2975.00           1556          66.00       255.02
   95.56        2975.25           1559          61.00       233.22
   95.59        2975.50           1563          53.00       198.34
   95.63        2975.75           1566          56.00       211.42
   95.66        2976.00           1569          50.00       185.27
   95.69        2976.25           1573          47.00       172.19
   95.72        2976.50           1576          47.00       172.19
   95.75        2976.75           1579          46.00       167.83
   95.78        2977.00           1583          55.00       207.06
   95.81        2977.25           1586          56.00       211.42
   95.84        2977.50           1590          51.00       189.63
   95.87        2977.75           1593          52.00       193.99
   95.91        2978.00           1596          49.00       180.91
   95.94        2978.25           1600          54.00       202.70
   95.97        2978.50           1603          53.00       198.34
   96.00        2978.75           1606          50.00       185.27
   96.03        2979.00           1610          49.00       180.91
   96.06        2979.25           1613          48.00       176.55
   96.09        2979.50           1616          51.00       189.63
   96.12        2979.75           1620          52.00       193.99
   96.15        2980.00           1623          53.00       198.34
   96.18        2980.25           1626          55.00       207.06
   96.22        2980.50           1630          47.00       172.19
   96.25        2980.75           1633          48.00       176.55
   96.28        2981.00           1637          53.00       198.34
   96.31        2981.25           1640          55.00       207.06
   96.34        2981.50           1643          53.00       198.34
   96.37        2981.75           1647          49.00       180.91
   96.40        2982.00           1650          47.00       172.19
   96.43        2982.25           1653          51.00       189.63
   96.46        2982.50           1657          56.00       211.42
   96.49        2982.75           1660          47.00       172.19
   96.53        2983.00           1663          53.00       198.34
   96.56        2983.25           1667          54.00       202.70
   96.59        2983.50           1670          52.00       193.99
   96.62        2983.75           1673          54.00       202.70
   96.65        2984.00           1677          47.00       172.19
HS scan finished at 01:36:52
end
************************************************************
  HS Scan of (1) Internal mercury lamp
************************************************************
Integration time is 0.2294 seconds per sample
dh200419Manchester 53.47 2.23 3.072425pr1000
************************************************************
Dead Time -------------------------  3E-08 
Number of Cycles Used -------------  4 
Starting Wavelength (Angstroms) ---  2950 
Final Wavelength (Angstoms) -------  2984 
Wavelength Increment (Angstroms) --  .25 
Filter Wheel #1 Position ---------- (1) Ground quartz diffuser (ND=2.32)
Filter Wheel #2 Position ---------- (1) Neutral Density 0.494



************************************************************
HS scan start time = 20:12:21
Dark Count =  8.100001 


Time (GMT)  Wavelength (Ang)  Step Number  Raw Counts  Counts/Second

 1212.72        2950.00           1222          59.00       221.88
 1212.78        2950.25           1226          62.00       234.96
 1212.82        2950.50           1229          62.00       234.96
 1212.85        2950.75           1232          56.00       208.81
 1212.88        2951.00           1236          51.00       187.01
 1212.91        2951.25           1239          58.00       217.53
 1212.94        2951.50           1242          51.00       187.01
 1212.97        2951.75           1246          57.00       213.17
 1213.00        2952.00           1249          58.00       217.53
 1213.03        2952.25           1252          45.00       160.86
 1213.06        2952.50           1256          50.00       182.65
 1213.09        2952.75           1259          56.00       208.81
 1213.13        2953.00           1262          57.00       213.17
 1213.16        2953.25           1266          47.00       169.57
 1213.19        2953.50           1269          52.00       191.37
 1213.22        2953.75           1272          57.00       213.17
 1213.25        2954.00           1276          51.00       187.01
 1213.28        2954.25           1279          53.00       195.73
 1213.31        2954.50           1282          58.00       217.53
 1213.34        2954.75           1286          55.00       204.45
 1213.37        2955.00           1289          54.00       200.09
 1213.41        2955.25           1292          51.00       187.01
 1213.44        2955.50           1296          52.00       191.37
 1213.47        2955.75           1299          55.00       204.45
 1213.50        2956.00           1302          55.00       204.45
 1213.53        2956.25           1306          52.00       191.37
 1213.56        2956.50           1309          51.00       187.01
 1213.59        2956.75           1312          51.00       187.01
 1213.62        2957.00           1316          51.00       187.01
 1213.65        2957.25           1319          55.00       204.45
 1213.68        2957.50           1322          58.00       217.53
 1213.71        2957.75           1326          52.00       191.37
 1213.75        2958.00           1329          54.00       200.09
 1213.78        2958.25           1332          60.00       226.24
 1213.81        2958.50           1336          49.00       178.29
 1213.84        2958.75           1339          54.00       200.09
 1213.87        2959.00           1342          58.00       217.53
 1213.90        2959.25           1346          54.00       200.09
 1213.93        2959.50           1349          66.00       252.40
 1213.96        2959.75           1352          86.00       339.59
 1213.99        2960.00           1356         108.00       435.49
 1214.03        2960.25           1359         135.00       553.19
 1214.06        2960.50           1362         177.00       736.28
 1214.09        2960.75           1366         219.00       919.38
 1214.12        2961.00           1369         254.00      1071.96
 1214.15        2961.25           1372         297.00      1259.42
 1214.18        2961.50           1376         400.00      1708.46
 1214.21        2961.75           1379         715.00      3081.80
 1214.24        2962.00           1382        1661.00      7206.88
 1214.27        2962.25           1386        3358.00     14609.28
 1214.30        2962.50           1389        4899.00     21334.05
 1214.34        2962.75           1392        6223.00     27114.02
 1214.37        2963.00           1396        8107.00     35342.16
 1214.40        2963.25           1399        9449.00     41205.66
 1214.43        2963.50           1402       10850.00     47329.15
 1214.46        2963.75           1406       12762.00     55689.74
 1214.49        2964.00           1409       14037.00     61267.27
 1214.52        2964.25           1412       15567.00     67962.76
 1214.55        2964.50           1416       17528.00     76548.31
 1214.58        2964.75           1419       18881.00     82474.52
 1214.62        2965.00           1422       20545.00     89765.83
 1214.65        2965.25           1426       22348.00     97669.81
 1214.68        2965.50           1429       23761.00    103866.70
 1214.71        2965.75           1432       25222.00    110276.60
 1214.74        2966.00           1436       27062.00    118352.80
 1214.77        2966.25           1439       28279.00    123696.60
 1214.80        2966.50           1442       29488.00    129007.10
 1214.83        2966.75           1446       30486.00    133391.90
 1214.86        2967.00           1449       30482.00    133374.40
 1214.90        2967.25           1452       30659.00    134152.20
 1214.93        2967.50           1456       30626.00    134007.10
 1214.96        2967.75           1459       30416.00    133084.40
 1214.99        2968.00           1462       30280.00    132486.80
 1215.02        2968.25           1466       28814.00    126046.40
 1215.05        2968.50           1469       27382.00    119757.70
 1215.08        2968.75           1472       26255.00    114810.20
 1215.11        2969.00           1476       24406.00    106696.30
 1215.14        2969.25           1479       22970.00    100397.40
 1215.18        2969.50           1482       21638.00     94556.87
 1215.21        2969.75           1486       19721.00     86154.84
 1215.24        2970.00           1489       18371.00     80240.44
 1215.27        2970.25           1492       17078.00     74577.75
 1215.30        2970.50           1496       15168.00     66216.41
 1215.33        2970.75           1499       13670.00     59661.62
 1215.36        2971.00           1502       12235.00     53384.92
 1215.39        2971.25           1506       10370.00     45230.91
 1215.42        2971.50           1509        8864.00     38649.41
 1215.46        2971.75           1513        6948.00     30279.89
 1215.49        2972.00           1516        5618.00     24472.63
 1215.52        2972.25           1519        4352.00     18946.69
 1215.55        2972.50           1523        2525.00     10975.28
 1215.58        2972.75           1526        1293.00      5602.08
 1215.61        2973.00           1529         588.00      2528.09
 1215.64        2973.25           1533         354.00      1507.91
 1215.67        2973.50           1536         296.00      1255.06
 1215.70        2973.75           1539         239.00      1006.57
 1215.74        2974.00           1543         197.00       823.47
 1215.77        2974.25           1546         142.00       583.71
 1215.80        2974.50           1549         108.00       435.49
 1215.83        2974.75           1553          73.00       282.91
 1215.86        2975.00           1556          74.00       287.27
 1215.89        2975.25           1559          55.00       204.45
 1215.92        2975.50           1563          52.00       191.37
 1215.95        2975.75           1566          47.00       169.57
 1215.98        2976.00           1569          52.00       191.37
 1216.01        2976.25           1573          55.00       204.45
 1216.04        2976.50           1576          58.00       217.53
 1216.08        2976.75           1579          53.00       195.73
 1216.11        2977.00           1583          52.00       191.37
 1216.14        2977.25           1586          52.00       191.37
 1216.17        2977.50           1590          50.00       182.65
 1216.20        2977.75           1593          48.00       173.93
 1216.23        2978.00           1596          52.00       191.37
 1216.26        2978.25           1600          56.00       208.81
 1216.29        2978.50           1603          59.00       221.88
 1216.32        2978.75           1606          49.00       178.29
 1216.35        2979.00           1610          54.00       200.09
 1216.39        2979.25           1613          59.00       221.88
 1216.42        2979.50           1616          51.00       187.01
 1216.45        2979.75           1620          53.00       195.73
 1216.48        2980.00           1623          52.00       191.37
 1216.51        2980.25           1626          51.00       187.01
 1216.54        2980.50           1630          47.00       169.57
 1216.57        2980.75           1633          53.00       195.73
 1216.60        2981.00           1637          50.00       182.65
 1216.63        2981.25           1640          50.00       182.65
 1216.66        2981.50           1643          50.00       182.65
 1216.69        2981.75           1647          44.00       156.50
 1216.72        2982.00           1650          53.00       195.73
 1216.75        2982.25           1653          56.00       208.81
 1216.79        2982.50           1657          46.00       165.21
 1216.82        2982.75           1660          54.00       200.09
 1216.85        2983.00           1663          49.00       178.29
 1216.88        2983.25           1667          45.00       160.86
 1216.91        2983.50           1670          52.00       191.37
 1216.94        2983.75           1673          48.00       173.93
 1216.97        2984.00           1677          49.00       178.29
HS scan finished at 20:17:11
end
