************************************************************
  HS Scan of (1) Internal mercury lamp
************************************************************
Integration time is 0.2294 seconds per sample
dh240417Manchester 53.47 2.23 2.804185pr1000
************************************************************
Dead Time -------------------------  3E-08 
Number of Cycles Used -------------  4 
Starting Wavelength (Angstroms) ---  2950 
Final Wavelength (Angstoms) -------  2984 
Wavelength Increment (Angstroms) --  .25 
Filter Wheel #1 Position ---------- (1) Ground quartz diffuser (ND=2.32)
Filter Wheel #2 Position ---------- (1) Neutral Density 0.494



************************************************************
HS scan start time = 01:35:22
Dark Count =  8.8 


Time (GMT)  Wavelength (Ang)  Step Number  Raw Counts  Counts/Second

   95.74        2950.00           1222          43.00       149.09
   95.81        2950.25           1226          52.00       188.32
   95.84        2950.50           1229          42.00       144.73
   95.87        2950.75           1232          52.00       188.32
   95.90        2951.00           1236          44.00       153.44
   95.93        2951.25           1239          47.00       166.52
   95.96        2951.50           1242          48.00       170.88
   95.99        2951.75           1246          44.00       153.44
   96.02        2952.00           1249          45.00       157.80
   96.05        2952.25           1252          44.00       153.44
   96.08        2952.50           1256          38.00       127.29
   96.12        2952.75           1259          49.00       175.24
   96.15        2953.00           1262          50.00       179.60
   96.18        2953.25           1266          44.00       153.44
   96.21        2953.50           1269          49.00       175.24
   96.24        2953.75           1272          39.00       131.65
   96.27        2954.00           1276          47.00       166.52
   96.30        2954.25           1279          58.00       214.47
   96.33        2954.50           1282          51.00       183.96
   96.36        2954.75           1286          45.00       157.80
   96.39        2955.00           1289          40.00       136.01
   96.42        2955.25           1292          43.00       149.09
   96.45        2955.50           1296          41.00       140.37
   96.48        2955.75           1299          50.00       179.60
   96.52        2956.00           1302          45.00       157.80
   96.55        2956.25           1306          47.00       166.52
   96.58        2956.50           1309          51.00       183.96
   96.61        2956.75           1312          45.00       157.80
   96.64        2957.00           1316          50.00       179.60
   96.67        2957.25           1319          48.00       170.88
   96.70        2957.50           1322          52.00       188.32
   96.73        2957.75           1326          48.00       170.88
   96.76        2958.00           1329          51.00       183.96
   96.79        2958.25           1332          49.00       175.24
   96.82        2958.50           1336          41.00       140.37
   96.86        2958.75           1339          48.00       170.88
   96.89        2959.00           1342          54.00       197.04
   96.92        2959.25           1346          50.00       179.60
   96.95        2959.50           1349          55.00       201.40
   96.98        2959.75           1352          63.00       236.27
   97.01        2960.00           1356         100.00       397.56
   97.04        2960.25           1359         125.00       506.55
   97.07        2960.50           1362         162.00       667.84
   97.10        2960.75           1366         232.00       973.00
   97.13        2961.00           1369         265.00      1116.86
   97.16        2961.25           1372         309.00      1308.68
   97.20        2961.50           1376         421.00      1796.96
   97.23        2961.75           1379         628.00      2699.43
   97.26        2962.00           1382        1322.00      5725.48
   97.29        2962.25           1386        3059.00     13301.73
   97.32        2962.50           1389        4855.00     21138.95
   97.35        2962.75           1392        6493.00     28289.91
   97.38        2963.00           1396        8670.00     37798.73
   97.41        2963.25           1399       10385.00     45293.41
   97.44        2963.50           1402       12064.00     52634.05
   97.48        2963.75           1406       14403.00     62865.62
   97.51        2964.00           1409       16109.00     70332.21
   97.54        2964.25           1412       17906.00     78200.68
   97.57        2964.50           1416       20078.00     87716.14
   97.60        2964.75           1419       21718.00     94904.52
   97.63        2965.00           1422       23472.00    102596.00
   97.66        2965.25           1426       25921.00    113341.10
   97.69        2965.50           1429       27385.00    119767.80
   97.72        2965.75           1432       29144.00    127492.80
   97.76        2966.00           1436       31568.00    138144.10
   97.79        2966.25           1439       33299.00    145754.50
   97.82        2966.50           1442       34398.00    150588.10
   97.85        2966.75           1446       36060.00    157900.50
   97.88        2967.00           1449       36571.00    160149.50
   97.91        2967.25           1452       36632.00    160418.00
   97.94        2967.50           1456       36557.00    160087.90
   97.97        2967.75           1459       36709.00    160756.90
   98.00        2968.00           1462       36202.00    158525.40
   98.04        2968.25           1466       35333.00    154701.50
   98.07        2968.50           1469       33924.00    148503.20
   98.10        2968.75           1472       32348.00    141573.00
   98.13        2969.00           1476       30074.00    131578.50
   98.16        2969.25           1479       28209.00    123386.10
   98.19        2969.50           1482       26661.00    116589.30
   98.22        2969.75           1486       24462.00    106938.90
   98.25        2970.00           1489       22511.00     98381.48
   98.29        2970.25           1492       21086.00     92133.99
   98.32        2970.50           1496       19029.00     83119.82
   98.35        2970.75           1499       17353.00     75778.88
   98.38        2971.00           1502       15787.00     68922.66
   98.41        2971.25           1506       13621.00     59444.19
   98.44        2971.50           1509       11770.00     51348.44
   98.47        2971.75           1513        9348.00     40761.24
   98.50        2972.00           1516        7647.00     33329.74
   98.53        2972.25           1519        5925.00     25809.87
   98.57        2972.50           1523        3828.00     16656.97
   98.60        2972.75           1526        2351.00     10213.24
   98.63        2973.00           1529        1134.00      4905.69
   98.66        2973.25           1533         516.00      2211.13
   98.69        2973.50           1536         391.00      1666.17
   98.72        2973.75           1539         319.00      1352.28
   98.75        2974.00           1543         266.00      1121.22
   98.78        2974.25           1546         207.00       864.02
   98.81        2974.50           1549         164.00       676.56
   98.84        2974.75           1553         108.00       432.44
   98.87        2975.00           1556          80.00       310.38
   98.90        2975.25           1559          58.00       214.47
   98.94        2975.50           1563          54.00       197.04
   98.97        2975.75           1566          51.00       183.96
   99.00        2976.00           1569          46.00       162.16
   99.03        2976.25           1573          44.00       153.44
   99.06        2976.50           1576          47.00       166.52
   99.09        2976.75           1579          46.00       162.16
   99.12        2977.00           1583          51.00       183.96
   99.15        2977.25           1586          42.00       144.73
   99.18        2977.50           1590          43.00       149.09
   99.21        2977.75           1593          44.00       153.44
   99.25        2978.00           1596          47.00       166.52
   99.28        2978.25           1600          47.00       166.52
   99.31        2978.50           1603          54.00       197.04
   99.34        2978.75           1606          49.00       175.24
   99.37        2979.00           1610          48.00       170.88
   99.40        2979.25           1613          60.00       223.19
   99.43        2979.50           1616          44.00       153.44
   99.46        2979.75           1620          49.00       175.24
   99.49        2980.00           1623          46.00       162.16
   99.52        2980.25           1626          51.00       183.96
   99.55        2980.50           1630          54.00       197.04
   99.58        2980.75           1633          54.00       197.04
   99.62        2981.00           1637          43.00       149.09
   99.65        2981.25           1640          41.00       140.37
   99.68        2981.50           1643          54.00       197.04
   99.71        2981.75           1647          48.00       170.88
   99.74        2982.00           1650          40.00       136.01
   99.77        2982.25           1653          41.00       140.37
   99.80        2982.50           1657          44.00       153.44
   99.83        2982.75           1660          53.00       192.68
   99.86        2983.00           1663          47.00       166.52
   99.89        2983.25           1667          50.00       179.60
   99.92        2983.50           1670          47.00       166.52
   99.95        2983.75           1673          44.00       153.44
   99.99        2984.00           1677          48.00       170.88
HS scan finished at 01:40:12
end
************************************************************
  HS Scan of (1) Internal mercury lamp
************************************************************
Integration time is 0.2294 seconds per sample
dh240417Manchester 53.47 2.23 2.750537pr1000
************************************************************
Dead Time -------------------------  3E-08 
Number of Cycles Used -------------  4 
Starting Wavelength (Angstroms) ---  2950 
Final Wavelength (Angstoms) -------  2984 
Wavelength Increment (Angstroms) --  .25 
Filter Wheel #1 Position ---------- (1) Ground quartz diffuser (ND=2.32)
Filter Wheel #2 Position ---------- (1) Neutral Density 0.494



************************************************************
HS scan start time = 20:11:59
Dark Count =  8.399999 


Time (GMT)  Wavelength (Ang)  Step Number  Raw Counts  Counts/Second

 1212.35        2950.00           1222          45.00       159.55
 1212.42        2950.25           1226          48.00       172.63
 1212.45        2950.50           1229          53.00       194.42
 1212.48        2950.75           1232          48.00       172.63
 1212.51        2951.00           1236          44.00       155.19
 1212.54        2951.25           1239          46.00       163.91
 1212.57        2951.50           1242          45.00       159.55
 1212.60        2951.75           1246          37.00       124.67
 1212.63        2952.00           1249          46.00       163.91
 1212.66        2952.25           1252          51.00       185.70
 1212.69        2952.50           1256          44.00       155.19
 1212.73        2952.75           1259          49.00       176.98
 1212.76        2953.00           1262          42.00       146.47
 1212.79        2953.25           1266          51.00       185.70
 1212.82        2953.50           1269          42.00       146.47
 1212.85        2953.75           1272          48.00       172.63
 1212.88        2954.00           1276          50.00       181.34
 1212.91        2954.25           1279          45.00       159.55
 1212.94        2954.50           1282          48.00       172.63
 1212.97        2954.75           1286          44.00       155.19
 1213.00        2955.00           1289          47.00       168.27
 1213.03        2955.25           1292          52.00       190.06
 1213.06        2955.50           1296          52.00       190.06
 1213.09        2955.75           1299          46.00       163.91
 1213.12        2956.00           1302          47.00       168.27
 1213.15        2956.25           1306          43.00       150.83
 1213.19        2956.50           1309          47.00       168.27
 1213.22        2956.75           1312          50.00       181.34
 1213.25        2957.00           1316          47.00       168.27
 1213.28        2957.25           1319          40.00       137.75
 1213.31        2957.50           1322          52.00       190.06
 1213.34        2957.75           1326          55.00       203.14
 1213.37        2958.00           1329          44.00       155.19
 1213.40        2958.25           1332          46.00       163.91
 1213.43        2958.50           1336          51.00       185.70
 1213.46        2958.75           1339          50.00       181.34
 1213.49        2959.00           1342          49.00       176.98
 1213.52        2959.25           1346          51.00       185.70
 1213.55        2959.50           1349          63.00       238.01
 1213.58        2959.75           1352          83.00       325.20
 1213.61        2960.00           1356         103.00       412.39
 1213.64        2960.25           1359         147.00       604.20
 1213.68        2960.50           1362         188.00       782.93
 1213.71        2960.75           1366         251.00      1057.58
 1213.74        2961.00           1369         292.00      1236.31
 1213.77        2961.25           1372         334.00      1419.42
 1213.80        2961.50           1376         407.00      1737.67
 1213.83        2961.75           1379         655.00      2818.90
 1213.86        2962.00           1382        1269.00      5496.11
 1213.89        2962.25           1386        2915.00     12675.26
 1213.92        2962.50           1389        4581.00     19944.80
 1213.96        2962.75           1392        6130.00     26706.66
 1213.99        2963.00           1396        8282.00     36105.35
 1214.02        2963.25           1399        9899.00     43170.96
 1214.05        2963.50           1402       11429.00     49859.18
 1214.08        2963.75           1406       13787.00     60172.17
 1214.11        2964.00           1409       15579.00     68013.97
 1214.14        2964.25           1412       17440.00     76161.62
 1214.17        2964.50           1416       19669.00     85925.66
 1214.20        2964.75           1419       21341.00     93253.55
 1214.23        2965.00           1422       23151.00    101189.90
 1214.26        2965.25           1426       25321.00    110709.70
 1214.29        2965.50           1429       26858.00    117455.90
 1214.33        2965.75           1432       28614.00    125166.60
 1214.36        2966.00           1436       30949.00    135425.30
 1214.39        2966.25           1439       32489.00    142194.70
 1214.42        2966.50           1442       33888.00    148346.60
 1214.45        2966.75           1446       35521.00    155530.50
 1214.48        2967.00           1449       36051.00    157862.70
 1214.51        2967.25           1452       35975.00    157528.20
 1214.54        2967.50           1456       36207.00    158549.20
 1214.57        2967.75           1459       35965.00    157484.20
 1214.60        2968.00           1462       35864.00    157039.80
 1214.63        2968.25           1466       35182.00    154038.90
 1214.67        2968.50           1469       33711.00    147568.20
 1214.70        2968.75           1472       32104.00    140502.10
 1214.73        2969.00           1476       29975.00    131145.30
 1214.76        2969.25           1479       28431.00    124362.90
 1214.79        2969.50           1482       26806.00    117227.60
 1214.82        2969.75           1486       24466.00    106958.20
 1214.85        2970.00           1489       22750.00     99431.29
 1214.88        2970.25           1492       21111.00     92245.33
 1214.91        2970.50           1496       19078.00     83336.25
 1214.94        2970.75           1499       17449.00     76201.03
 1214.98        2971.00           1502       15656.00     68351.00
 1215.01        2971.25           1506       13614.00     59415.32
 1215.04        2971.50           1509       11934.00     52067.32
 1215.07        2971.75           1513        9654.00     42100.22
 1215.10        2972.00           1516        8210.00     35790.81
 1215.13        2972.25           1519        6441.00     28064.60
 1215.16        2972.50           1523        4420.00     19242.15
 1215.19        2972.75           1526        2864.00     12452.78
 1215.22        2973.00           1529        1331.00      5766.47
 1215.25        2973.25           1533         503.00      2156.20
 1215.28        2973.50           1536         334.00      1419.42
 1215.31        2973.75           1539         279.00      1179.64
 1215.35        2974.00           1543         236.00       992.18
 1215.38        2974.25           1546         167.00       691.38
 1215.41        2974.50           1549         119.00       482.13
 1215.44        2974.75           1553          85.00       333.92
 1215.47        2975.00           1556          76.00       294.68
 1215.50        2975.25           1559          58.00       216.22
 1215.53        2975.50           1563          54.00       198.78
 1215.56        2975.75           1566          45.00       159.55
 1215.59        2976.00           1569          51.00       185.70
 1215.62        2976.25           1573          49.00       176.98
 1215.65        2976.50           1576          47.00       168.27
 1215.68        2976.75           1579          47.00       168.27
 1215.71        2977.00           1583          57.00       211.86
 1215.74        2977.25           1586          44.00       155.19
 1215.77        2977.50           1590          55.00       203.14
 1215.80        2977.75           1593          44.00       155.19
 1215.84        2978.00           1596          48.00       172.63
 1215.87        2978.25           1600          46.00       163.91
 1215.90        2978.50           1603          47.00       168.27
 1215.93        2978.75           1606          48.00       172.63
 1215.96        2979.00           1610          54.00       198.78
 1215.99        2979.25           1613          48.00       172.63
 1216.02        2979.50           1616          51.00       185.70
 1216.05        2979.75           1620          53.00       194.42
 1216.08        2980.00           1623          38.00       129.03
 1216.11        2980.25           1626          41.00       142.11
 1216.14        2980.50           1630          43.00       150.83
 1216.17        2980.75           1633          43.00       150.83
 1216.20        2981.00           1637          46.00       163.91
 1216.23        2981.25           1640          47.00       168.27
 1216.27        2981.50           1643          52.00       190.06
 1216.30        2981.75           1647          45.00       159.55
 1216.33        2982.00           1650          46.00       163.91
 1216.36        2982.25           1653          46.00       163.91
 1216.39        2982.50           1657          36.00       120.31
 1216.42        2982.75           1660          40.00       137.75
 1216.45        2983.00           1663          50.00       181.34
 1216.48        2983.25           1667          40.00       137.75
 1216.51        2983.50           1670          48.00       172.63
 1216.54        2983.75           1673          40.00       137.75
 1216.57        2984.00           1677          42.00       146.47
HS scan finished at 20:16:47
end
