************************************************************
  HS Scan of (1) Internal mercury lamp
************************************************************
Integration time is 0.2294 seconds per sample
dh230418Manchester 53.47 2.23 2.804185pr1000
************************************************************
Dead Time -------------------------  3E-08 
Number of Cycles Used -------------  4 
Starting Wavelength (Angstroms) ---  2950 
Final Wavelength (Angstoms) -------  2984 
Wavelength Increment (Angstroms) --  .25 
Filter Wheel #1 Position ---------- (1) Ground quartz diffuser (ND=2.32)
Filter Wheel #2 Position ---------- (1) Neutral Density 0.494



************************************************************
HS scan start time = 01:35:30
Dark Count =  8.2 


Time (GMT)  Wavelength (Ang)  Step Number  Raw Counts  Counts/Second

   95.87        2950.00           1222          56.00       208.37
   95.94        2950.25           1226          63.00       238.89
   95.97        2950.50           1229          68.00       260.68
   96.00        2950.75           1232          59.00       221.45
   96.03        2951.00           1236          61.00       230.17
   96.06        2951.25           1239          69.00       265.04
   96.09        2951.50           1242          57.00       212.73
   96.12        2951.75           1246          69.00       265.04
   96.15        2952.00           1249          55.00       204.01
   96.19        2952.25           1252          56.00       208.37
   96.22        2952.50           1256          64.00       243.25
   96.25        2952.75           1259          55.00       204.01
   96.28        2953.00           1262          53.00       195.29
   96.31        2953.25           1266          67.00       256.32
   96.34        2953.50           1269          54.00       199.65
   96.37        2953.75           1272          64.00       243.25
   96.40        2954.00           1276          62.00       234.53
   96.43        2954.25           1279          58.00       217.09
   96.46        2954.50           1282          54.00       199.65
   96.49        2954.75           1286          57.00       212.73
   96.52        2955.00           1289          61.00       230.17
   96.55        2955.25           1292          61.00       230.17
   96.59        2955.50           1296          56.00       208.37
   96.62        2955.75           1299          57.00       212.73
   96.65        2956.00           1302          59.00       221.45
   96.68        2956.25           1306          61.00       230.17
   96.71        2956.50           1309          59.00       221.45
   96.74        2956.75           1312          53.00       195.29
   96.77        2957.00           1316          65.00       247.60
   96.80        2957.25           1319          55.00       204.01
   96.83        2957.50           1322          69.00       265.04
   96.86        2957.75           1326          50.00       182.22
   96.89        2958.00           1329          61.00       230.17
   96.93        2958.25           1332          60.00       225.81
   96.96        2958.50           1336          67.00       256.32
   96.99        2958.75           1339          50.00       182.22
   97.02        2959.00           1342          56.00       208.37
   97.05        2959.25           1346          58.00       217.09
   97.08        2959.50           1349          65.00       247.60
   97.11        2959.75           1352          75.00       291.20
   97.14        2960.00           1356          98.00       391.46
   97.17        2960.25           1359         123.00       500.44
   97.21        2960.50           1362         149.00       613.79
   97.24        2960.75           1366         200.00       836.12
   97.27        2961.00           1369         253.00      1067.17
   97.30        2961.25           1372         290.00      1228.47
   97.33        2961.50           1376         365.00      1555.43
   97.36        2961.75           1379         644.00      2771.81
   97.39        2962.00           1382        1480.00      6417.10
   97.42        2962.25           1386        3124.00     13587.93
   97.45        2962.50           1389        4537.00     19753.64
   97.48        2962.75           1392        6064.00     26419.36
   97.51        2963.00           1396        7970.00     34743.26
   97.55        2963.25           1399        9339.00     40724.53
   97.58        2963.50           1402       10748.00     46882.81
   97.61        2963.75           1406       12965.00     56577.21
   97.64        2964.00           1409       14430.00     62986.39
   97.67        2964.25           1412       15741.00     68723.94
   97.70        2964.50           1416       17749.00     77515.71
   97.73        2964.75           1419       19198.00     83862.86
   97.76        2965.00           1422       20634.00     90155.46
   97.79        2965.25           1426       22640.00     98949.81
   97.82        2965.50           1429       24056.00    105160.40
   97.86        2965.75           1432       25768.00    112672.30
   97.89        2966.00           1436       27408.00    119871.50
   97.92        2966.25           1439       29033.00    127007.90
   97.95        2966.50           1442       30387.00    132956.50
   97.98        2966.75           1446       31807.00    139197.30
   98.01        2967.00           1449       31887.00    139549.00
   98.04        2967.25           1452       31886.00    139544.60
   98.07        2967.50           1456       31997.00    140032.60
   98.10        2967.75           1459       31827.00    139285.30
   98.14        2968.00           1462       31846.00    139368.80
   98.17        2968.25           1466       30683.00    134257.20
   98.20        2968.50           1469       29388.00    128567.30
   98.23        2968.75           1472       27963.00    122308.50
   98.26        2969.00           1476       26120.00    114217.20
   98.29        2969.25           1479       24760.00    108249.00
   98.32        2969.50           1482       23058.00    100782.90
   98.35        2969.75           1486       21104.00     92215.53
   98.38        2970.00           1489       19778.00     86404.16
   98.41        2970.25           1492       18403.00     80380.18
   98.44        2970.50           1496       16486.00     71985.29
   98.47        2970.75           1499       15067.00     65773.95
   98.51        2971.00           1502       13493.00     58886.85
   98.54        2971.25           1506       11404.00     49750.75
   98.57        2971.50           1509       10125.00     44159.60
   98.60        2971.75           1513        8141.00     35490.25
   98.63        2972.00           1516        6583.00     28685.53
   98.66        2972.25           1519        5217.00     22721.67
   98.69        2972.50           1523        3245.00     14115.83
   98.72        2972.75           1526        1863.00      8087.40
   98.75        2973.00           1529         824.00      3556.61
   98.78        2973.25           1533         421.00      1799.57
   98.82        2973.50           1536         334.00      1420.29
   98.85        2973.75           1539         287.00      1215.39
   98.88        2974.00           1543         238.00      1001.77
   98.91        2974.25           1546         183.00       762.01
   98.94        2974.50           1549         142.00       583.27
   98.97        2974.75           1553         100.00       400.18
   99.00        2975.00           1556          82.00       321.71
   99.03        2975.25           1559          68.00       260.68
   99.06        2975.50           1563          56.00       208.37
   99.09        2975.75           1566          58.00       217.09
   99.12        2976.00           1569          54.00       199.65
   99.15        2976.25           1573          50.00       182.22
   99.18        2976.50           1576          59.00       221.45
   99.21        2976.75           1579          59.00       221.45
   99.24        2977.00           1583          51.00       186.57
   99.28        2977.25           1586          56.00       208.37
   99.31        2977.50           1590          56.00       208.37
   99.34        2977.75           1593          47.00       169.14
   99.37        2978.00           1596          59.00       221.45
   99.40        2978.25           1600          51.00       186.57
   99.43        2978.50           1603          52.00       190.93
   99.46        2978.75           1606          52.00       190.93
   99.49        2979.00           1610          58.00       217.09
   99.52        2979.25           1613          48.00       173.50
   99.55        2979.50           1616          56.00       208.37
   99.58        2979.75           1620          51.00       186.57
   99.62        2980.00           1623          50.00       182.22
   99.65        2980.25           1626          59.00       221.45
   99.68        2980.50           1630          50.00       182.22
   99.71        2980.75           1633          52.00       190.93
   99.74        2981.00           1637          60.00       225.81
   99.77        2981.25           1640          51.00       186.57
   99.80        2981.50           1643          53.00       195.29
   99.83        2981.75           1647          64.00       243.25
   99.86        2982.00           1650          53.00       195.29
   99.89        2982.25           1653          49.00       177.86
   99.92        2982.50           1657          53.00       195.29
   99.95        2982.75           1660          56.00       208.37
   99.98        2983.00           1663          51.00       186.57
  100.01        2983.25           1667          52.00       190.93
  100.04        2983.50           1670          71.00       273.76
  100.07        2983.75           1673          59.00       221.45
  100.10        2984.00           1677          50.00       182.22
HS scan finished at 01:40:19
end
************************************************************
  HS Scan of (1) Internal mercury lamp
************************************************************
Integration time is 0.2294 seconds per sample
dh230418Manchester 53.47 2.23 2.804185pr1000
************************************************************
Dead Time -------------------------  3E-08 
Number of Cycles Used -------------  4 
Starting Wavelength (Angstroms) ---  2950 
Final Wavelength (Angstoms) -------  2984 
Wavelength Increment (Angstroms) --  .25 
Filter Wheel #1 Position ---------- (1) Ground quartz diffuser (ND=2.32)
Filter Wheel #2 Position ---------- (1) Neutral Density 0.494



************************************************************
HS scan start time = 20:12:01
Dark Count =  4.3 


Time (GMT)  Wavelength (Ang)  Step Number  Raw Counts  Counts/Second

 1212.38        2950.00           1222          63.00       255.89
 1212.45        2950.25           1226          57.00       229.73
 1212.48        2950.50           1229          59.00       238.45
 1212.51        2950.75           1232          60.00       242.81
 1212.54        2951.00           1236          56.00       225.37
 1212.57        2951.25           1239          58.00       234.09
 1212.60        2951.50           1242          62.00       251.53
 1212.63        2951.75           1246          60.00       242.81
 1212.66        2952.00           1249          55.00       221.01
 1212.70        2952.25           1252          56.00       225.37
 1212.73        2952.50           1256          58.00       234.09
 1212.76        2952.75           1259          62.00       251.53
 1212.79        2953.00           1262          67.00       273.32
 1212.82        2953.25           1266          57.00       229.73
 1212.85        2953.50           1269          53.00       212.29
 1212.88        2953.75           1272          65.00       264.61
 1212.91        2954.00           1276          55.00       221.01
 1212.94        2954.25           1279          55.00       221.01
 1212.97        2954.50           1282          57.00       229.73
 1213.00        2954.75           1286          58.00       234.09
 1213.03        2955.00           1289          59.00       238.45
 1213.07        2955.25           1292          53.00       212.29
 1213.10        2955.50           1296          58.00       234.09
 1213.13        2955.75           1299          56.00       225.37
 1213.16        2956.00           1302          68.00       277.68
 1213.19        2956.25           1306          58.00       234.09
 1213.22        2956.50           1309          56.00       225.37
 1213.25        2956.75           1312          56.00       225.37
 1213.28        2957.00           1316          52.00       207.94
 1213.31        2957.25           1319          57.00       229.73
 1213.34        2957.50           1322          57.00       229.73
 1213.37        2957.75           1326          60.00       242.81
 1213.40        2958.00           1329          56.00       225.37
 1213.43        2958.25           1332          62.00       251.53
 1213.46        2958.50           1336          56.00       225.37
 1213.49        2958.75           1339          56.00       225.37
 1213.53        2959.00           1342          61.00       247.17
 1213.56        2959.25           1346          56.00       225.37
 1213.59        2959.50           1349          69.00       282.04
 1213.62        2959.75           1352          90.00       373.59
 1213.65        2960.00           1356         126.00       530.52
 1213.68        2960.25           1359         150.00       635.15
 1213.71        2960.50           1362         176.00       748.49
 1213.74        2960.75           1366         252.00      1079.81
 1213.77        2961.00           1369         277.00      1188.80
 1213.80        2961.25           1372         302.00      1297.78
 1213.83        2961.50           1376         369.00      1589.88
 1213.86        2961.75           1379         481.00      2078.16
 1213.90        2962.00           1382         968.00      4201.49
 1213.93        2962.25           1386        2500.00     10882.80
 1213.96        2962.50           1389        3976.00     17322.42
 1213.99        2962.75           1392        5345.00     23297.45
 1214.02        2963.00           1396        7231.00     31532.43
 1214.05        2963.25           1399        8780.00     38299.00
 1214.08        2963.50           1402       10204.00     44521.94
 1214.11        2963.75           1406       12218.00     53327.19
 1214.14        2964.00           1409       13611.00     59420.13
 1214.17        2964.25           1412       15202.00     66381.85
 1214.20        2964.50           1416       17061.00     74519.95
 1214.23        2964.75           1419       18768.00     81996.13
 1214.26        2965.00           1422       20286.00     88647.39
 1214.30        2965.25           1426       22433.00     98059.19
 1214.33        2965.50           1429       23782.00    103975.50
 1214.36        2965.75           1432       25069.00    109621.90
 1214.39        2966.00           1436       27060.00    118360.70
 1214.42        2966.25           1439       28534.00    124833.20
 1214.45        2966.50           1442       30026.00    131387.40
 1214.48        2966.75           1446       31435.00    137579.30
 1214.51        2967.00           1449       31939.00    139794.70
 1214.54        2967.25           1452       32116.00    140572.80
 1214.57        2967.50           1456       31968.00    139922.20
 1214.61        2967.75           1459       31940.00    139799.10
 1214.64        2968.00           1462       31889.00    139574.90
 1214.67        2968.25           1466       30938.00    135395.00
 1214.70        2968.50           1469       29787.00    130337.30
 1214.73        2968.75           1472       28466.00    124534.60
 1214.76        2969.00           1476       26604.00    116358.80
 1214.79        2969.25           1479       25302.00    110644.30
 1214.82        2969.50           1482       23714.00    103677.20
 1214.85        2969.75           1486       21877.00     95621.34
 1214.88        2970.00           1489       20396.00     89129.46
 1214.92        2970.25           1492       19237.00     84050.81
 1214.95        2970.50           1496       16989.00     74204.68
 1214.98        2970.75           1499       15318.00     66889.55
 1215.01        2971.00           1502       13832.00     60386.99
 1215.04        2971.25           1506       12012.00     52426.33
 1215.07        2971.50           1509       10461.00     45645.29
 1215.10        2971.75           1513        8515.00     37141.19
 1215.13        2972.00           1516        6972.00     30401.30
 1215.16        2972.25           1519        5610.00     24454.29
 1215.19        2972.50           1523        3735.00     16270.80
 1215.22        2972.75           1526        2359.00     10267.77
 1215.26        2973.00           1529        1101.00      4781.42
 1215.29        2973.25           1533         438.00      1890.69
 1215.32        2973.50           1536         310.00      1332.66
 1215.35        2973.75           1539         271.00      1162.64
 1215.38        2974.00           1543         215.00       918.51
 1215.41        2974.25           1546         155.00       656.94
 1215.44        2974.50           1549         125.00       526.16
 1215.47        2974.75           1553          80.00       329.99
 1215.50        2975.00           1556          65.00       264.61
 1215.53        2975.25           1559          69.00       282.04
 1215.56        2975.50           1563          62.00       251.53
 1215.59        2975.75           1566          59.00       238.45
 1215.63        2976.00           1569          56.00       225.37
 1215.66        2976.25           1573          59.00       238.45
 1215.69        2976.50           1576          60.00       242.81
 1215.72        2976.75           1579          58.00       234.09
 1215.75        2977.00           1583          58.00       234.09
 1215.78        2977.25           1586          65.00       264.61
 1215.81        2977.50           1590          60.00       242.81
 1215.84        2977.75           1593          63.00       255.89
 1215.87        2978.00           1596          56.00       225.37
 1215.90        2978.25           1600          58.00       234.09
 1215.93        2978.50           1603          49.00       194.86
 1215.96        2978.75           1606          59.00       238.45
 1215.99        2979.00           1610          58.00       234.09
 1216.03        2979.25           1613          54.00       216.65
 1216.06        2979.50           1616          56.00       225.37
 1216.09        2979.75           1620          60.00       242.81
 1216.12        2980.00           1623          56.00       225.37
 1216.15        2980.25           1626          64.00       260.25
 1216.18        2980.50           1630          56.00       225.37
 1216.21        2980.75           1633          52.00       207.94
 1216.24        2981.00           1637          53.00       212.29
 1216.27        2981.25           1640          51.00       203.58
 1216.30        2981.50           1643          60.00       242.81
 1216.33        2981.75           1647          59.00       238.45
 1216.36        2982.00           1650          51.00       203.58
 1216.39        2982.25           1653          53.00       212.29
 1216.42        2982.50           1657          54.00       216.65
 1216.46        2982.75           1660          53.00       212.29
 1216.49        2983.00           1663          51.00       203.58
 1216.52        2983.25           1667          54.00       216.65
 1216.55        2983.50           1670          53.00       212.29
 1216.58        2983.75           1673          56.00       225.37
 1216.61        2984.00           1677          46.00       181.78
HS scan finished at 20:16:50
end
