************************************************************
  HS Scan of (1) Internal mercury lamp
************************************************************
Integration time is 0.2294 seconds per sample
dh220417Manchester 53.47 2.23 2.804185pr1000
************************************************************
Dead Time -------------------------  3E-08 
Number of Cycles Used -------------  4 
Starting Wavelength (Angstroms) ---  2950 
Final Wavelength (Angstoms) -------  2984 
Wavelength Increment (Angstroms) --  .25 
Filter Wheel #1 Position ---------- (1) Ground quartz diffuser (ND=2.32)
Filter Wheel #2 Position ---------- (1) Neutral Density 0.494



************************************************************
HS scan start time = 01:23:30
Dark Count =  4.1 


Time (GMT)  Wavelength (Ang)  Step Number  Raw Counts  Counts/Second

   83.87        2950.00           1222          52.00       208.81
   83.94        2950.25           1226          45.00       178.29
   83.97        2950.50           1229          48.00       191.37
   84.00        2950.75           1232          51.00       204.45
   84.03        2951.00           1236          50.00       200.09
   84.06        2951.25           1239          42.00       165.21
   84.09        2951.50           1242          34.00       130.34
   84.13        2951.75           1246          41.00       160.86
   84.16        2952.00           1249          50.00       200.09
   84.19        2952.25           1252          45.00       178.29
   84.22        2952.50           1256          54.00       217.53
   84.25        2952.75           1259          46.00       182.65
   84.28        2953.00           1262          43.00       169.57
   84.31        2953.25           1266          40.00       156.50
   84.34        2953.50           1269          48.00       191.37
   84.37        2953.75           1272          42.00       165.21
   84.40        2954.00           1276          50.00       200.09
   84.43        2954.25           1279          51.00       204.45
   84.46        2954.50           1282          43.00       169.57
   84.49        2954.75           1286          48.00       191.37
   84.53        2955.00           1289          50.00       200.09
   84.56        2955.25           1292          49.00       195.73
   84.59        2955.50           1296          45.00       178.29
   84.62        2955.75           1299          43.00       169.57
   84.65        2956.00           1302          47.00       187.01
   84.68        2956.25           1306          44.00       173.93
   84.71        2956.50           1309          50.00       200.09
   84.74        2956.75           1312          47.00       187.01
   84.77        2957.00           1316          45.00       178.29
   84.80        2957.25           1319          40.00       156.50
   84.83        2957.50           1322          45.00       178.29
   84.86        2957.75           1326          47.00       187.01
   84.90        2958.00           1329          51.00       204.45
   84.93        2958.25           1332          50.00       200.09
   84.96        2958.50           1336          52.00       208.81
   84.99        2958.75           1339          48.00       191.37
   85.02        2959.00           1342          50.00       200.09
   85.05        2959.25           1346          56.00       226.24
   85.08        2959.50           1349          58.00       234.96
   85.11        2959.75           1352          88.00       365.74
   85.14        2960.00           1356         123.00       518.32
   85.17        2960.25           1359         152.00       644.74
   85.20        2960.50           1362         206.00       880.15
   85.23        2960.75           1366         251.00      1076.32
   85.27        2961.00           1369         313.00      1346.61
   85.30        2961.25           1372         341.00      1468.68
   85.33        2961.50           1376         500.00      2161.87
   85.36        2961.75           1379         826.00      3583.21
   85.39        2962.00           1382        1810.00      7874.14
   85.42        2962.25           1386        3737.00     16280.40
   85.45        2962.50           1389        5367.00     23394.36
   85.48        2962.75           1392        6889.00     30039.70
   85.51        2963.00           1396        9021.00     39352.88
   85.54        2963.25           1399       10699.00     46686.53
   85.57        2963.50           1402       12497.00     54548.23
   85.61        2963.75           1406       14782.00     64544.65
   85.64        2964.00           1409       16458.00     71880.65
   85.67        2964.25           1412       18140.00     79246.16
   85.70        2964.50           1416       20448.00     89358.24
   85.73        2964.75           1419       22181.00     96955.09
   85.76        2965.00           1422       23661.00    103445.60
   85.79        2965.25           1426       25875.00    113159.90
   85.82        2965.50           1429       27614.00    120794.00
   85.85        2965.75           1432       29358.00    128453.50
   85.89        2966.00           1436       31588.00    138252.70
   85.92        2966.25           1439       33293.00    145748.80
   85.95        2966.50           1442       34801.00    152381.60
   85.98        2966.75           1446       36190.00    158493.30
   86.01        2967.00           1449       36415.00    159483.60
   86.04        2967.25           1452       36671.00    160610.30
   86.07        2967.50           1456       36537.00    160020.50
   86.10        2967.75           1459       36486.00    159796.00
   86.13        2968.00           1462       36218.00    158616.50
   86.17        2968.25           1466       34955.00    153059.10
   86.20        2968.50           1469       33775.00    147868.50
   86.23        2968.75           1472       32099.00    140499.00
   86.26        2969.00           1476       29896.00    130817.10
   86.29        2969.25           1479       28139.00    123099.40
   86.32        2969.50           1482       26447.00    115670.50
   86.35        2969.75           1486       24178.00    105713.60
   86.38        2970.00           1489       22638.00     98959.01
   86.41        2970.25           1492       21056.00     92023.10
   86.44        2970.50           1496       18933.00     82719.85
   86.48        2970.75           1499       17326.00     75681.23
   86.51        2971.00           1502       15595.00     68102.81
   86.54        2971.25           1506       13277.00     57959.90
   86.57        2971.50           1509       11683.00     50988.58
   86.60        2971.75           1513        9477.00     41345.50
   86.63        2972.00           1516        7618.00     33223.60
   86.66        2972.25           1519        6037.00     26319.38
   86.69        2972.50           1523        3845.00     16751.66
   86.72        2972.75           1526        2250.00      9793.20
   86.76        2973.00           1529        1068.00      4638.40
   86.79        2973.25           1533         443.00      1913.36
   86.82        2973.50           1536         327.00      1407.64
   86.85        2973.75           1539         279.00      1198.39
   86.88        2974.00           1543         212.00       906.30
   86.91        2974.25           1546         144.00       609.86
   86.94        2974.50           1549         101.00       422.41
   86.97        2974.75           1553          73.00       300.35
   87.00        2975.00           1556          54.00       217.53
   87.03        2975.25           1559          51.00       204.45
   87.06        2975.50           1563          42.00       165.21
   87.09        2975.75           1566          47.00       187.01
   87.12        2976.00           1569          47.00       187.01
   87.16        2976.25           1573          44.00       173.93
   87.19        2976.50           1576          56.00       226.24
   87.22        2976.75           1579          46.00       182.65
   87.25        2977.00           1583          50.00       200.09
   87.28        2977.25           1586          48.00       191.37
   87.31        2977.50           1590          49.00       195.73
   87.34        2977.75           1593          39.00       152.14
   87.37        2978.00           1596          48.00       191.37
   87.40        2978.25           1600          44.00       173.93
   87.43        2978.50           1603          49.00       195.73
   87.46        2978.75           1606          44.00       173.93
   87.49        2979.00           1610          50.00       200.09
   87.52        2979.25           1613          48.00       191.37
   87.56        2979.50           1616          41.00       160.86
   87.59        2979.75           1620          50.00       200.09
   87.62        2980.00           1623          48.00       191.37
   87.65        2980.25           1626          43.00       169.57
   87.68        2980.50           1630          41.00       160.86
   87.71        2980.75           1633          42.00       165.21
   87.74        2981.00           1637          40.00       156.50
   87.77        2981.25           1640          46.00       182.65
   87.80        2981.50           1643          50.00       200.09
   87.83        2981.75           1647          43.00       169.57
   87.86        2982.00           1650          43.00       169.57
   87.89        2982.25           1653          36.00       139.06
   87.92        2982.50           1657          40.00       156.50
   87.95        2982.75           1660          43.00       169.57
   87.99        2983.00           1663          44.00       173.93
   88.02        2983.25           1667          44.00       173.93
   88.05        2983.50           1670          46.00       182.65
   88.08        2983.75           1673          46.00       182.65
   88.11        2984.00           1677          39.00       152.14
HS scan finished at 01:28:20
end
************************************************************
  HS Scan of (1) Internal mercury lamp
************************************************************
Integration time is 0.2294 seconds per sample
dh220417Manchester 53.47 2.23 2.804185pr1000
************************************************************
Dead Time -------------------------  3E-08 
Number of Cycles Used -------------  4 
Starting Wavelength (Angstroms) ---  2950 
Final Wavelength (Angstoms) -------  2984 
Wavelength Increment (Angstroms) --  .25 
Filter Wheel #1 Position ---------- (1) Ground quartz diffuser (ND=2.32)
Filter Wheel #2 Position ---------- (1) Neutral Density 0.494



************************************************************
HS scan start time = 20:12:01
Dark Count =  7.7 


Time (GMT)  Wavelength (Ang)  Step Number  Raw Counts  Counts/Second

 1212.39        2950.00           1222          54.00       201.83
 1212.46        2950.25           1226          46.00       166.96
 1212.49        2950.50           1229          58.00       219.27
 1212.52        2950.75           1232          45.00       162.60
 1212.55        2951.00           1236          49.00       180.04
 1212.58        2951.25           1239          47.00       171.32
 1212.61        2951.50           1242          48.00       175.68
 1212.64        2951.75           1246          51.00       188.75
 1212.67        2952.00           1249          45.00       162.60
 1212.70        2952.25           1252          50.00       184.40
 1212.73        2952.50           1256          46.00       166.96
 1212.76        2952.75           1259          44.00       158.24
 1212.79        2953.00           1262          49.00       180.04
 1212.82        2953.25           1266          48.00       175.68
 1212.85        2953.50           1269          50.00       184.40
 1212.88        2953.75           1272          51.00       188.75
 1212.91        2954.00           1276          45.00       162.60
 1212.94        2954.25           1279          43.00       153.88
 1212.98        2954.50           1282          49.00       180.04
 1213.01        2954.75           1286          49.00       180.04
 1213.04        2955.00           1289          49.00       180.04
 1213.07        2955.25           1292          54.00       201.83
 1213.10        2955.50           1296          43.00       153.88
 1213.13        2955.75           1299          45.00       162.60
 1213.16        2956.00           1302          47.00       171.32
 1213.19        2956.25           1306          48.00       175.68
 1213.22        2956.50           1309          45.00       162.60
 1213.25        2956.75           1312          49.00       180.04
 1213.28        2957.00           1316          54.00       201.83
 1213.31        2957.25           1319          42.00       149.52
 1213.34        2957.50           1322          42.00       149.52
 1213.37        2957.75           1326          47.00       171.32
 1213.40        2958.00           1329          44.00       158.24
 1213.44        2958.25           1332          47.00       171.32
 1213.47        2958.50           1336          49.00       180.04
 1213.50        2958.75           1339          50.00       184.40
 1213.53        2959.00           1342          49.00       180.04
 1213.56        2959.25           1346          58.00       219.27
 1213.59        2959.50           1349          68.00       262.86
 1213.62        2959.75           1352          71.00       275.94
 1213.65        2960.00           1356         111.00       450.31
 1213.68        2960.25           1359         140.00       576.73
 1213.71        2960.50           1362         174.00       724.95
 1213.74        2960.75           1366         251.00      1060.63
 1213.77        2961.00           1369         283.00      1200.13
 1213.80        2961.25           1372         373.00      1592.49
 1213.83        2961.50           1376         429.00      1836.63
 1213.86        2961.75           1379         648.00      2791.43
 1213.89        2962.00           1382        1244.00      5390.15
 1213.92        2962.25           1386        3084.00     13415.60
 1213.96        2962.50           1389        4749.00     20681.09
 1213.99        2962.75           1392        6316.00     27521.85
 1214.02        2963.00           1396        8461.00     36890.42
 1214.05        2963.25           1399       10148.00     44262.31
 1214.08        2963.50           1402       11849.00     51698.69
 1214.11        2963.75           1406       14249.00     62196.59
 1214.14        2964.00           1409       15820.00     69071.93
 1214.17        2964.25           1412       17494.00     76401.16
 1214.20        2964.50           1416       19728.00     86187.26
 1214.23        2964.75           1419       21253.00     92870.86
 1214.26        2965.00           1422       23230.00    101539.40
 1214.29        2965.25           1426       25321.00    110712.80
 1214.33        2965.50           1429       27311.00    119447.80
 1214.36        2965.75           1432       28990.00    126821.20
 1214.39        2966.00           1436       31119.00    136175.50
 1214.42        2966.25           1439       32691.00    143085.90
 1214.45        2966.50           1442       34277.00    150060.70
 1214.48        2966.75           1446       35515.00    155507.10
 1214.51        2967.00           1449       36050.00    157861.40
 1214.54        2967.25           1452       36284.00    158891.20
 1214.57        2967.50           1456       36174.00    158407.10
 1214.60        2967.75           1459       36082.00    158002.20
 1214.63        2968.00           1462       35714.00    156382.80
 1214.66        2968.25           1466       34728.00    152044.60
 1214.69        2968.50           1469       33199.00    145319.60
 1214.72        2968.75           1472       31729.00    138856.70
 1214.76        2969.00           1476       29592.00    129465.70
 1214.79        2969.25           1479       27766.00    121445.60
 1214.82        2969.50           1482       26310.00    115053.40
 1214.85        2969.75           1486       23891.00    104438.80
 1214.88        2970.00           1489       22441.00     98079.37
 1214.91        2970.25           1492       20649.00     90223.39
 1214.94        2970.50           1496       18677.00     81582.61
 1214.97        2970.75           1499       17105.00     74697.73
 1215.00        2971.00           1502       15386.00     67172.28
 1215.04        2971.25           1506       12998.00     56723.74
 1215.07        2971.50           1509       11340.00     49473.12
 1215.10        2971.75           1513        9142.00     39865.88
 1215.13        2972.00           1516        7528.00     32814.77
 1215.16        2972.25           1519        5948.00     25915.08
 1215.19        2972.50           1523        3962.00     17246.50
 1215.22        2972.75           1526        2462.00     10702.22
 1215.25        2973.00           1529        1277.00      5534.05
 1215.28        2973.25           1533         470.00      2015.38
 1215.31        2973.50           1536         345.00      1470.42
 1215.34        2973.75           1539         264.00      1117.30
 1215.37        2974.00           1543         222.00       934.20
 1215.41        2974.25           1546         166.00       690.08
 1215.44        2974.50           1549         114.00       463.39
 1215.47        2974.75           1553          85.00       336.97
 1215.50        2975.00           1556          65.00       249.78
 1215.53        2975.25           1559          55.00       206.19
 1215.56        2975.50           1563          50.00       184.40
 1215.59        2975.75           1566          53.00       197.47
 1215.62        2976.00           1569          53.00       197.47
 1215.65        2976.25           1573          47.00       171.32
 1215.68        2976.50           1576          46.00       166.96
 1215.71        2976.75           1579          47.00       171.32
 1215.74        2977.00           1583          43.00       153.88
 1215.77        2977.25           1586          57.00       214.91
 1215.80        2977.50           1590          48.00       175.68
 1215.83        2977.75           1593          52.00       193.11
 1215.87        2978.00           1596          45.00       162.60
 1215.90        2978.25           1600          46.00       166.96
 1215.93        2978.50           1603          47.00       171.32
 1215.96        2978.75           1606          50.00       184.40
 1215.99        2979.00           1610          47.00       171.32
 1216.02        2979.25           1613          48.00       175.68
 1216.05        2979.50           1616          39.00       136.44
 1216.08        2979.75           1620          63.00       241.07
 1216.11        2980.00           1623          44.00       158.24
 1216.14        2980.25           1626          51.00       188.75
 1216.17        2980.50           1630          43.00       153.88
 1216.20        2980.75           1633          41.00       145.16
 1216.23        2981.00           1637          41.00       145.16
 1216.26        2981.25           1640          42.00       149.52
 1216.29        2981.50           1643          48.00       175.68
 1216.32        2981.75           1647          45.00       162.60
 1216.36        2982.00           1650          46.00       166.96
 1216.39        2982.25           1653          42.00       149.52
 1216.42        2982.50           1657          48.00       175.68
 1216.45        2982.75           1660          47.00       171.32
 1216.48        2983.00           1663          48.00       175.68
 1216.51        2983.25           1667          43.00       153.88
 1216.54        2983.50           1670          45.00       162.60
 1216.57        2983.75           1673          46.00       166.96
 1216.60        2984.00           1677          45.00       162.60
HS scan finished at 20:16:49
end
