************************************************************
  HS Scan of (1) Internal mercury lamp
************************************************************
Integration time is 0.2294 seconds per sample
dh200417Manchester 53.47 2.23 2.804185pr1000
************************************************************
Dead Time -------------------------  3E-08 
Number of Cycles Used -------------  4 
Starting Wavelength (Angstroms) ---  2950 
Final Wavelength (Angstoms) -------  2984 
Wavelength Increment (Angstroms) --  .25 
Filter Wheel #1 Position ---------- (1) Ground quartz diffuser (ND=2.32)
Filter Wheel #2 Position ---------- (1) Neutral Density 0.494



************************************************************
HS scan start time = 01:31:10
Dark Count =  7.6 


Time (GMT)  Wavelength (Ang)  Step Number  Raw Counts  Counts/Second

   91.54        2950.00           1222          40.00       141.24
   91.60        2950.25           1226          41.00       145.60
   91.63        2950.50           1229          48.00       176.11
   91.66        2950.75           1232          54.00       202.27
   91.70        2951.00           1236          43.00       154.32
   91.73        2951.25           1239          47.00       171.75
   91.76        2951.50           1242          49.00       180.47
   91.79        2951.75           1246          49.00       180.47
   91.82        2952.00           1249          46.00       167.39
   91.85        2952.25           1252          46.00       167.39
   91.88        2952.50           1256          41.00       145.60
   91.91        2952.75           1259          46.00       167.39
   91.94        2953.00           1262          48.00       176.11
   91.97        2953.25           1266          49.00       180.47
   92.01        2953.50           1269          48.00       176.11
   92.04        2953.75           1272          45.00       163.03
   92.07        2954.00           1276          42.00       149.96
   92.10        2954.25           1279          49.00       180.47
   92.13        2954.50           1282          46.00       167.39
   92.16        2954.75           1286          55.00       206.63
   92.19        2955.00           1289          43.00       154.32
   92.22        2955.25           1292          53.00       197.91
   92.25        2955.50           1296          46.00       167.39
   92.28        2955.75           1299          46.00       167.39
   92.31        2956.00           1302          39.00       136.88
   92.34        2956.25           1306          40.00       141.24
   92.38        2956.50           1309          45.00       163.03
   92.41        2956.75           1312          47.00       171.75
   92.44        2957.00           1316          48.00       176.11
   92.47        2957.25           1319          48.00       176.11
   92.50        2957.50           1322          46.00       167.39
   92.53        2957.75           1326          52.00       193.55
   92.56        2958.00           1329          49.00       180.47
   92.59        2958.25           1332          53.00       197.91
   92.62        2958.50           1336          42.00       149.96
   92.65        2958.75           1339          49.00       180.47
   92.69        2959.00           1342          49.00       180.47
   92.72        2959.25           1346          57.00       215.35
   92.75        2959.50           1349          56.00       210.99
   92.78        2959.75           1352          65.00       250.22
   92.81        2960.00           1356          86.00       341.76
   92.84        2960.25           1359         133.00       546.65
   92.87        2960.50           1362         158.00       655.64
   92.90        2960.75           1366         218.00       917.20
   92.93        2961.00           1369         254.00      1074.14
   92.96        2961.25           1372         318.00      1353.15
   92.99        2961.50           1376         386.00      1649.60
   93.03        2961.75           1379         575.00      2473.59
   93.06        2962.00           1382        1187.00      5142.03
   93.09        2962.25           1386        2983.00     12975.41
   93.12        2962.50           1389        4519.00     19677.70
   93.15        2962.75           1392        6030.00     26273.54
   93.18        2963.00           1396        8248.00     35960.31
   93.21        2963.25           1399        9761.00     42571.34
   93.24        2963.50           1402       11369.00     49600.35
   93.27        2963.75           1406       13678.00     59698.80
   93.31        2964.00           1409       15351.00     67019.53
   93.34        2964.25           1412       17270.00     75420.68
   93.37        2964.50           1416       19510.00     85232.49
   93.40        2964.75           1419       20924.00     91429.16
   93.43        2965.00           1422       22745.00     99412.87
   93.46        2965.25           1426       25063.00    109581.10
   93.49        2965.50           1429       26502.00    115896.60
   93.52        2965.75           1432       28271.00    123663.70
   93.55        2966.00           1436       30554.00    133692.90
   93.58        2966.25           1439       32023.00    140149.50
   93.61        2966.50           1442       33532.00    146784.40
   93.64        2966.75           1446       35260.00    154385.60
   93.68        2967.00           1449       36159.00    158341.50
   93.71        2967.25           1452       36405.00    159424.10
   93.74        2967.50           1456       36142.00    158266.70
   93.77        2967.75           1459       36095.00    158059.80
   93.80        2968.00           1462       35965.00    157487.70
   93.83        2968.25           1466       35129.00    153809.20
   93.86        2968.50           1469       34040.00    149018.70
   93.89        2968.75           1472       32468.00    142105.90
   93.92        2969.00           1476       30417.00    133090.90
   93.96        2969.25           1479       28776.00    125881.60
   93.99        2969.50           1482       27049.00    118297.90
   94.02        2969.75           1486       24630.00    107681.20
   94.05        2970.00           1489       23079.00    100877.60
   94.08        2970.25           1492       21494.00     93927.78
   94.11        2970.50           1496       19355.00     84553.36
   94.14        2970.75           1499       17641.00     77045.36
   94.17        2971.00           1502       15990.00     69816.52
   94.20        2971.25           1506       13702.00     59803.81
   94.23        2971.50           1509       11974.00     52245.73
   94.26        2971.75           1513        9735.00     42457.71
   94.29        2972.00           1516        8150.00     35532.19
   94.33        2972.25           1519        6514.00     28386.85
   94.36        2972.50           1523        4513.00     19651.51
   94.39        2972.75           1526        2699.00     11736.48
   94.42        2973.00           1529        1430.00      6201.68
   94.45        2973.25           1533         540.00      2321.00
   94.48        2973.50           1536         374.00      1597.29
   94.51        2973.75           1539         312.00      1326.99
   94.54        2974.00           1543         262.00      1109.02
   94.57        2974.25           1546         193.00       808.21
   94.61        2974.50           1549         158.00       655.64
   94.64        2974.75           1553          93.00       372.28
   94.67        2975.00           1556          73.00       285.09
   94.70        2975.25           1559          59.00       224.06
   94.73        2975.50           1563          53.00       197.91
   94.76        2975.75           1566          49.00       180.47
   94.79        2976.00           1569          50.00       184.83
   94.82        2976.25           1573          46.00       167.39
   94.85        2976.50           1576          49.00       180.47
   94.88        2976.75           1579          49.00       180.47
   94.91        2977.00           1583          46.00       167.39
   94.94        2977.25           1586          51.00       189.19
   94.98        2977.50           1590          44.00       158.68
   95.01        2977.75           1593          52.00       193.55
   95.04        2978.00           1596          49.00       180.47
   95.07        2978.25           1600          44.00       158.68
   95.10        2978.50           1603          47.00       171.75
   95.13        2978.75           1606          45.00       163.03
   95.16        2979.00           1610          46.00       167.39
   95.19        2979.25           1613          43.00       154.32
   95.22        2979.50           1616          47.00       171.75
   95.25        2979.75           1620          45.00       163.03
   95.29        2980.00           1623          47.00       171.75
   95.32        2980.25           1626          42.00       149.96
   95.35        2980.50           1630          50.00       184.83
   95.38        2980.75           1633          49.00       180.47
   95.41        2981.00           1637          52.00       193.55
   95.44        2981.25           1640          42.00       149.96
   95.47        2981.50           1643          47.00       171.75
   95.50        2981.75           1647          43.00       154.32
   95.53        2982.00           1650          49.00       180.47
   95.56        2982.25           1653          49.00       180.47
   95.59        2982.50           1657          48.00       176.11
   95.62        2982.75           1660          51.00       189.19
   95.65        2983.00           1663          50.00       184.83
   95.68        2983.25           1667          47.00       171.75
   95.71        2983.50           1670          48.00       176.11
   95.75        2983.75           1673          47.00       171.75
   95.78        2984.00           1677          41.00       145.60
HS scan finished at 01:36:00
end
************************************************************
  HS Scan of (1) Internal mercury lamp
************************************************************
Integration time is 0.2294 seconds per sample
dh200417Manchester 53.47 2.23 2.804185pr1000
************************************************************
Dead Time -------------------------  3E-08 
Number of Cycles Used -------------  4 
Starting Wavelength (Angstroms) ---  2950 
Final Wavelength (Angstoms) -------  2984 
Wavelength Increment (Angstroms) --  .25 
Filter Wheel #1 Position ---------- (1) Ground quartz diffuser (ND=2.32)
Filter Wheel #2 Position ---------- (1) Neutral Density 0.494



************************************************************
HS scan start time = 20:12:00
Dark Count =  6.8 


Time (GMT)  Wavelength (Ang)  Step Number  Raw Counts  Counts/Second

 1212.38        2950.00           1222          48.00       179.60
 1212.44        2950.25           1226          48.00       179.60
 1212.47        2950.50           1229          38.00       136.01
 1212.50        2950.75           1232          55.00       210.11
 1212.53        2951.00           1236          50.00       188.32
 1212.56        2951.25           1239          52.00       197.04
 1212.60        2951.50           1242          48.00       179.60
 1212.63        2951.75           1246          41.00       149.09
 1212.66        2952.00           1249          42.00       153.44
 1212.69        2952.25           1252          50.00       188.32
 1212.72        2952.50           1256          45.00       166.52
 1212.75        2952.75           1259          42.00       153.44
 1212.78        2953.00           1262          48.00       179.60
 1212.81        2953.25           1266          47.00       175.24
 1212.84        2953.50           1269          41.00       149.09
 1212.88        2953.75           1272          44.00       162.16
 1212.91        2954.00           1276          49.00       183.96
 1212.94        2954.25           1279          44.00       162.16
 1212.97        2954.50           1282          46.00       170.88
 1213.00        2954.75           1286          49.00       183.96
 1213.03        2955.00           1289          47.00       175.24
 1213.06        2955.25           1292          56.00       214.47
 1213.09        2955.50           1296          49.00       183.96
 1213.12        2955.75           1299          48.00       179.60
 1213.15        2956.00           1302          50.00       188.32
 1213.18        2956.25           1306          44.00       162.16
 1213.21        2956.50           1309          46.00       170.88
 1213.25        2956.75           1312          44.00       162.16
 1213.28        2957.00           1316          43.00       157.80
 1213.31        2957.25           1319          41.00       149.09
 1213.34        2957.50           1322          47.00       175.24
 1213.37        2957.75           1326          42.00       153.44
 1213.40        2958.00           1329          49.00       183.96
 1213.43        2958.25           1332          51.00       192.68
 1213.46        2958.50           1336          42.00       153.44
 1213.49        2958.75           1339          49.00       183.96
 1213.52        2959.00           1342          51.00       192.68
 1213.55        2959.25           1346          56.00       214.47
 1213.58        2959.50           1349          57.00       218.83
 1213.61        2959.75           1352          73.00       288.58
 1213.65        2960.00           1356          95.00       384.49
 1213.68        2960.25           1359         137.00       567.58
 1213.71        2960.50           1362         173.00       724.51
 1213.74        2960.75           1366         233.00       986.08
 1213.77        2961.00           1369         278.00      1182.26
 1213.80        2961.25           1372         326.00      1391.51
 1213.83        2961.50           1376         418.00      1792.60
 1213.86        2961.75           1379         617.00      2660.19
 1213.89        2962.00           1382        1239.00      5372.27
 1213.92        2962.25           1386        3046.00     13253.74
 1213.95        2962.50           1389        4618.00     20113.27
 1213.98        2962.75           1392        6316.00     27525.77
 1214.01        2963.00           1396        8543.00     37252.60
 1214.05        2963.25           1399       10098.00     44047.71
 1214.08        2963.50           1402       11926.00     52039.33
 1214.11        2963.75           1406       14311.00     62471.81
 1214.14        2964.00           1409       15906.00     69452.32
 1214.17        2964.25           1412       17715.00     77372.94
 1214.20        2964.50           1416       19847.00     86712.63
 1214.23        2964.75           1419       21312.00     93133.44
 1214.26        2965.00           1422       23130.00    101104.80
 1214.29        2965.25           1426       25354.00    110861.60
 1214.33        2965.50           1429       27228.00    119087.30
 1214.36        2965.75           1432       29023.00    126970.10
 1214.39        2966.00           1436       31340.00    137150.80
 1214.42        2966.25           1439       32922.00    144105.50
 1214.45        2966.50           1442       34266.00    150016.30
 1214.48        2966.75           1446       35716.00    156395.60
 1214.51        2967.00           1449       36007.00    157676.10
 1214.54        2967.25           1452       36252.00    158754.30
 1214.57        2967.50           1456       36205.00    158547.50
 1214.60        2967.75           1459       36257.00    158776.30
 1214.63        2968.00           1462       35929.00    157332.90
 1214.67        2968.25           1466       34492.00    151010.40
 1214.70        2968.50           1469       33173.00    145209.20
 1214.73        2968.75           1472       31613.00    138350.70
 1214.76        2969.00           1476       29262.00    128019.90
 1214.79        2969.25           1479       27550.00    120501.10
 1214.82        2969.50           1482       25844.00    113012.00
 1214.85        2969.75           1486       23882.00    104403.20
 1214.88        2970.00           1489       22258.00     97280.88
 1214.91        2970.25           1492       20477.00     89473.49
 1214.94        2970.50           1496       18460.00     80635.98
 1214.97        2970.75           1499       16617.00     72564.95
 1215.00        2971.00           1502       15038.00     65653.16
 1215.03        2971.25           1506       12659.00     55244.93
 1215.07        2971.50           1509       10922.00     47649.59
 1215.10        2971.75           1513        8713.00     37995.34
 1215.13        2972.00           1516        7088.00     30896.98
 1215.16        2972.25           1519        5457.00     23775.45
 1215.19        2972.50           1523        3543.00     15422.13
 1215.22        2972.75           1526        2153.00      9358.34
 1215.25        2973.00           1529        1032.00      4469.65
 1215.28        2973.25           1533         420.00      1801.32
 1215.31        2973.50           1536         329.00      1404.59
 1215.34        2973.75           1539         282.00      1199.69
 1215.37        2974.00           1543         227.00       959.92
 1215.41        2974.25           1546         165.00       689.64
 1215.44        2974.50           1549         116.00       476.03
 1215.47        2974.75           1553          86.00       345.25
 1215.50        2975.00           1556          68.00       266.79
 1215.53        2975.25           1559          60.00       231.91
 1215.56        2975.50           1563          58.00       223.19
 1215.59        2975.75           1566          49.00       183.96
 1215.62        2976.00           1569          44.00       162.16
 1215.65        2976.25           1573          43.00       157.80
 1215.68        2976.50           1576          50.00       188.32
 1215.71        2976.75           1579          46.00       170.88
 1215.75        2977.00           1583          55.00       210.11
 1215.78        2977.25           1586          40.00       144.73
 1215.81        2977.50           1590          48.00       179.60
 1215.84        2977.75           1593          50.00       188.32
 1215.87        2978.00           1596          52.00       197.04
 1215.90        2978.25           1600          42.00       153.44
 1215.93        2978.50           1603          44.00       162.16
 1215.96        2978.75           1606          44.00       162.16
 1215.99        2979.00           1610          49.00       183.96
 1216.02        2979.25           1613          48.00       179.60
 1216.05        2979.50           1616          45.00       166.52
 1216.08        2979.75           1620          42.00       153.44
 1216.11        2980.00           1623          49.00       183.96
 1216.14        2980.25           1626          41.00       149.09
 1216.17        2980.50           1630          43.00       157.80
 1216.20        2980.75           1633          45.00       166.52
 1216.23        2981.00           1637          43.00       157.80
 1216.27        2981.25           1640          48.00       179.60
 1216.30        2981.50           1643          44.00       162.16
 1216.33        2981.75           1647          50.00       188.32
 1216.36        2982.00           1650          43.00       157.80
 1216.39        2982.25           1653          44.00       162.16
 1216.42        2982.50           1657          45.00       166.52
 1216.45        2982.75           1660          48.00       179.60
 1216.48        2983.00           1663          49.00       183.96
 1216.51        2983.25           1667          45.00       166.52
 1216.54        2983.50           1670          49.00       183.96
 1216.57        2983.75           1673          45.00       166.52
 1216.60        2984.00           1677          53.00       201.40
HS scan finished at 20:16:49
end
