************************************************************
  HS Scan of (1) Internal mercury lamp
************************************************************
Integration time is 0.2294 seconds per sample
dh210417Manchester 53.47 2.23 2.804185pr1000
************************************************************
Dead Time -------------------------  3E-08 
Number of Cycles Used -------------  4 
Starting Wavelength (Angstroms) ---  2950 
Final Wavelength (Angstoms) -------  2984 
Wavelength Increment (Angstroms) --  .25 
Filter Wheel #1 Position ---------- (1) Ground quartz diffuser (ND=2.32)
Filter Wheel #2 Position ---------- (1) Neutral Density 0.494



************************************************************
HS scan start time = 01:21:44
Dark Count =  6.1 


Time (GMT)  Wavelength (Ang)  Step Number  Raw Counts  Counts/Second

   82.10        2950.00           1222          45.00       169.57
   82.17        2950.25           1226          42.00       156.50
   82.20        2950.50           1229          42.00       156.50
   82.23        2950.75           1232          48.00       182.65
   82.26        2951.00           1236          46.00       173.93
   82.29        2951.25           1239          51.00       195.73
   82.32        2951.50           1242          44.00       165.21
   82.35        2951.75           1246          50.00       191.37
   82.38        2952.00           1249          54.00       208.81
   82.42        2952.25           1252          46.00       173.93
   82.45        2952.50           1256          42.00       156.50
   82.48        2952.75           1259          50.00       191.37
   82.51        2953.00           1262          44.00       165.21
   82.54        2953.25           1266          46.00       173.93
   82.57        2953.50           1269          54.00       208.81
   82.60        2953.75           1272          55.00       213.17
   82.63        2954.00           1276          44.00       165.21
   82.66        2954.25           1279          44.00       165.21
   82.69        2954.50           1282          51.00       195.73
   82.72        2954.75           1286          41.00       152.14
   82.75        2955.00           1289          45.00       169.57
   82.78        2955.25           1292          44.00       165.21
   82.81        2955.50           1296          48.00       182.65
   82.84        2955.75           1299          45.00       169.57
   82.87        2956.00           1302          46.00       173.93
   82.91        2956.25           1306          48.00       182.65
   82.94        2956.50           1309          54.00       208.81
   82.97        2956.75           1312          50.00       191.37
   83.00        2957.00           1316          43.00       160.86
   83.03        2957.25           1319          46.00       173.93
   83.06        2957.50           1322          54.00       208.81
   83.09        2957.75           1326          48.00       182.65
   83.12        2958.00           1329          41.00       152.14
   83.15        2958.25           1332          49.00       187.01
   83.18        2958.50           1336          43.00       160.86
   83.21        2958.75           1339          46.00       173.93
   83.24        2959.00           1342          47.00       178.29
   83.28        2959.25           1346          50.00       191.37
   83.31        2959.50           1349          59.00       230.60
   83.34        2959.75           1352          72.00       287.27
   83.37        2960.00           1356         107.00       439.85
   83.40        2960.25           1359         145.00       605.50
   83.43        2960.50           1362         176.00       740.64
   83.46        2960.75           1366         233.00       989.13
   83.49        2961.00           1369         272.00      1159.15
   83.52        2961.25           1372         328.00      1403.28
   83.55        2961.50           1376         402.00      1725.90
   83.58        2961.75           1379         569.00      2453.97
   83.62        2962.00           1382        1122.00      4865.14
   83.65        2962.25           1386        2688.00     11695.04
   83.68        2962.50           1389        4283.00     18654.29
   83.71        2962.75           1392        5891.00     25673.21
   83.74        2963.00           1396        7766.00     33861.32
   83.77        2963.25           1399        9384.00     40930.36
   83.80        2963.50           1402       11088.00     48378.37
   83.83        2963.75           1406       13450.00     58707.93
   83.86        2964.00           1409       15089.00     65879.43
   83.90        2964.25           1412       17148.00     74893.03
   83.93        2964.50           1416       19369.00     84621.28
   83.96        2964.75           1419       21106.00     92233.49
   83.99        2965.00           1422       22961.00    100366.70
   84.02        2965.25           1426       25184.00    110118.60
   84.05        2965.50           1429       26816.00    117281.60
   84.08        2965.75           1432       28637.00    125277.70
   84.11        2966.00           1436       30673.00    134222.50
   84.14        2966.25           1439       32335.00    141527.70
   84.17        2966.50           1442       33867.00    148264.40
   84.20        2966.75           1446       35643.00    156077.40
   84.24        2967.00           1449       36276.00    158863.00
   84.27        2967.25           1452       36252.00    158757.40
   84.30        2967.50           1456       36245.00    158726.60
   84.33        2967.75           1459       36279.00    158876.20
   84.36        2968.00           1462       35993.00    157617.60
   84.39        2968.25           1466       35262.00    154401.00
   84.42        2968.50           1469       34176.00    149623.50
   84.45        2968.75           1472       32670.00    143000.60
   84.48        2969.00           1476       30547.00    133668.80
   84.51        2969.25           1479       28962.00    126705.20
   84.54        2969.50           1482       27456.00    120091.40
   84.57        2969.75           1486       25042.00    109495.50
   84.61        2970.00           1489       23334.00    102002.60
   84.64        2970.25           1492       21611.00     94447.27
   84.67        2970.50           1496       19660.00     85896.30
   84.70        2970.75           1499       17922.00     78282.60
   84.73        2971.00           1502       16109.00     70344.03
   84.76        2971.25           1506       14104.00     61569.16
   84.79        2971.50           1509       12231.00     53376.16
   84.82        2971.75           1513       10115.00     44125.07
   84.85        2972.00           1516        8493.00     37037.21
   84.88        2972.25           1519        6886.00     30017.87
   84.91        2972.50           1523        4787.00     20853.93
   84.95        2972.75           1526        3289.00     14316.96
   84.98        2973.00           1529        1764.00      7664.80
   85.01        2973.25           1533         585.00      2523.73
   85.04        2973.50           1536         348.00      1490.48
   85.07        2973.75           1539         259.00      1102.48
   85.10        2974.00           1543         211.00       893.22
   85.13        2974.25           1546         153.00       640.38
   85.16        2974.50           1549         115.00       474.72
   85.19        2974.75           1553          66.00       261.12
   85.22        2975.00           1556          63.00       248.04
   85.25        2975.25           1559          61.00       239.32
   85.28        2975.50           1563          53.00       204.45
   85.32        2975.75           1566          44.00       165.21
   85.35        2976.00           1569          49.00       187.01
   85.38        2976.25           1573          47.00       178.29
   85.41        2976.50           1576          52.00       200.09
   85.44        2976.75           1579          37.00       134.70
   85.47        2977.00           1583          48.00       182.65
   85.50        2977.25           1586          56.00       217.53
   85.53        2977.50           1590          56.00       217.53
   85.56        2977.75           1593          54.00       208.81
   85.59        2978.00           1596          55.00       213.17
   85.62        2978.25           1600          51.00       195.73
   85.65        2978.50           1603          48.00       182.65
   85.68        2978.75           1606          48.00       182.65
   85.71        2979.00           1610          52.00       200.09
   85.74        2979.25           1613          45.00       169.57
   85.78        2979.50           1616          50.00       191.37
   85.81        2979.75           1620          45.00       169.57
   85.84        2980.00           1623          46.00       173.93
   85.87        2980.25           1626          50.00       191.37
   85.90        2980.50           1630          52.00       200.09
   85.93        2980.75           1633          48.00       182.65
   85.96        2981.00           1637          49.00       187.01
   85.99        2981.25           1640          55.00       213.17
   86.02        2981.50           1643          46.00       173.93
   86.05        2981.75           1647          48.00       182.65
   86.08        2982.00           1650          42.00       156.50
   86.12        2982.25           1653          40.00       147.78
   86.15        2982.50           1657          36.00       130.34
   86.18        2982.75           1660          44.00       165.21
   86.21        2983.00           1663          47.00       178.29
   86.24        2983.25           1667          45.00       169.57
   86.27        2983.50           1670          53.00       204.45
   86.30        2983.75           1673          44.00       165.21
   86.33        2984.00           1677          41.00       152.14
HS scan finished at 01:26:33
end
************************************************************
  HS Scan of (1) Internal mercury lamp
************************************************************
Integration time is 0.2294 seconds per sample
dh210417Manchester 53.47 2.23 2.804185pr1000
************************************************************
Dead Time -------------------------  3E-08 
Number of Cycles Used -------------  4 
Starting Wavelength (Angstroms) ---  2950 
Final Wavelength (Angstoms) -------  2984 
Wavelength Increment (Angstroms) --  .25 
Filter Wheel #1 Position ---------- (1) Ground quartz diffuser (ND=2.32)
Filter Wheel #2 Position ---------- (1) Neutral Density 0.494



************************************************************
HS scan start time = 20:12:00
Dark Count =  6.5 


Time (GMT)  Wavelength (Ang)  Step Number  Raw Counts  Counts/Second

 1212.38        2950.00           1222          49.00       185.27
 1212.44        2950.25           1226          48.00       180.91
 1212.47        2950.50           1229          43.00       159.11
 1212.50        2950.75           1232          51.00       193.99
 1212.53        2951.00           1236          38.00       137.32
 1212.57        2951.25           1239          43.00       159.11
 1212.60        2951.50           1242          46.00       172.19
 1212.63        2951.75           1246          50.00       189.63
 1212.66        2952.00           1249          49.00       185.27
 1212.69        2952.25           1252          40.00       146.03
 1212.72        2952.50           1256          46.00       172.19
 1212.75        2952.75           1259          51.00       193.99
 1212.78        2953.00           1262          43.00       159.11
 1212.81        2953.25           1266          48.00       180.91
 1212.84        2953.50           1269          44.00       163.47
 1212.88        2953.75           1272          53.00       202.70
 1212.91        2954.00           1276          45.00       167.83
 1212.94        2954.25           1279          43.00       159.11
 1212.97        2954.50           1282          49.00       185.27
 1213.00        2954.75           1286          53.00       202.70
 1213.03        2955.00           1289          44.00       163.47
 1213.06        2955.25           1292          48.00       180.91
 1213.09        2955.50           1296          48.00       180.91
 1213.12        2955.75           1299          52.00       198.34
 1213.15        2956.00           1302          47.00       176.55
 1213.19        2956.25           1306          47.00       176.55
 1213.22        2956.50           1309          45.00       167.83
 1213.25        2956.75           1312          42.00       154.75
 1213.28        2957.00           1316          47.00       176.55
 1213.31        2957.25           1319          51.00       193.99
 1213.34        2957.50           1322          48.00       180.91
 1213.37        2957.75           1326          43.00       159.11
 1213.40        2958.00           1329          48.00       180.91
 1213.43        2958.25           1332          48.00       180.91
 1213.46        2958.50           1336          53.00       202.70
 1213.49        2958.75           1339          46.00       172.19
 1213.52        2959.00           1342          48.00       180.91
 1213.55        2959.25           1346          55.00       211.42
 1213.58        2959.50           1349          58.00       224.50
 1213.62        2959.75           1352          67.00       263.73
 1213.65        2960.00           1356         109.00       446.82
 1213.68        2960.25           1359         129.00       534.01
 1213.71        2960.50           1362         186.00       782.49
 1213.74        2960.75           1366         236.00      1000.47
 1213.77        2961.00           1369         278.00      1183.56
 1213.80        2961.25           1372         315.00      1344.87
 1213.83        2961.50           1376         398.00      1706.71
 1213.86        2961.75           1379         588.00      2535.07
 1213.89        2962.00           1382        1142.00      4950.60
 1213.92        2962.25           1386        2716.00     11815.44
 1213.95        2962.50           1389        4275.00     18617.63
 1213.99        2962.75           1392        5746.00     25038.42
 1214.02        2963.00           1396        8031.00     35017.15
 1214.05        2963.25           1399        9885.00     43118.08
 1214.08        2963.50           1402       11673.00     50934.35
 1214.11        2963.75           1406       13788.00     60184.86
 1214.14        2964.00           1409       15343.00     66989.33
 1214.17        2964.25           1412       17097.00     74667.95
 1214.20        2964.50           1416       19550.00     85412.56
 1214.23        2964.75           1419       21085.00     92139.71
 1214.27        2965.00           1422       22884.00    100027.30
 1214.30        2965.25           1426       24996.00    109291.90
 1214.33        2965.50           1429       26834.00    117358.90
 1214.36        2965.75           1432       28760.00    125816.20
 1214.39        2966.00           1436       30965.00    135504.00
 1214.42        2966.25           1439       32409.00    141851.30
 1214.45        2966.50           1442       34031.00    148983.90
 1214.48        2966.75           1446       35787.00    156709.30
 1214.51        2967.00           1449       36042.00    157831.40
 1214.54        2967.25           1452       36251.00    158751.20
 1214.58        2967.50           1456       36262.00    158799.60
 1214.61        2967.75           1459       35973.00    157527.80
 1214.64        2968.00           1462       35890.00    157162.60
 1214.67        2968.25           1466       35004.00    153264.10
 1214.70        2968.50           1469       33510.00    146692.50
 1214.73        2968.75           1472       32020.00    140141.10
 1214.76        2969.00           1476       29804.00    130402.40
 1214.79        2969.25           1479       28076.00    122812.20
 1214.82        2969.50           1482       26303.00    115027.90
 1214.85        2969.75           1486       24000.00    104922.20
 1214.89        2970.00           1489       22530.00     98474.89
 1214.92        2970.25           1492       20796.00     90872.94
 1214.95        2970.50           1496       18719.00     81771.85
 1214.98        2970.75           1499       17071.00     74554.10
 1215.01        2971.00           1502       15474.00     67562.71
 1215.04        2971.25           1506       13485.00     58859.30
 1215.07        2971.50           1509       11599.00     50610.79
 1215.10        2971.75           1513        9424.00     41103.40
 1215.13        2972.00           1516        7662.00     33405.30
 1215.17        2972.25           1519        6006.00     26173.55
 1215.20        2972.50           1523        3878.00     16885.19
 1215.23        2972.75           1526        2423.00     10537.33
 1215.26        2973.00           1529        1244.00      5395.38
 1215.29        2973.25           1533         484.00      2081.65
 1215.32        2973.50           1536         327.00      1397.18
 1215.35        2973.75           1539         265.00      1126.89
 1215.38        2974.00           1543         216.00       913.28
 1215.41        2974.25           1546         157.00       656.07
 1215.44        2974.50           1549         120.00       494.78
 1215.47        2974.75           1553          78.00       311.69
 1215.51        2975.00           1556          65.00       255.02
 1215.54        2975.25           1559          56.00       215.78
 1215.57        2975.50           1563          52.00       198.34
 1215.60        2975.75           1566          48.00       180.91
 1215.63        2976.00           1569          52.00       198.34
 1215.66        2976.25           1573          44.00       163.47
 1215.69        2976.50           1576          48.00       180.91
 1215.72        2976.75           1579          53.00       202.70
 1215.75        2977.00           1583          46.00       172.19
 1215.78        2977.25           1586          47.00       176.55
 1215.81        2977.50           1590          45.00       167.83
 1215.84        2977.75           1593          41.00       150.39
 1215.87        2978.00           1596          57.00       220.14
 1215.90        2978.25           1600          49.00       185.27
 1215.94        2978.50           1603          48.00       180.91
 1215.97        2978.75           1606          48.00       180.91
 1216.00        2979.00           1610          40.00       146.03
 1216.03        2979.25           1613          46.00       172.19
 1216.06        2979.50           1616          48.00       180.91
 1216.09        2979.75           1620          41.00       150.39
 1216.12        2980.00           1623          48.00       180.91
 1216.15        2980.25           1626          41.00       150.39
 1216.18        2980.50           1630          51.00       193.99
 1216.21        2980.75           1633          43.00       159.11
 1216.24        2981.00           1637          48.00       180.91
 1216.27        2981.25           1640          57.00       220.14
 1216.31        2981.50           1643          45.00       167.83
 1216.34        2981.75           1647          45.00       167.83
 1216.37        2982.00           1650          42.00       154.75
 1216.40        2982.25           1653          43.00       159.11
 1216.43        2982.50           1657          45.00       167.83
 1216.46        2982.75           1660          47.00       176.55
 1216.49        2983.00           1663          40.00       146.03
 1216.52        2983.25           1667          45.00       167.83
 1216.55        2983.50           1670          41.00       150.39
 1216.58        2983.75           1673          50.00       189.63
 1216.61        2984.00           1677          40.00       146.03
HS scan finished at 20:16:50
end
