************************************************************
  HS Scan of (1) Internal mercury lamp
************************************************************
Integration time is 0.2294 seconds per sample
dh230417Manchester 53.47 2.23 2.804185pr1000
************************************************************
Dead Time -------------------------  3E-08 
Number of Cycles Used -------------  4 
Starting Wavelength (Angstroms) ---  2950 
Final Wavelength (Angstoms) -------  2984 
Wavelength Increment (Angstroms) --  .25 
Filter Wheel #1 Position ---------- (1) Ground quartz diffuser (ND=2.32)
Filter Wheel #2 Position ---------- (1) Neutral Density 0.494



************************************************************
HS scan start time = 01:35:12
Dark Count =  4.5 


Time (GMT)  Wavelength (Ang)  Step Number  Raw Counts  Counts/Second

   95.58        2950.00           1222          44.00       172.19
   95.64        2950.25           1226          42.00       163.47
   95.68        2950.50           1229          42.00       163.47
   95.71        2950.75           1232          41.00       159.11
   95.74        2951.00           1236          56.00       224.50
   95.77        2951.25           1239          45.00       176.55
   95.80        2951.50           1242          49.00       193.99
   95.83        2951.75           1246          45.00       176.55
   95.86        2952.00           1249          42.00       163.47
   95.89        2952.25           1252          49.00       193.99
   95.92        2952.50           1256          43.00       167.83
   95.95        2952.75           1259          42.00       163.47
   95.98        2953.00           1262          46.00       180.91
   96.01        2953.25           1266          43.00       167.83
   96.04        2953.50           1269          48.00       189.63
   96.08        2953.75           1272          52.00       207.06
   96.11        2954.00           1276          48.00       189.63
   96.14        2954.25           1279          48.00       189.63
   96.17        2954.50           1282          41.00       159.11
   96.20        2954.75           1286          42.00       163.47
   96.23        2955.00           1289          44.00       172.19
   96.26        2955.25           1292          46.00       180.91
   96.29        2955.50           1296          45.00       176.55
   96.32        2955.75           1299          42.00       163.47
   96.35        2956.00           1302          47.00       185.27
   96.38        2956.25           1306          43.00       167.83
   96.42        2956.50           1309          48.00       189.63
   96.45        2956.75           1312          52.00       207.06
   96.48        2957.00           1316          44.00       172.19
   96.51        2957.25           1319          54.00       215.78
   96.54        2957.50           1322          47.00       185.27
   96.57        2957.75           1326          43.00       167.83
   96.60        2958.00           1329          48.00       189.63
   96.63        2958.25           1332          48.00       189.63
   96.66        2958.50           1336          46.00       180.91
   96.69        2958.75           1339          49.00       193.99
   96.72        2959.00           1342          53.00       211.42
   96.75        2959.25           1346          56.00       224.50
   96.78        2959.50           1349          55.00       220.14
   96.81        2959.75           1352          57.00       228.86
   96.84        2960.00           1356          80.00       329.12
   96.87        2960.25           1359         123.00       516.57
   96.91        2960.50           1362         143.00       603.76
   96.94        2960.75           1366         206.00       878.40
   96.97        2961.00           1369         257.00      1100.73
   97.00        2961.25           1372         317.00      1362.31
   97.03        2961.50           1376         430.00      1854.94
   97.06        2961.75           1379         775.00      3359.10
   97.09        2962.00           1382        1642.00      7139.72
   97.12        2962.25           1386        3549.00     15458.35
   97.15        2962.50           1389        5148.00     22436.63
   97.18        2962.75           1392        6741.00     29391.64
   97.21        2963.00           1396        8725.00     38057.81
   97.25        2963.25           1399       10416.00     45447.71
   97.28        2963.50           1402       12207.00     53278.21
   97.31        2963.75           1406       14337.00     62595.65
   97.34        2964.00           1409       16196.00     70731.88
   97.37        2964.25           1412       18101.00     79073.58
   97.40        2964.50           1416       20377.00     89045.31
   97.43        2964.75           1419       22087.00     96541.19
   97.46        2965.00           1422       23619.00    103259.70
   97.49        2965.25           1426       26045.00    113904.30
   97.53        2965.50           1429       27622.00    120827.30
   97.56        2965.75           1432       29268.00    128056.40
   97.59        2966.00           1436       31244.00    136738.90
   97.62        2966.25           1439       32936.00    144177.20
   97.65        2966.50           1442       34365.00    150461.90
   97.68        2966.75           1446       35782.00    156696.10
   97.71        2967.00           1449       35907.00    157246.20
   97.74        2967.25           1452       36152.00    158324.30
   97.77        2967.50           1456       36176.00    158430.00
   97.80        2967.75           1459       36037.00    157818.20
   97.83        2968.00           1462       35725.00    156445.30
   97.87        2968.25           1466       34643.00    151684.80
   97.90        2968.50           1469       33053.00    144691.70
   97.93        2968.75           1472       31752.00    138971.80
   97.96        2969.00           1476       29576.00    129409.50
   97.99        2969.25           1479       27865.00    121894.40
   98.02        2969.50           1482       26376.00    115357.10
   98.05        2969.75           1486       24278.00    106150.50
   98.08        2970.00           1489       22395.00     97891.68
   98.11        2970.25           1492       20923.00     91438.37
   98.14        2970.50           1496       18737.00     81859.46
   98.18        2970.75           1499       16996.00     74234.46
   98.21        2971.00           1502       15241.00     66551.66
   98.24        2971.25           1506       13026.00     56860.21
   98.27        2971.50           1509       11325.00     49421.53
   98.30        2971.75           1513        9031.00     39394.83
   98.33        2972.00           1516        7555.00     32946.67
   98.36        2972.25           1519        5937.00     25881.03
   98.39        2972.50           1523        3846.00     16754.28
   98.42        2972.75           1526        2434.00     10594.04
   98.46        2973.00           1529        1138.00      4941.88
   98.49        2973.25           1533         527.00      2277.84
   98.52        2973.50           1536         355.00      1527.97
   98.55        2973.75           1539         311.00      1336.15
   98.58        2974.00           1543         261.00      1118.17
   98.61        2974.25           1546         197.00       839.17
   98.64        2974.50           1549         151.00       638.63
   98.67        2974.75           1553          97.00       403.23
   98.70        2975.00           1556          67.00       272.45
   98.73        2975.25           1559          68.00       276.81
   98.76        2975.50           1563          49.00       193.99
   98.79        2975.75           1566          48.00       189.63
   98.82        2976.00           1569          46.00       180.91
   98.85        2976.25           1573          50.00       198.34
   98.88        2976.50           1576          45.00       176.55
   98.92        2976.75           1579          40.00       154.75
   98.95        2977.00           1583          49.00       193.99
   98.98        2977.25           1586          53.00       211.42
   99.01        2977.50           1590          46.00       180.91
   99.04        2977.75           1593          47.00       185.27
   99.07        2978.00           1596          46.00       180.91
   99.10        2978.25           1600          49.00       193.99
   99.13        2978.50           1603          50.00       198.34
   99.16        2978.75           1606          49.00       193.99
   99.19        2979.00           1610          51.00       202.70
   99.23        2979.25           1613          47.00       185.27
   99.26        2979.50           1616          50.00       198.34
   99.29        2979.75           1620          49.00       193.99
   99.32        2980.00           1623          46.00       180.91
   99.35        2980.25           1626          53.00       211.42
   99.38        2980.50           1630          51.00       202.70
   99.41        2980.75           1633          50.00       198.34
   99.44        2981.00           1637          46.00       180.91
   99.47        2981.25           1640          49.00       193.99
   99.50        2981.50           1643          45.00       176.55
   99.53        2981.75           1647          51.00       202.70
   99.57        2982.00           1650          44.00       172.19
   99.60        2982.25           1653          45.00       176.55
   99.63        2982.50           1657          45.00       176.55
   99.66        2982.75           1660          44.00       172.19
   99.69        2983.00           1663          38.00       146.03
   99.72        2983.25           1667          42.00       163.47
   99.75        2983.50           1670          43.00       167.83
   99.78        2983.75           1673          49.00       193.99
   99.81        2984.00           1677          45.00       176.55
HS scan finished at 01:40:02
end
************************************************************
  HS Scan of (1) Internal mercury lamp
************************************************************
Integration time is 0.2294 seconds per sample
dh230417Manchester 53.47 2.23 2.804185pr1000
************************************************************
Dead Time -------------------------  3E-08 
Number of Cycles Used -------------  4 
Starting Wavelength (Angstroms) ---  2950 
Final Wavelength (Angstoms) -------  2984 
Wavelength Increment (Angstroms) --  .25 
Filter Wheel #1 Position ---------- (1) Ground quartz diffuser (ND=2.32)
Filter Wheel #2 Position ---------- (1) Neutral Density 0.494



************************************************************
HS scan start time = 20:12:04
Dark Count =  7.1 


Time (GMT)  Wavelength (Ang)  Step Number  Raw Counts  Counts/Second

 1212.44        2950.00           1222          54.00       204.45
 1212.51        2950.25           1226          53.00       200.09
 1212.54        2950.50           1229          44.00       160.86
 1212.57        2950.75           1232          47.00       173.93
 1212.60        2951.00           1236          47.00       173.93
 1212.63        2951.25           1239          61.00       234.96
 1212.67        2951.50           1242          49.00       182.65
 1212.70        2951.75           1246          51.00       191.37
 1212.73        2952.00           1249          42.00       152.14
 1212.76        2952.25           1252          45.00       165.21
 1212.79        2952.50           1256          50.00       187.01
 1212.82        2952.75           1259          48.00       178.29
 1212.85        2953.00           1262          48.00       178.29
 1212.88        2953.25           1266          47.00       173.93
 1212.91        2953.50           1269          48.00       178.29
 1212.94        2953.75           1272          45.00       165.21
 1212.97        2954.00           1276          50.00       187.01
 1213.00        2954.25           1279          52.00       195.73
 1213.04        2954.50           1282          51.00       191.37
 1213.07        2954.75           1286          50.00       187.01
 1213.10        2955.00           1289          48.00       178.29
 1213.13        2955.25           1292          44.00       160.86
 1213.16        2955.50           1296          49.00       182.65
 1213.19        2955.75           1299          43.00       156.50
 1213.22        2956.00           1302          53.00       200.09
 1213.25        2956.25           1306          48.00       178.29
 1213.28        2956.50           1309          54.00       204.45
 1213.32        2956.75           1312          50.00       187.01
 1213.35        2957.00           1316          47.00       173.93
 1213.38        2957.25           1319          47.00       173.93
 1213.41        2957.50           1322          47.00       173.93
 1213.44        2957.75           1326          49.00       182.65
 1213.47        2958.00           1329          48.00       178.29
 1213.50        2958.25           1332          44.00       160.86
 1213.53        2958.50           1336          48.00       178.29
 1213.56        2958.75           1339          48.00       178.29
 1213.59        2959.00           1342          51.00       191.37
 1213.62        2959.25           1346          49.00       182.65
 1213.65        2959.50           1349          55.00       208.81
 1213.68        2959.75           1352          64.00       248.04
 1213.71        2960.00           1356          94.00       378.82
 1213.74        2960.25           1359         121.00       496.52
 1213.77        2960.50           1362         147.00       609.86
 1213.80        2960.75           1366         214.00       901.94
 1213.84        2961.00           1369         259.00      1098.12
 1213.87        2961.25           1372         306.00      1303.02
 1213.90        2961.50           1376         403.00      1725.90
 1213.93        2961.75           1379         641.00      2763.52
 1213.96        2962.00           1382        1263.00      5475.62
 1213.99        2962.25           1386        3092.00     13453.12
 1214.02        2962.50           1389        4635.00     20186.15
 1214.05        2962.75           1392        6250.00     27236.28
 1214.08        2963.00           1396        8444.00     36818.77
 1214.11        2963.25           1399       10043.00     43806.01
 1214.15        2963.50           1402       11567.00     50468.25
 1214.18        2963.75           1406       14017.00     61184.14
 1214.21        2964.00           1409       15909.00     69464.13
 1214.24        2964.25           1412       17478.00     76333.72
 1214.27        2964.50           1416       19736.00     86224.93
 1214.30        2964.75           1419       21356.00     93325.01
 1214.33        2965.00           1422       22953.00    100327.20
 1214.36        2965.25           1426       25260.00    110447.70
 1214.39        2965.50           1429       26990.00    118041.10
 1214.42        2965.75           1432       28567.00    124965.90
 1214.46        2966.00           1436       30876.00    135110.20
 1214.49        2966.25           1439       32460.00    142072.90
 1214.52        2966.50           1442       34094.00    149258.40
 1214.55        2966.75           1446       35717.00    156398.60
 1214.58        2967.00           1449       36095.00    158062.00
 1214.61        2967.25           1452       36040.00    157820.00
 1214.64        2967.50           1456       36077.00    157982.80
 1214.67        2967.75           1459       36095.00    158062.00
 1214.70        2968.00           1462       35819.00    156847.50
 1214.74        2968.25           1466       34892.00    152768.70
 1214.77        2968.50           1469       33510.00    146689.90
 1214.80        2968.75           1472       31951.00    139835.20
 1214.83        2969.00           1476       29796.00    130364.60
 1214.86        2969.25           1479       27884.00    121966.40
 1214.89        2969.50           1482       26358.00    115266.70
 1214.92        2969.75           1486       23891.00    104441.40
 1214.95        2970.00           1489       22387.00     97845.21
 1214.98        2970.25           1492       20926.00     91440.12
 1215.02        2970.50           1496       18754.00     81922.55
 1215.05        2970.75           1499       17078.00     74582.13
 1215.08        2971.00           1502       15423.00     67336.85
 1215.11        2971.25           1506       13324.00     58152.37
 1215.14        2971.50           1509       11639.00     50783.07
 1215.17        2971.75           1513        9157.00     39934.04
 1215.20        2972.00           1516        7593.00     33101.29
 1215.23        2972.25           1519        5951.00     25930.80
 1215.26        2972.50           1523        3756.00     16350.22
 1215.30        2972.75           1526        2343.00     10185.76
 1215.33        2973.00           1529        1110.00      4808.45
 1215.36        2973.25           1533         462.00      1983.12
 1215.39        2973.50           1536         334.00      1425.08
 1215.42        2973.75           1539         297.00      1263.78
 1215.45        2974.00           1543         246.00      1041.44
 1215.48        2974.25           1546         177.00       740.64
 1215.51        2974.50           1549         137.00       566.27
 1215.54        2974.75           1553          93.00       374.46
 1215.57        2975.00           1556          64.00       248.04
 1215.61        2975.25           1559          61.00       234.96
 1215.64        2975.50           1563          50.00       187.01
 1215.67        2975.75           1566          55.00       208.81
 1215.70        2976.00           1569          50.00       187.01
 1215.73        2976.25           1573          48.00       178.29
 1215.76        2976.50           1576          47.00       173.93
 1215.79        2976.75           1579          50.00       187.01
 1215.82        2977.00           1583          53.00       200.09
 1215.86        2977.25           1586          41.00       147.78
 1215.89        2977.50           1590          47.00       173.93
 1215.92        2977.75           1593          44.00       160.86
 1215.95        2978.00           1596          48.00       178.29
 1215.98        2978.25           1600          48.00       178.29
 1216.01        2978.50           1603          44.00       160.86
 1216.04        2978.75           1606          53.00       200.09
 1216.07        2979.00           1610          44.00       160.86
 1216.10        2979.25           1613          42.00       152.14
 1216.13        2979.50           1616          45.00       165.21
 1216.16        2979.75           1620          48.00       178.29
 1216.19        2980.00           1623          49.00       182.65
 1216.22        2980.25           1626          53.00       200.09
 1216.25        2980.50           1630          44.00       160.86
 1216.28        2980.75           1633          46.00       169.57
 1216.31        2981.00           1637          40.00       143.42
 1216.35        2981.25           1640          42.00       152.14
 1216.38        2981.50           1643          47.00       173.93
 1216.41        2981.75           1647          45.00       165.21
 1216.44        2982.00           1650          45.00       165.21
 1216.47        2982.25           1653          49.00       182.65
 1216.50        2982.50           1657          43.00       156.50
 1216.53        2982.75           1660          49.00       182.65
 1216.56        2983.00           1663          50.00       187.01
 1216.59        2983.25           1667          45.00       165.21
 1216.62        2983.50           1670          42.00       152.14
 1216.65        2983.75           1673          54.00       204.45
 1216.68        2984.00           1677          46.00       169.57
HS scan finished at 20:16:54
end
