************************************************************
  HS Scan of (1) Internal mercury lamp
************************************************************
Integration time is 0.2294 seconds per sample
dh260417Manchester 53.47 2.23 2.750537pr1000
************************************************************
Dead Time -------------------------  3E-08 
Number of Cycles Used -------------  4 
Starting Wavelength (Angstroms) ---  2950 
Final Wavelength (Angstoms) -------  2984 
Wavelength Increment (Angstroms) --  .25 
Filter Wheel #1 Position ---------- (1) Ground quartz diffuser (ND=2.32)
Filter Wheel #2 Position ---------- (1) Neutral Density 0.494



************************************************************
HS scan start time = 02:11:06
Dark Count =  6.5 


Time (GMT)  Wavelength (Ang)  Step Number  Raw Counts  Counts/Second

  131.48        2950.00           1222          44.00       163.47
  131.54        2950.25           1226          47.00       176.55
  131.57        2950.50           1229          42.00       154.75
  131.61        2950.75           1232          48.00       180.91
  131.64        2951.00           1236          53.00       202.70
  131.67        2951.25           1239          47.00       176.55
  131.70        2951.50           1242          45.00       167.83
  131.73        2951.75           1246          44.00       163.47
  131.76        2952.00           1249          44.00       163.47
  131.79        2952.25           1252          44.00       163.47
  131.82        2952.50           1256          48.00       180.91
  131.85        2952.75           1259          43.00       159.11
  131.88        2953.00           1262          42.00       154.75
  131.91        2953.25           1266          42.00       154.75
  131.95        2953.50           1269          51.00       193.99
  131.98        2953.75           1272          49.00       185.27
  132.01        2954.00           1276          43.00       159.11
  132.04        2954.25           1279          52.00       198.34
  132.07        2954.50           1282          45.00       167.83
  132.10        2954.75           1286          55.00       211.42
  132.13        2955.00           1289          47.00       176.55
  132.16        2955.25           1292          47.00       176.55
  132.19        2955.50           1296          51.00       193.99
  132.22        2955.75           1299          48.00       180.91
  132.25        2956.00           1302          41.00       150.39
  132.28        2956.25           1306          52.00       198.34
  132.31        2956.50           1309          43.00       159.11
  132.35        2956.75           1312          47.00       176.55
  132.38        2957.00           1316          47.00       176.55
  132.41        2957.25           1319          44.00       163.47
  132.44        2957.50           1322          49.00       185.27
  132.47        2957.75           1326          50.00       189.63
  132.50        2958.00           1329          51.00       193.99
  132.53        2958.25           1332          45.00       167.83
  132.56        2958.50           1336          47.00       176.55
  132.59        2958.75           1339          50.00       189.63
  132.62        2959.00           1342          47.00       176.55
  132.65        2959.25           1346          48.00       180.91
  132.68        2959.50           1349          58.00       224.50
  132.71        2959.75           1352          74.00       294.25
  132.74        2960.00           1356         115.00       472.98
  132.78        2960.25           1359         140.00       581.96
  132.81        2960.50           1362         187.00       786.85
  132.84        2960.75           1366         237.00      1004.83
  132.87        2961.00           1369         276.00      1174.85
  132.90        2961.25           1372         334.00      1427.70
  132.93        2961.50           1376         473.00      2033.69
  132.96        2961.75           1379         829.00      3585.83
  132.99        2962.00           1382        1694.00      7357.77
  133.02        2962.25           1386        3667.00     15964.49
  133.05        2962.50           1389        5164.00     22497.75
  133.08        2962.75           1392        6800.00     29640.56
  133.11        2963.00           1396        8999.00     39246.27
  133.15        2963.25           1399       10721.00     46772.21
  133.18        2963.50           1402       12261.00     53505.61
  133.21        2963.75           1406       14704.00     64192.82
  133.24        2964.00           1409       16344.00     71371.05
  133.27        2964.25           1412       18146.00     79261.93
  133.30        2964.50           1416       20639.00     90184.82
  133.33        2964.75           1419       22217.00     97102.42
  133.36        2965.00           1422       24098.00    105352.10
  133.39        2965.25           1426       26636.00    116489.70
  133.42        2965.50           1429       28275.00    123686.10
  133.45        2965.75           1432       30020.00    131351.40
  133.49        2966.00           1436       32104.00    140510.40
  133.52        2966.25           1439       33634.00    147237.90
  133.55        2966.50           1442       35023.00    153347.70
  133.58        2966.75           1446       36361.00    159235.40
  133.61        2967.00           1449       36568.00    160146.40
  133.64        2967.25           1452       36627.00    160406.10
  133.67        2967.50           1456       36510.00    159891.10
  133.70        2967.75           1459       36396.00    159389.40
  133.73        2968.00           1462       36081.00    158003.10
  133.76        2968.25           1466       34908.00    152841.80
  133.80        2968.50           1469       33574.00    146974.00
  133.83        2968.75           1472       31848.00    139385.00
  133.86        2969.00           1476       29733.00    130090.40
  133.89        2969.25           1479       28266.00    123646.60
  133.92        2969.50           1482       26595.00    116309.70
  133.95        2969.75           1486       24372.00    106554.10
  133.98        2970.00           1489       22758.00     99474.71
  134.01        2970.25           1492       20958.00     91583.01
  134.04        2970.50           1496       18724.00     81793.75
  134.07        2970.75           1499       16973.00     74124.99
  134.10        2971.00           1502       15160.00     66188.41
  134.13        2971.25           1506       12944.00     56492.79
  134.17        2971.50           1509       11256.00     49111.10
  134.20        2971.75           1513        9208.00     40159.52
  134.23        2972.00           1516        7507.00     32728.28
  134.26        2972.25           1519        5939.00     25881.03
  134.29        2972.50           1523        3877.00     16880.82
  134.32        2972.75           1526        2312.00     10053.16
  134.35        2973.00           1529        1128.00      4889.56
  134.38        2973.25           1533         469.00      2016.25
  134.42        2973.50           1536         362.00      1549.77
  134.45        2973.75           1539         278.00      1183.56
  134.48        2974.00           1543         225.00       952.51
  134.51        2974.25           1546         182.00       765.06
  134.54        2974.50           1549         129.00       534.01
  134.57        2974.75           1553          85.00       342.20
  134.60        2975.00           1556          65.00       255.02
  134.63        2975.25           1559          59.00       228.86
  134.66        2975.50           1563          51.00       193.99
  134.69        2975.75           1566          52.00       198.34
  134.72        2976.00           1569          45.00       167.83
  134.75        2976.25           1573          50.00       189.63
  134.78        2976.50           1576          50.00       189.63
  134.82        2976.75           1579          44.00       163.47
  134.85        2977.00           1583          48.00       180.91
  134.88        2977.25           1586          53.00       202.70
  134.91        2977.50           1590          47.00       176.55
  134.94        2977.75           1593          52.00       198.34
  134.97        2978.00           1596          44.00       163.47
  135.00        2978.25           1600          48.00       180.91
  135.03        2978.50           1603          49.00       185.27
  135.06        2978.75           1606          48.00       180.91
  135.09        2979.00           1610          47.00       176.55
  135.12        2979.25           1613          48.00       180.91
  135.15        2979.50           1616          45.00       167.83
  135.18        2979.75           1620          43.00       159.11
  135.21        2980.00           1623          42.00       154.75
  135.24        2980.25           1626          48.00       180.91
  135.27        2980.50           1630          52.00       198.34
  135.30        2980.75           1633          41.00       150.39
  135.34        2981.00           1637          48.00       180.91
  135.37        2981.25           1640          47.00       176.55
  135.40        2981.50           1643          44.00       163.47
  135.43        2981.75           1647          40.00       146.03
  135.46        2982.00           1650          46.00       172.19
  135.49        2982.25           1653          44.00       163.47
  135.52        2982.50           1657          43.00       159.11
  135.55        2982.75           1660          47.00       176.55
  135.58        2983.00           1663          45.00       167.83
  135.62        2983.25           1667          45.00       167.83
  135.65        2983.50           1670          59.00       228.86
  135.68        2983.75           1673          52.00       198.34
  135.71        2984.00           1677          45.00       167.83
HS scan finished at 02:15:56
end
************************************************************
  HS Scan of (1) Internal mercury lamp
************************************************************
Integration time is 0.2294 seconds per sample
dh260417Manchester 53.47 2.23 2.804185pr1000
************************************************************
Dead Time -------------------------  3E-08 
Number of Cycles Used -------------  4 
Starting Wavelength (Angstroms) ---  2950 
Final Wavelength (Angstoms) -------  2984 
Wavelength Increment (Angstroms) --  .25 
Filter Wheel #1 Position ---------- (1) Ground quartz diffuser (ND=2.32)
Filter Wheel #2 Position ---------- (1) Neutral Density 0.494



************************************************************
HS scan start time = 20:42:01
Dark Count =  7.8 


Time (GMT)  Wavelength (Ang)  Step Number  Raw Counts  Counts/Second

 1242.38        2950.00           1222          52.00       192.68
 1242.45        2950.25           1226          47.00       170.88
 1242.48        2950.50           1229          47.00       170.88
 1242.51        2950.75           1232          54.00       201.40
 1242.54        2951.00           1236          38.00       131.65
 1242.57        2951.25           1239          53.00       197.04
 1242.60        2951.50           1242          44.00       157.80
 1242.63        2951.75           1246          45.00       162.16
 1242.66        2952.00           1249          41.00       144.73
 1242.69        2952.25           1252          48.00       175.24
 1242.73        2952.50           1256          44.00       157.80
 1242.76        2952.75           1259          43.00       153.44
 1242.79        2953.00           1262          47.00       170.88
 1242.82        2953.25           1266          44.00       157.80
 1242.85        2953.50           1269          43.00       153.44
 1242.88        2953.75           1272          46.00       166.52
 1242.91        2954.00           1276          40.00       140.37
 1242.94        2954.25           1279          50.00       183.96
 1242.97        2954.50           1282          52.00       192.68
 1243.00        2954.75           1286          54.00       201.40
 1243.03        2955.00           1289          40.00       140.37
 1243.06        2955.25           1292          53.00       197.04
 1243.10        2955.50           1296          51.00       188.32
 1243.13        2955.75           1299          49.00       179.60
 1243.16        2956.00           1302          51.00       188.32
 1243.19        2956.25           1306          53.00       197.04
 1243.22        2956.50           1309          49.00       179.60
 1243.25        2956.75           1312          50.00       183.96
 1243.28        2957.00           1316          54.00       201.40
 1243.31        2957.25           1319          49.00       179.60
 1243.34        2957.50           1322          47.00       170.88
 1243.37        2957.75           1326          52.00       192.68
 1243.40        2958.00           1329          44.00       157.80
 1243.43        2958.25           1332          46.00       166.52
 1243.47        2958.50           1336          47.00       170.88
 1243.50        2958.75           1339          46.00       166.52
 1243.53        2959.00           1342          48.00       175.24
 1243.56        2959.25           1346          54.00       201.40
 1243.59        2959.50           1349          57.00       214.47
 1243.62        2959.75           1352          91.00       362.69
 1243.65        2960.00           1356         113.00       458.59
 1243.68        2960.25           1359         135.00       554.50
 1243.71        2960.50           1362         187.00       781.19
 1243.74        2960.75           1366         252.00      1064.55
 1243.77        2961.00           1369         286.00      1212.77
 1243.80        2961.25           1372         336.00      1430.75
 1243.83        2961.50           1376         484.00      2075.98
 1243.87        2961.75           1379         858.00      3706.60
 1243.90        2962.00           1382        1747.00      7583.24
 1243.93        2962.25           1386        3789.00     16491.16
 1243.96        2962.50           1389        5376.00     23417.49
 1243.99        2962.75           1392        6953.00     30303.04
 1244.02        2963.00           1396        8957.00     39057.08
 1244.05        2963.25           1399       10614.00     46298.80
 1244.08        2963.50           1402       12437.00     54269.63
 1244.11        2963.75           1406       14512.00     63346.95
 1244.15        2964.00           1409       16457.00     71860.07
 1244.18        2964.25           1412       18391.00     80329.36
 1244.21        2964.50           1416       20703.00     90459.62
 1244.24        2964.75           1419       22432.00     98039.46
 1244.27        2965.00           1422       24103.00    105368.30
 1244.30        2965.25           1426       26542.00    116071.30
 1244.33        2965.50           1429       28072.00    122788.90
 1244.36        2965.75           1432       29611.00    129548.70
 1244.39        2966.00           1436       31848.00    139379.30
 1244.42        2966.25           1439       33295.00    145741.30
 1244.46        2966.50           1442       34617.00    151555.90
 1244.49        2966.75           1446       36082.00    158001.80
 1244.52        2967.00           1449       36382.00    159322.00
 1244.55        2967.25           1452       36418.00    159480.50
 1244.58        2967.50           1456       36408.00    159436.50
 1244.61        2967.75           1459       36308.00    158996.30
 1244.64        2968.00           1462       36106.00    158107.40
 1244.67        2968.25           1466       34689.00    151872.60
 1244.70        2968.50           1469       33079.00    144791.50
 1244.74        2968.75           1472       31584.00    138218.90
 1244.77        2969.00           1476       29570.00    129368.60
 1244.80        2969.25           1479       27931.00    122169.70
 1244.83        2969.50           1482       26326.00    115123.20
 1244.86        2969.75           1486       23914.00    104539.20
 1244.89        2970.00           1489       22191.00     96982.72
 1244.92        2970.25           1492       20482.00     89491.02
 1244.95        2970.50           1496       18347.00     80136.63
 1244.98        2970.75           1499       16624.00     72591.22
 1245.01        2971.00           1502       15004.00     65499.99
 1245.05        2971.25           1506       12895.00     56272.78
 1245.08        2971.50           1509       11064.00     48266.00
 1245.11        2971.75           1513        8842.00     38554.60
 1245.14        2972.00           1516        7174.00     31268.20
 1245.17        2972.25           1519        5552.00     24185.81
 1245.20        2972.50           1523        3490.00     15186.52
 1245.23        2972.75           1526        2039.00      8856.76
 1245.26        2973.00           1529         890.00      3846.13
 1245.30        2973.25           1533         414.00      1770.80
 1245.33        2973.50           1536         311.00      1321.76
 1245.36        2973.75           1539         242.00      1020.96
 1245.39        2974.00           1543         216.00       907.61
 1245.42        2974.25           1546         153.00       632.97
 1245.45        2974.50           1549         106.00       428.08
 1245.48        2974.75           1553          73.00       284.22
 1245.51        2975.00           1556          59.00       223.19
 1245.54        2975.25           1559          48.00       175.24
 1245.57        2975.50           1563          58.00       218.83
 1245.60        2975.75           1566          44.00       157.80
 1245.63        2976.00           1569          45.00       162.16
 1245.66        2976.25           1573          57.00       214.47
 1245.69        2976.50           1576          52.00       192.68
 1245.72        2976.75           1579          40.00       140.37
 1245.75        2977.00           1583          59.00       223.19
 1245.78        2977.25           1586          44.00       157.80
 1245.81        2977.50           1590          52.00       192.68
 1245.85        2977.75           1593          55.00       205.76
 1245.88        2978.00           1596          57.00       214.47
 1245.91        2978.25           1600          41.00       144.73
 1245.94        2978.50           1603          44.00       157.80
 1245.97        2978.75           1606          52.00       192.68
 1246.00        2979.00           1610          46.00       166.52
 1246.03        2979.25           1613          46.00       166.52
 1246.06        2979.50           1616          45.00       162.16
 1246.09        2979.75           1620          45.00       162.16
 1246.12        2980.00           1623          47.00       170.88
 1246.15        2980.25           1626          52.00       192.68
 1246.18        2980.50           1630          48.00       175.24
 1246.22        2980.75           1633          38.00       131.65
 1246.25        2981.00           1637          51.00       188.32
 1246.28        2981.25           1640          42.00       149.09
 1246.31        2981.50           1643          46.00       166.52
 1246.34        2981.75           1647          40.00       140.37
 1246.37        2982.00           1650          57.00       214.47
 1246.40        2982.25           1653          38.00       131.65
 1246.43        2982.50           1657          42.00       149.09
 1246.46        2982.75           1660          47.00       170.88
 1246.49        2983.00           1663          42.00       149.09
 1246.52        2983.25           1667          43.00       153.44
 1246.55        2983.50           1670          44.00       157.80
 1246.58        2983.75           1673          41.00       144.73
 1246.61        2984.00           1677          45.00       162.16
HS scan finished at 20:46:50
end
