************************************************************
  HS Scan of (1) Internal mercury lamp
************************************************************
Integration time is 0.2294 seconds per sample
dh220418Manchester 53.47 2.23 2.911481pr1000
************************************************************
Dead Time -------------------------  3E-08 
Number of Cycles Used -------------  4 
Starting Wavelength (Angstroms) ---  2950 
Final Wavelength (Angstoms) -------  2984 
Wavelength Increment (Angstroms) --  .25 
Filter Wheel #1 Position ---------- (1) Ground quartz diffuser (ND=2.32)
Filter Wheel #2 Position ---------- (1) Neutral Density 0.494



************************************************************
HS scan start time = 01:23:41
Dark Count =  6.6 


Time (GMT)  Wavelength (Ang)  Step Number  Raw Counts  Counts/Second

   84.06        2950.00           1222          57.00       219.71
   84.13        2950.25           1226          73.00       289.45
   84.16        2950.50           1229          63.00       245.86
   84.19        2950.75           1232          64.00       250.22
   84.22        2951.00           1236          56.00       215.35
   84.25        2951.25           1239          69.00       272.02
   84.28        2951.50           1242          59.00       228.42
   84.31        2951.75           1246          54.00       206.63
   84.34        2952.00           1249          55.00       210.99
   84.37        2952.25           1252          66.00       258.94
   84.40        2952.50           1256          66.00       258.94
   84.43        2952.75           1259          62.00       241.50
   84.46        2953.00           1262          64.00       250.22
   84.49        2953.25           1266          52.00       197.91
   84.52        2953.50           1269          58.00       224.06
   84.55        2953.75           1272          60.00       232.78
   84.59        2954.00           1276          51.00       193.55
   84.62        2954.25           1279          55.00       210.99
   84.65        2954.50           1282          63.00       245.86
   84.68        2954.75           1286          54.00       206.63
   84.71        2955.00           1289          60.00       232.78
   84.74        2955.25           1292          58.00       224.06
   84.77        2955.50           1296          58.00       224.06
   84.80        2955.75           1299          57.00       219.71
   84.83        2956.00           1302          57.00       219.71
   84.86        2956.25           1306          60.00       232.78
   84.89        2956.50           1309          66.00       258.94
   84.92        2956.75           1312          56.00       215.35
   84.95        2957.00           1316          54.00       206.63
   84.98        2957.25           1319          65.00       254.58
   85.01        2957.50           1322          57.00       219.71
   85.05        2957.75           1326          56.00       215.35
   85.08        2958.00           1329          57.00       219.71
   85.11        2958.25           1332          59.00       228.42
   85.14        2958.50           1336          58.00       224.06
   85.17        2958.75           1339          63.00       245.86
   85.20        2959.00           1342          61.00       237.14
   85.23        2959.25           1346          64.00       250.22
   85.26        2959.50           1349          74.00       293.81
   85.29        2959.75           1352          96.00       389.72
   85.32        2960.00           1356         106.00       433.31
   85.35        2960.25           1359         160.00       668.71
   85.38        2960.50           1362         184.00       773.34
   85.42        2960.75           1366         243.00      1030.55
   85.45        2961.00           1369         268.00      1139.53
   85.48        2961.25           1372         348.00      1488.30
   85.51        2961.50           1376         442.00      1898.10
   85.54        2961.75           1379         749.00      3236.58
   85.57        2962.00           1382        1715.00      7448.92
   85.60        2962.25           1386        3622.00     15767.70
   85.63        2962.50           1389        5184.00     22584.61
   85.66        2962.75           1392        6790.00     29596.45
   85.69        2963.00           1396        8772.00     38253.99
   85.72        2963.25           1399       10377.00     45268.07
   85.76        2963.50           1402       11828.00     51611.68
   85.79        2963.75           1406       14043.00     61300.08
   85.82        2964.00           1409       15778.00     68892.90
   85.85        2964.25           1412       17312.00     75608.97
   85.88        2964.50           1416       19191.00     83839.21
   85.91        2964.75           1419       20740.00     90627.06
   85.94        2965.00           1422       22256.00     97272.99
   85.97        2965.25           1426       24415.00    106742.30
   86.00        2965.50           1429       26105.00    114158.40
   86.04        2965.75           1432       27447.00    120049.70
   86.07        2966.00           1436       29819.00    130467.80
   86.10        2966.25           1439       31304.00    136993.40
   86.13        2966.50           1442       32513.00    142308.10
   86.16        2966.75           1446       33700.00    147527.70
   86.19        2967.00           1449       33761.00    147796.00
   86.22        2967.25           1452       33864.00    148249.00
   86.25        2967.50           1456       33817.00    148042.30
   86.28        2967.75           1459       33728.00    147650.80
   86.32        2968.00           1462       33449.00    146423.80
   86.35        2968.25           1466       31833.00    139318.70
   86.38        2968.50           1469       30553.00    133692.90
   86.41        2968.75           1472       28892.00    126395.60
   86.44        2969.00           1476       26754.00    117007.20
   86.47        2969.25           1479       25230.00    110318.30
   86.50        2969.50           1482       23966.00    104772.60
   86.53        2969.75           1486       21660.00     94659.90
   86.57        2970.00           1489       20079.00     87730.16
   86.60        2970.25           1492       18722.00     81784.55
   86.63        2970.50           1496       16708.00     72964.25
   86.66        2970.75           1499       15105.00     65947.26
   86.69        2971.00           1502       13735.00     59952.55
   86.72        2971.25           1506       11569.00     50479.18
   86.75        2971.50           1509        9878.00     43087.05
   86.78        2971.75           1513        7740.00     33745.57
   86.81        2972.00           1516        6346.00     27657.64
   86.84        2972.25           1519        4693.00     20441.48
   86.88        2972.50           1523        2665.00     11592.52
   86.91        2972.75           1526        1321.00      5730.72
   86.94        2973.00           1529         601.00      2591.31
   86.97        2973.25           1533         367.00      1571.13
   87.00        2973.50           1536         323.00      1379.31
   87.03        2973.75           1539         264.00      1122.10
   87.06        2974.00           1543         216.00       912.84
   87.09        2974.25           1546         163.00       681.79
   87.12        2974.50           1549         118.00       485.62
   87.15        2974.75           1553          91.00       367.92
   87.19        2975.00           1556          76.00       302.53
   87.22        2975.25           1559          61.00       237.14
   87.25        2975.50           1563          61.00       237.14
   87.28        2975.75           1566          52.00       197.91
   87.31        2976.00           1569          56.00       215.35
   87.34        2976.25           1573          61.00       237.14
   87.37        2976.50           1576          66.00       258.94
   87.40        2976.75           1579          56.00       215.35
   87.43        2977.00           1583          58.00       224.06
   87.46        2977.25           1586          60.00       232.78
   87.49        2977.50           1590          48.00       180.47
   87.52        2977.75           1593          54.00       206.63
   87.55        2978.00           1596          55.00       210.99
   87.59        2978.25           1600          58.00       224.06
   87.62        2978.50           1603          53.00       202.27
   87.65        2978.75           1606          51.00       193.55
   87.68        2979.00           1610          56.00       215.35
   87.71        2979.25           1613          58.00       224.06
   87.74        2979.50           1616          61.00       237.14
   87.77        2979.75           1620          49.00       184.83
   87.80        2980.00           1623          58.00       224.06
   87.83        2980.25           1626          57.00       219.71
   87.86        2980.50           1630          59.00       228.42
   87.89        2980.75           1633          47.00       176.11
   87.92        2981.00           1637          52.00       197.91
   87.96        2981.25           1640          56.00       215.35
   87.99        2981.50           1643          55.00       210.99
   88.02        2981.75           1647          53.00       202.27
   88.05        2982.00           1650          59.00       228.42
   88.08        2982.25           1653          52.00       197.91
   88.11        2982.50           1657          53.00       202.27
   88.14        2982.75           1660          56.00       215.35
   88.17        2983.00           1663          56.00       215.35
   88.20        2983.25           1667          47.00       176.11
   88.23        2983.50           1670          54.00       206.63
   88.27        2983.75           1673          51.00       193.55
   88.30        2984.00           1677          45.00       167.39
HS scan finished at 01:28:31
end
************************************************************
  HS Scan of (1) Internal mercury lamp
************************************************************
Integration time is 0.2294 seconds per sample
dh220418Manchester 53.47 2.23 2.804185pr1000
************************************************************
Dead Time -------------------------  3E-08 
Number of Cycles Used -------------  4 
Starting Wavelength (Angstroms) ---  2950 
Final Wavelength (Angstoms) -------  2984 
Wavelength Increment (Angstroms) --  .25 
Filter Wheel #1 Position ---------- (1) Ground quartz diffuser (ND=2.32)
Filter Wheel #2 Position ---------- (1) Neutral Density 0.494



************************************************************
HS scan start time = 20:12:05
Dark Count =  8.100001 


Time (GMT)  Wavelength (Ang)  Step Number  Raw Counts  Counts/Second

 1212.45        2950.00           1222          51.00       187.01
 1212.52        2950.25           1226          60.00       226.24
 1212.55        2950.50           1229          61.00       230.60
 1212.58        2950.75           1232          60.00       226.24
 1212.61        2951.00           1236          56.00       208.81
 1212.64        2951.25           1239          60.00       226.24
 1212.67        2951.50           1242          60.00       226.24
 1212.70        2951.75           1246          65.00       248.04
 1212.73        2952.00           1249          62.00       234.96
 1212.76        2952.25           1252          59.00       221.88
 1212.79        2952.50           1256          60.00       226.24
 1212.83        2952.75           1259          66.00       252.40
 1212.86        2953.00           1262          60.00       226.24
 1212.89        2953.25           1266          64.00       243.68
 1212.92        2953.50           1269          58.00       217.53
 1212.95        2953.75           1272          59.00       221.88
 1212.98        2954.00           1276          64.00       243.68
 1213.01        2954.25           1279          54.00       200.09
 1213.04        2954.50           1282          66.00       252.40
 1213.07        2954.75           1286          59.00       221.88
 1213.10        2955.00           1289          60.00       226.24
 1213.13        2955.25           1292          58.00       217.53
 1213.16        2955.50           1296          57.00       213.17
 1213.20        2955.75           1299          61.00       230.60
 1213.23        2956.00           1302          56.00       208.81
 1213.26        2956.25           1306          58.00       217.53
 1213.29        2956.50           1309          57.00       213.17
 1213.32        2956.75           1312          57.00       213.17
 1213.35        2957.00           1316          68.00       261.12
 1213.38        2957.25           1319          60.00       226.24
 1213.41        2957.50           1322          55.00       204.45
 1213.44        2957.75           1326          65.00       248.04
 1213.47        2958.00           1329          54.00       200.09
 1213.50        2958.25           1332          55.00       204.45
 1213.53        2958.50           1336          55.00       204.45
 1213.56        2958.75           1339          60.00       226.24
 1213.60        2959.00           1342          63.00       239.32
 1213.63        2959.25           1346          56.00       208.81
 1213.66        2959.50           1349          73.00       282.91
 1213.69        2959.75           1352          86.00       339.59
 1213.72        2960.00           1356         115.00       466.00
 1213.75        2960.25           1359         137.00       561.91
 1213.78        2960.50           1362         173.00       718.85
 1213.81        2960.75           1366         231.00       971.69
 1213.84        2961.00           1369         258.00      1089.40
 1213.87        2961.25           1372         321.00      1364.05
 1213.91        2961.50           1376         389.00      1660.50
 1213.94        2961.75           1379         495.00      2122.63
 1213.97        2962.00           1382        1100.00      4760.49
 1214.00        2962.25           1386        2662.00     11572.89
 1214.03        2962.50           1389        4099.00     17842.59
 1214.06        2962.75           1392        5603.00     24407.14
 1214.09        2963.00           1396        7459.00     32511.64
 1214.12        2963.25           1399        8977.00     39143.15
 1214.15        2963.50           1402       10494.00     45772.93
 1214.18        2963.75           1406       12567.00     54836.88
 1214.22        2964.00           1409       14151.00     61766.05
 1214.25        2964.25           1412       15691.00     68505.52
 1214.28        2964.50           1416       17672.00     77178.93
 1214.31        2964.75           1419       19130.00     83565.38
 1214.34        2965.00           1422       20703.00     90458.31
 1214.37        2965.25           1426       22525.00     98445.94
 1214.40        2965.50           1429       24013.00    104972.20
 1214.43        2965.75           1432       25439.00    111228.90
 1214.46        2966.00           1436       27494.00    120249.50
 1214.49        2966.25           1439       28854.00    126222.10
 1214.52        2966.50           1442       30248.00    132346.10
 1214.56        2966.75           1446       31742.00    138912.10
 1214.59        2967.00           1449       31996.00    140028.60
 1214.62        2967.25           1452       32000.00    140046.20
 1214.65        2967.50           1456       31960.00    139870.30
 1214.68        2967.75           1459       32047.00    140252.80
 1214.71        2968.00           1462       31829.00    139294.50
 1214.74        2968.25           1466       30767.00    134626.80
 1214.77        2968.50           1469       29267.00    128036.20
 1214.80        2968.75           1472       27913.00    122089.30
 1214.84        2969.00           1476       26160.00    114393.20
 1214.87        2969.25           1479       24487.00    107051.60
 1214.90        2969.50           1482       23123.00    101068.40
 1214.93        2969.75           1486       21114.00     92259.80
 1214.96        2970.00           1489       19578.00     85528.25
 1214.99        2970.25           1492       18225.00     79600.94
 1215.02        2970.50           1496       16389.00     71561.05
 1215.05        2970.75           1499       14863.00     64881.62
 1215.08        2971.00           1502       13370.00     58349.22
 1215.12        2971.25           1506       11613.00     50665.01
 1215.15        2971.50           1509       10103.00     44063.88
 1215.18        2971.75           1513        8123.00     35412.06
 1215.21        2972.00           1516        6576.00     28655.40
 1215.24        2972.25           1519        5121.00     22303.06
 1215.27        2972.50           1523        3303.00     14369.32
 1215.30        2972.75           1526        1914.00      8310.27
 1215.33        2973.00           1529         884.00      3818.66
 1215.36        2973.25           1533         433.00      1852.33
 1215.39        2973.50           1536         325.00      1381.49
 1215.42        2973.75           1539         264.00      1115.56
 1215.46        2974.00           1543         219.00       919.38
 1215.49        2974.25           1546         163.00       675.25
 1215.52        2974.50           1549         146.00       601.14
 1215.55        2974.75           1553          87.00       343.94
 1215.58        2975.00           1556          74.00       287.27
 1215.61        2975.25           1559          64.00       243.68
 1215.64        2975.50           1563          60.00       226.24
 1215.67        2975.75           1566          64.00       243.68
 1215.70        2976.00           1569          53.00       195.73
 1215.73        2976.25           1573          55.00       204.45
 1215.76        2976.50           1576          63.00       239.32
 1215.80        2976.75           1579          70.00       269.84
 1215.83        2977.00           1583          53.00       195.73
 1215.86        2977.25           1586          59.00       221.88
 1215.89        2977.50           1590          51.00       187.01
 1215.92        2977.75           1593          54.00       200.09
 1215.95        2978.00           1596          58.00       217.53
 1215.98        2978.25           1600          49.00       178.29
 1216.01        2978.50           1603          55.00       204.45
 1216.04        2978.75           1606          55.00       204.45
 1216.07        2979.00           1610          53.00       195.73
 1216.10        2979.25           1613          62.00       234.96
 1216.14        2979.50           1616          50.00       182.65
 1216.17        2979.75           1620          55.00       204.45
 1216.20        2980.00           1623          60.00       226.24
 1216.23        2980.25           1626          50.00       182.65
 1216.26        2980.50           1630          52.00       191.37
 1216.29        2980.75           1633          52.00       191.37
 1216.32        2981.00           1637          56.00       208.81
 1216.35        2981.25           1640          57.00       213.17
 1216.38        2981.50           1643          53.00       195.73
 1216.42        2981.75           1647          55.00       204.45
 1216.45        2982.00           1650          61.00       230.60
 1216.48        2982.25           1653          51.00       187.01
 1216.51        2982.50           1657          49.00       178.29
 1216.54        2982.75           1660          51.00       187.01
 1216.57        2983.00           1663          57.00       213.17
 1216.60        2983.25           1667          61.00       230.60
 1216.63        2983.50           1670          60.00       226.24
 1216.66        2983.75           1673          60.00       226.24
 1216.69        2984.00           1677          55.00       204.45
HS scan finished at 20:16:55
end
