************************************************************
  HS Scan of (1) Internal mercury lamp
************************************************************
Integration time is 0.2294 seconds per sample
dh220419Manchester 53.47 2.23 2.804185pr1000
************************************************************
Dead Time -------------------------  3E-08 
Number of Cycles Used -------------  4 
Starting Wavelength (Angstroms) ---  2950 
Final Wavelength (Angstoms) -------  2984 
Wavelength Increment (Angstroms) --  .25 
Filter Wheel #1 Position ---------- (1) Ground quartz diffuser (ND=2.32)
Filter Wheel #2 Position ---------- (1) Neutral Density 0.494



************************************************************
HS scan start time = 01:24:26
Dark Count =  6.4 


Time (GMT)  Wavelength (Ang)  Step Number  Raw Counts  Counts/Second

   84.80        2950.00           1222          54.00       207.50
   84.87        2950.25           1226          58.00       224.94
   84.90        2950.50           1229          57.00       220.58
   84.93        2950.75           1232          55.00       211.86
   84.96        2951.00           1236          54.00       207.50
   84.99        2951.25           1239          50.00       190.06
   85.02        2951.50           1242          62.00       242.37
   85.05        2951.75           1246          60.00       233.65
   85.08        2952.00           1249          56.00       216.22
   85.11        2952.25           1252          51.00       194.42
   85.14        2952.50           1256          59.00       229.30
   85.17        2952.75           1259          50.00       190.06
   85.20        2953.00           1262          62.00       242.37
   85.23        2953.25           1266          61.00       238.01
   85.27        2953.50           1269          58.00       224.94
   85.30        2953.75           1272          52.00       198.78
   85.33        2954.00           1276          55.00       211.86
   85.36        2954.25           1279          59.00       229.30
   85.39        2954.50           1282          52.00       198.78
   85.42        2954.75           1286          53.00       203.14
   85.45        2955.00           1289          59.00       229.30
   85.48        2955.25           1292          52.00       198.78
   85.51        2955.50           1296          60.00       233.65
   85.55        2955.75           1299          51.00       194.42
   85.58        2956.00           1302          62.00       242.37
   85.61        2956.25           1306          53.00       203.14
   85.64        2956.50           1309          56.00       216.22
   85.67        2956.75           1312          54.00       207.50
   85.70        2957.00           1316          64.00       251.09
   85.73        2957.25           1319          57.00       220.58
   85.76        2957.50           1322          57.00       220.58
   85.79        2957.75           1326          59.00       229.30
   85.83        2958.00           1329          59.00       229.30
   85.86        2958.25           1332          53.00       203.14
   85.89        2958.50           1336          62.00       242.37
   85.92        2958.75           1339          50.00       190.06
   85.95        2959.00           1342          60.00       233.65
   85.98        2959.25           1346          55.00       211.86
   86.01        2959.50           1349          55.00       211.86
   86.04        2959.75           1352          80.00       320.84
   86.07        2960.00           1356          91.00       368.79
   86.10        2960.25           1359         125.00       517.01
   86.13        2960.50           1362         151.00       630.35
   86.17        2960.75           1366         189.00       796.01
   86.20        2961.00           1369         224.00       948.59
   86.23        2961.25           1372         274.00      1166.56
   86.26        2961.50           1376         310.00      1323.51
   86.29        2961.75           1379         377.00      1615.60
   86.32        2962.00           1382         645.00      2784.02
   86.35        2962.25           1386        1788.00      7768.16
   86.38        2962.50           1389        2954.00     12854.13
   86.41        2962.75           1392        4324.00     18831.91
   86.45        2963.00           1396        5972.00     26025.54
   86.48        2963.25           1399        7244.00     31580.04
   86.51        2963.50           1402        8273.00     36074.77
   86.54        2963.75           1406       10004.00     43638.61
   86.57        2964.00           1409       11275.00     49194.61
   86.60        2964.25           1412       12315.00     53742.21
   86.63        2964.50           1416       14052.00     61340.33
   86.66        2964.75           1419       15519.00     67760.10
   86.69        2965.00           1422       16697.00     72916.96
   86.73        2965.25           1426       18364.00     80217.23
   86.76        2965.50           1429       19767.00     86363.84
   86.79        2965.75           1432       20855.00     91131.98
   86.82        2966.00           1436       22512.00     98396.40
   86.85        2966.25           1439       23659.00    103426.80
   86.88        2966.50           1442       24750.00    108213.00
   86.91        2966.75           1446       26024.00    113803.80
   86.94        2967.00           1449       26700.00    116771.00
   86.97        2967.25           1452       26956.00    117894.90
   87.01        2967.50           1456       26971.00    117960.70
   87.04        2967.75           1459       27065.00    118373.40
   87.07        2968.00           1462       26956.00    117894.90
   87.10        2968.25           1466       26350.00    115234.70
   87.13        2968.50           1469       25540.00    111679.60
   87.16        2968.75           1472       24243.00    105988.60
   87.19        2969.00           1476       22642.00     98966.46
   87.22        2969.25           1479       21680.00     94748.46
   87.26        2969.50           1482       20374.00     89023.84
   87.29        2969.75           1486       18695.00     81667.15
   87.32        2970.00           1489       17505.00     76455.03
   87.35        2970.25           1492       16449.00     71831.18
   87.38        2970.50           1496       14673.00     64057.60
   87.41        2970.75           1499       13322.00     58146.68
   87.44        2971.00           1502       12055.00     52605.19
   87.47        2971.25           1506       10323.00     45032.90
   87.50        2971.50           1509        9126.00     39801.64
   87.54        2971.75           1513        7627.00     33252.86
   87.57        2972.00           1516        6401.00     27898.67
   87.60        2972.25           1519        5101.00     22223.18
   87.63        2972.50           1523        3470.00     15105.36
   87.66        2972.75           1526        2305.00     10023.07
   87.69        2973.00           1529        1134.00      4916.16
   87.72        2973.25           1533         422.00      1811.78
   87.75        2973.50           1536         283.00      1205.80
   87.79        2973.75           1539         244.00      1035.78
   87.82        2974.00           1543         186.00       782.93
   87.85        2974.25           1546         148.00       617.27
   87.88        2974.50           1549         118.00       486.49
   87.91        2974.75           1553          86.00       347.00
   87.94        2975.00           1556          66.00       259.81
   87.97        2975.25           1559          58.00       224.94
   88.00        2975.50           1563          53.00       203.14
   88.03        2975.75           1566          62.00       242.37
   88.06        2976.00           1569          54.00       207.50
   88.09        2976.25           1573          58.00       224.94
   88.13        2976.50           1576          53.00       203.14
   88.16        2976.75           1579          45.00       168.27
   88.19        2977.00           1583          52.00       198.78
   88.22        2977.25           1586          51.00       194.42
   88.25        2977.50           1590          56.00       216.22
   88.28        2977.75           1593          42.00       155.19
   88.31        2978.00           1596          45.00       168.27
   88.34        2978.25           1600          58.00       224.94
   88.38        2978.50           1603          47.00       176.98
   88.41        2978.75           1606          51.00       194.42
   88.44        2979.00           1610          47.00       176.98
   88.47        2979.25           1613          57.00       220.58
   88.50        2979.50           1616          52.00       198.78
   88.53        2979.75           1620          51.00       194.42
   88.56        2980.00           1623          48.00       181.34
   88.59        2980.25           1626          45.00       168.27
   88.62        2980.50           1630          57.00       220.58
   88.66        2980.75           1633          50.00       190.06
   88.69        2981.00           1637          44.00       163.91
   88.72        2981.25           1640          50.00       190.06
   88.75        2981.50           1643          47.00       176.98
   88.78        2981.75           1647          45.00       168.27
   88.81        2982.00           1650          48.00       181.34
   88.84        2982.25           1653          46.00       172.63
   88.87        2982.50           1657          46.00       172.63
   88.90        2982.75           1660          59.00       229.30
   88.93        2983.00           1663          47.00       176.98
   88.97        2983.25           1667          57.00       220.58
   89.00        2983.50           1670          54.00       207.50
   89.03        2983.75           1673          51.00       194.42
   89.06        2984.00           1677          46.00       172.63
HS scan finished at 01:29:16
end
