************************************************************
  HS Scan of (1) Internal mercury lamp
************************************************************
Integration time is 0.2294 seconds per sample
dh270417Manchester 53.47 2.23 2.750537pr1000
************************************************************
Dead Time -------------------------  3E-08 
Number of Cycles Used -------------  4 
Starting Wavelength (Angstroms) ---  2950 
Final Wavelength (Angstoms) -------  2984 
Wavelength Increment (Angstroms) --  .25 
Filter Wheel #1 Position ---------- (1) Ground quartz diffuser (ND=2.32)
Filter Wheel #2 Position ---------- (1) Neutral Density 0.494



************************************************************
HS scan start time = 01:34:14
Dark Count =  5.4 


Time (GMT)  Wavelength (Ang)  Step Number  Raw Counts  Counts/Second

   94.60        2950.00           1222          44.00       168.27
   94.67        2950.25           1226          54.00       211.86
   94.70        2950.50           1229          42.00       159.55
   94.73        2950.75           1232          48.00       185.70
   94.76        2951.00           1236          47.00       181.34
   94.79        2951.25           1239          46.00       176.98
   94.82        2951.50           1242          52.00       203.14
   94.85        2951.75           1246          42.00       159.55
   94.89        2952.00           1249          46.00       176.98
   94.92        2952.25           1252          50.00       194.42
   94.95        2952.50           1256          48.00       185.70
   94.98        2952.75           1259          42.00       159.55
   95.01        2953.00           1262          46.00       176.98
   95.04        2953.25           1266          46.00       176.98
   95.07        2953.50           1269          48.00       185.70
   95.10        2953.75           1272          41.00       155.19
   95.13        2954.00           1276          44.00       168.27
   95.16        2954.25           1279          41.00       155.19
   95.19        2954.50           1282          46.00       176.98
   95.22        2954.75           1286          47.00       181.34
   95.25        2955.00           1289          44.00       168.27
   95.29        2955.25           1292          47.00       181.34
   95.32        2955.50           1296          51.00       198.78
   95.35        2955.75           1299          45.00       172.63
   95.38        2956.00           1302          45.00       172.63
   95.41        2956.25           1306          51.00       198.78
   95.44        2956.50           1309          46.00       176.98
   95.47        2956.75           1312          49.00       190.06
   95.50        2957.00           1316          48.00       185.70
   95.53        2957.25           1319          51.00       198.78
   95.56        2957.50           1322          48.00       185.70
   95.59        2957.75           1326          50.00       194.42
   95.62        2958.00           1329          46.00       176.98
   95.66        2958.25           1332          48.00       185.70
   95.69        2958.50           1336          46.00       176.98
   95.72        2958.75           1339          47.00       181.34
   95.75        2959.00           1342          46.00       176.98
   95.78        2959.25           1346          51.00       198.78
   95.81        2959.50           1349          59.00       233.65
   95.84        2959.75           1352          77.00       312.12
   95.87        2960.00           1356         103.00       425.46
   95.90        2960.25           1359         143.00       599.84
   95.93        2960.50           1362         183.00       774.21
   95.96        2960.75           1366         252.00      1075.01
   95.99        2961.00           1369         294.00      1258.11
   96.02        2961.25           1372         327.00      1401.98
   96.06        2961.50           1376         434.00      1868.46
   96.09        2961.75           1379         742.00      3211.29
   96.12        2962.00           1382        1454.00      6315.93
   96.15        2962.25           1386        3289.00     14320.02
   96.18        2962.50           1389        4883.00     21276.00
   96.21        2962.75           1392        6495.00     28313.49
   96.24        2963.00           1396        8586.00     37446.58
   96.27        2963.25           1399       10163.00     44337.92
   96.30        2963.50           1402       11912.00     51984.23
   96.33        2963.75           1406       14256.00     62237.28
   96.36        2964.00           1409       15814.00     69055.72
   96.39        2964.25           1412       17412.00     76052.13
   96.42        2964.50           1416       19950.00     87170.12
   96.46        2964.75           1419       21777.00     95178.09
   96.49        2965.00           1422       23841.00    104229.50
   96.52        2965.25           1426       25822.00    112921.60
   96.55        2965.50           1429       27453.00    120081.30
   96.58        2965.75           1432       29142.00    127499.00
   96.61        2966.00           1436       31488.00    137807.40
   96.64        2966.25           1439       32969.00    144318.40
   96.67        2966.50           1442       34464.00    150893.40
   96.70        2966.75           1446       35910.00    157255.40
   96.73        2967.00           1449       36366.00    159262.20
   96.77        2967.25           1452       36512.00    159904.80
   96.80        2967.50           1456       36385.00    159345.80
   96.83        2967.75           1459       36354.00    159209.40
   96.86        2968.00           1462       36151.00    158316.00
   96.89        2968.25           1466       34924.00    152917.00
   96.92        2968.50           1469       33464.00    146495.10
   96.95        2968.75           1472       31867.00    139473.40
   96.98        2969.00           1476       29998.00    131259.50
   97.01        2969.25           1479       28422.00    124336.50
   97.05        2969.50           1482       26467.00    115752.60
   97.08        2969.75           1486       24284.00    106172.90
   97.11        2970.00           1489       22825.00     99773.34
   97.14        2970.25           1492       21008.00     91807.00
   97.17        2970.50           1496       18740.00     81868.66
   97.20        2970.75           1499       17029.00     74375.01
   97.23        2971.00           1502       15459.00     67501.87
   97.26        2971.25           1506       12979.00     56650.69
   97.29        2971.50           1509       11253.00     49102.80
   97.32        2971.75           1513        8977.00     39154.95
   97.35        2972.00           1516        7417.00     32340.00
   97.39        2972.25           1519        5814.00     25340.09
   97.42        2972.50           1523        3766.00     16401.27
   97.45        2972.75           1526        2298.00      9996.89
   97.48        2973.00           1529        1137.00      4933.60
   97.51        2973.25           1533         441.00      1898.97
   97.54        2973.50           1536         328.00      1406.34
   97.57        2973.75           1539         272.00      1162.20
   97.60        2974.00           1543         218.00       926.79
   97.63        2974.25           1546         167.00       704.46
   97.66        2974.50           1549         142.00       595.48
   97.70        2974.75           1553          85.00       347.00
   97.73        2975.00           1556          71.00       285.97
   97.76        2975.25           1559          54.00       211.86
   97.79        2975.50           1563          46.00       176.98
   97.82        2975.75           1566          54.00       211.86
   97.85        2976.00           1569          49.00       190.06
   97.88        2976.25           1573          52.00       203.14
   97.91        2976.50           1576          47.00       181.34
   97.94        2976.75           1579          50.00       194.42
   97.97        2977.00           1583          44.00       168.27
   98.00        2977.25           1586          42.00       159.55
   98.04        2977.50           1590          43.00       163.91
   98.07        2977.75           1593          50.00       194.42
   98.10        2978.00           1596          46.00       176.98
   98.13        2978.25           1600          46.00       176.98
   98.16        2978.50           1603          49.00       190.06
   98.19        2978.75           1606          46.00       176.98
   98.22        2979.00           1610          44.00       168.27
   98.25        2979.25           1613          50.00       194.42
   98.28        2979.50           1616          56.00       220.58
   98.31        2979.75           1620          42.00       159.55
   98.34        2980.00           1623          44.00       168.27
   98.37        2980.25           1626          44.00       168.27
   98.40        2980.50           1630          43.00       163.91
   98.44        2980.75           1633          52.00       203.14
   98.47        2981.00           1637          49.00       190.06
   98.50        2981.25           1640          41.00       155.19
   98.53        2981.50           1643          48.00       185.70
   98.56        2981.75           1647          54.00       211.86
   98.59        2982.00           1650          49.00       190.06
   98.62        2982.25           1653          41.00       155.19
   98.65        2982.50           1657          47.00       181.34
   98.68        2982.75           1660          44.00       168.27
   98.71        2983.00           1663          40.00       150.83
   98.74        2983.25           1667          45.00       172.63
   98.77        2983.50           1670          42.00       159.55
   98.80        2983.75           1673          44.00       168.27
   98.84        2984.00           1677          47.00       181.34
HS scan finished at 01:39:03
end
************************************************************
  HS Scan of (1) Internal mercury lamp
************************************************************
Integration time is 0.2294 seconds per sample
dh270417Manchester 53.47 2.23 2.804185pr1000
************************************************************
Dead Time -------------------------  3E-08 
Number of Cycles Used -------------  4 
Starting Wavelength (Angstroms) ---  2950 
Final Wavelength (Angstoms) -------  2984 
Wavelength Increment (Angstroms) --  .25 
Filter Wheel #1 Position ---------- (1) Ground quartz diffuser (ND=2.32)
Filter Wheel #2 Position ---------- (1) Neutral Density 0.494



************************************************************
HS scan start time = 20:42:00
Dark Count =  6.8 


Time (GMT)  Wavelength (Ang)  Step Number  Raw Counts  Counts/Second

 1242.38        2950.00           1222          48.00       179.60
 1242.44        2950.25           1226          46.00       170.88
 1242.48        2950.50           1229          46.00       170.88
 1242.51        2950.75           1232          46.00       170.88
 1242.54        2951.00           1236          41.00       149.09
 1242.57        2951.25           1239          50.00       188.32
 1242.60        2951.50           1242          44.00       162.16
 1242.63        2951.75           1246          53.00       201.40
 1242.66        2952.00           1249          42.00       153.44
 1242.69        2952.25           1252          45.00       166.52
 1242.72        2952.50           1256          39.00       140.37
 1242.75        2952.75           1259          45.00       166.52
 1242.78        2953.00           1262          49.00       183.96
 1242.81        2953.25           1266          45.00       166.52
 1242.84        2953.50           1269          51.00       192.68
 1242.87        2953.75           1272          54.00       205.76
 1242.90        2954.00           1276          44.00       162.16
 1242.94        2954.25           1279          45.00       166.52
 1242.97        2954.50           1282          47.00       175.24
 1243.00        2954.75           1286          44.00       162.16
 1243.03        2955.00           1289          41.00       149.09
 1243.06        2955.25           1292          47.00       175.24
 1243.09        2955.50           1296          40.00       144.73
 1243.12        2955.75           1299          41.00       149.09
 1243.15        2956.00           1302          50.00       188.32
 1243.18        2956.25           1306          44.00       162.16
 1243.21        2956.50           1309          48.00       179.60
 1243.24        2956.75           1312          41.00       149.09
 1243.28        2957.00           1316          52.00       197.04
 1243.31        2957.25           1319          49.00       183.96
 1243.34        2957.50           1322          49.00       183.96
 1243.37        2957.75           1326          43.00       157.80
 1243.40        2958.00           1329          46.00       170.88
 1243.43        2958.25           1332          47.00       175.24
 1243.46        2958.50           1336          40.00       144.73
 1243.49        2958.75           1339          45.00       166.52
 1243.52        2959.00           1342          46.00       170.88
 1243.55        2959.25           1346          57.00       218.83
 1243.59        2959.50           1349          63.00       244.99
 1243.62        2959.75           1352          79.00       314.74
 1243.65        2960.00           1356         126.00       519.62
 1243.68        2960.25           1359         153.00       637.33
 1243.71        2960.50           1362         206.00       868.37
 1243.74        2960.75           1366         260.00      1103.79
 1243.77        2961.00           1369         291.00      1238.93
 1243.80        2961.25           1372         335.00      1430.75
 1243.83        2961.50           1376         407.00      1744.64
 1243.86        2961.75           1379         575.00      2477.08
 1243.89        2962.00           1382        1084.00      4696.39
 1243.92        2962.25           1386        2643.00     11495.68
 1243.95        2962.50           1389        4017.00     17490.43
 1243.99        2962.75           1392        5568.00     24260.02
 1244.02        2963.00           1396        7771.00     33880.11
 1244.05        2963.25           1399        9438.00     41163.27
 1244.08        2963.50           1402       11114.00     48488.98
 1244.11        2963.75           1406       13435.00     58639.25
 1244.14        2964.00           1409       15048.00     65696.93
 1244.17        2964.25           1412       17025.00     74351.36
 1244.20        2964.50           1416       19414.00     84815.37
 1244.23        2964.75           1419       21015.00     91831.54
 1244.27        2965.00           1422       22900.00    100096.10
 1244.30        2965.25           1426       25069.00    109610.90
 1244.33        2965.50           1429       26814.00    117269.70
 1244.36        2965.75           1432       28480.00    124585.10
 1244.39        2966.00           1436       30755.00    134579.80
 1244.42        2966.25           1439       32152.00    140720.10
 1244.45        2966.50           1442       33617.00    147161.80
 1244.48        2966.75           1446       35400.00    155005.10
 1244.52        2967.00           1449       36079.00    157993.00
 1244.55        2967.25           1452       36266.00    158815.90
 1244.58        2967.50           1456       36312.00    159018.40
 1244.61        2967.75           1459       36180.00    158437.40
 1244.64        2968.00           1462       36064.00    157926.90
 1244.67        2968.25           1466       35326.00    154679.50
 1244.70        2968.50           1469       34096.00    149268.50
 1244.73        2968.75           1472       32820.00    143657.00
 1244.76        2969.00           1476       30747.00    134544.60
 1244.79        2969.25           1479       29046.00    127071.10
 1244.82        2969.50           1482       27443.00    120031.30
 1244.85        2969.75           1486       25073.00    109628.50
 1244.89        2970.00           1489       23601.00    103170.60
 1244.92        2970.25           1492       21785.00     95207.03
 1244.95        2970.50           1496       19618.00     85709.19
 1244.98        2970.75           1499       18004.00     78638.65
 1245.01        2971.00           1502       16263.00     71015.13
 1245.04        2971.25           1506       13953.00     60905.43
 1245.07        2971.50           1509       12360.00     53937.26
 1245.10        2971.75           1513       10300.00     44930.62
 1245.13        2972.00           1516        8643.00     37689.50
 1245.17        2972.25           1519        6976.00     30407.85
 1245.20        2972.50           1523        4861.00     21173.87
 1245.23        2972.75           1526        3189.00     13877.62
 1245.26        2973.00           1529        1881.00      8172.01
 1245.29        2973.25           1533         582.00      2507.60
 1245.32        2973.50           1536         352.00      1504.86
 1245.35        2973.75           1539         272.00      1156.10
 1245.38        2974.00           1543         221.00       933.77
 1245.41        2974.25           1546         148.00       615.53
 1245.44        2974.50           1549         105.00       428.08
 1245.47        2974.75           1553          79.00       314.74
 1245.51        2975.00           1556          55.00       210.11
 1245.54        2975.25           1559          52.00       197.04
 1245.57        2975.50           1563          48.00       179.60
 1245.60        2975.75           1566          46.00       170.88
 1245.63        2976.00           1569          47.00       175.24
 1245.66        2976.25           1573          46.00       170.88
 1245.69        2976.50           1576          56.00       214.47
 1245.72        2976.75           1579          52.00       197.04
 1245.75        2977.00           1583          46.00       170.88
 1245.78        2977.25           1586          46.00       170.88
 1245.81        2977.50           1590          46.00       170.88
 1245.85        2977.75           1593          47.00       175.24
 1245.88        2978.00           1596          46.00       170.88
 1245.91        2978.25           1600          44.00       162.16
 1245.94        2978.50           1603          48.00       179.60
 1245.97        2978.75           1606          49.00       183.96
 1246.00        2979.00           1610          44.00       162.16
 1246.03        2979.25           1613          50.00       188.32
 1246.06        2979.50           1616          44.00       162.16
 1246.09        2979.75           1620          45.00       166.52
 1246.13        2980.00           1623          45.00       166.52
 1246.16        2980.25           1626          44.00       162.16
 1246.19        2980.50           1630          41.00       149.09
 1246.22        2980.75           1633          41.00       149.09
 1246.25        2981.00           1637          45.00       166.52
 1246.28        2981.25           1640          42.00       153.44
 1246.31        2981.50           1643          50.00       188.32
 1246.34        2981.75           1647          46.00       170.88
 1246.37        2982.00           1650          49.00       183.96
 1246.40        2982.25           1653          44.00       162.16
 1246.43        2982.50           1657          51.00       192.68
 1246.46        2982.75           1660          46.00       170.88
 1246.50        2983.00           1663          41.00       149.09
 1246.53        2983.25           1667          42.00       153.44
 1246.56        2983.50           1670          45.00       166.52
 1246.59        2983.75           1673          45.00       166.52
 1246.62        2984.00           1677          47.00       175.24
HS scan finished at 20:46:50
end
