************************************************************
  HS Scan of (1) Internal mercury lamp
************************************************************
Integration time is 0.2294 seconds per sample
dh250417Manchester 53.47 2.23 2.750537pr1000
************************************************************
Dead Time -------------------------  3E-08 
Number of Cycles Used -------------  4 
Starting Wavelength (Angstroms) ---  2950 
Final Wavelength (Angstoms) -------  2984 
Wavelength Increment (Angstroms) --  .25 
Filter Wheel #1 Position ---------- (1) Ground quartz diffuser (ND=2.32)
Filter Wheel #2 Position ---------- (1) Neutral Density 0.494



************************************************************
HS scan start time = 02:54:41
Dark Count =  6 


Time (GMT)  Wavelength (Ang)  Step Number  Raw Counts  Counts/Second

  175.05        2950.00           1222          46.00       174.37
  175.12        2950.25           1226          46.00       174.37
  175.15        2950.50           1229          54.00       209.24
  175.18        2950.75           1232          51.00       196.17
  175.21        2951.00           1236          50.00       191.81
  175.24        2951.25           1239          46.00       174.37
  175.27        2951.50           1242          40.00       148.21
  175.30        2951.75           1246          45.00       170.01
  175.33        2952.00           1249          50.00       191.81
  175.36        2952.25           1252          48.00       183.09
  175.40        2952.50           1256          47.00       178.73
  175.43        2952.75           1259          43.00       161.29
  175.46        2953.00           1262          43.00       161.29
  175.49        2953.25           1266          43.00       161.29
  175.52        2953.50           1269          50.00       191.81
  175.55        2953.75           1272          49.00       187.45
  175.58        2954.00           1276          53.00       204.88
  175.61        2954.25           1279          47.00       178.73
  175.64        2954.50           1282          44.00       165.65
  175.67        2954.75           1286          46.00       174.37
  175.70        2955.00           1289          44.00       165.65
  175.73        2955.25           1292          47.00       178.73
  175.76        2955.50           1296          39.00       143.85
  175.80        2955.75           1299          41.00       152.57
  175.83        2956.00           1302          44.00       165.65
  175.86        2956.25           1306          46.00       174.37
  175.89        2956.50           1309          42.00       156.93
  175.92        2956.75           1312          44.00       165.65
  175.95        2957.00           1316          46.00       174.37
  175.98        2957.25           1319          46.00       174.37
  176.01        2957.50           1322          52.00       200.52
  176.04        2957.75           1326          47.00       178.73
  176.07        2958.00           1329          48.00       183.09
  176.10        2958.25           1332          51.00       196.17
  176.13        2958.50           1336          51.00       196.17
  176.16        2958.75           1339          52.00       200.52
  176.20        2959.00           1342          55.00       213.60
  176.23        2959.25           1346          52.00       200.52
  176.26        2959.50           1349          55.00       213.60
  176.29        2959.75           1352          56.00       217.96
  176.32        2960.00           1356          98.00       401.05
  176.35        2960.25           1359         125.00       518.75
  176.38        2960.50           1362         172.00       723.64
  176.41        2960.75           1366         249.00      1059.32
  176.44        2961.00           1369         263.00      1120.35
  176.47        2961.25           1372         308.00      1316.53
  176.51        2961.50           1376         436.00      1874.56
  176.54        2961.75           1379         720.00      3112.76
  176.57        2962.00           1382        1527.00      6631.66
  176.60        2962.25           1386        3464.00     15080.93
  176.63        2962.50           1389        5052.00     22011.04
  176.66        2962.75           1392        6721.00     29297.76
  176.69        2963.00           1396        8967.00     39108.63
  176.72        2963.25           1399       10579.00     46153.66
  176.75        2963.50           1402       12374.00     54001.98
  176.78        2963.75           1406       14672.00     64054.97
  176.81        2964.00           1409       16413.00     71675.31
  176.85        2964.25           1412       18255.00     79741.55
  176.88        2964.50           1416       20399.00     89135.16
  176.91        2964.75           1419       22172.00     96907.31
  176.94        2965.00           1422       23799.00    104042.60
  176.97        2965.25           1426       25832.00    112962.80
  177.00        2965.50           1429       27823.00    121703.40
  177.03        2965.75           1432       29579.00    129416.10
  177.06        2966.00           1436       31970.00    139923.50
  177.09        2966.25           1439       33568.00    146949.80
  177.13        2966.50           1442       34850.00    152588.80
  177.16        2966.75           1446       36024.00    157754.40
  177.19        2967.00           1449       36441.00    159589.60
  177.22        2967.25           1452       36564.00    160131.00
  177.25        2967.50           1456       36358.00    159224.30
  177.28        2967.75           1459       36439.00    159580.80
  177.31        2968.00           1462       35980.00    157560.80
  177.34        2968.25           1466       34774.00    152254.50
  177.37        2968.50           1469       32988.00    144399.30
  177.41        2968.75           1472       31610.00    138341.10
  177.44        2969.00           1476       29274.00    128076.20
  177.47        2969.25           1479       27801.00    121606.70
  177.50        2969.50           1482       26148.00    114349.80
  177.53        2969.75           1486       23836.00    104204.90
  177.56        2970.00           1489       22156.00     96837.15
  177.59        2970.25           1492       20647.00     90222.08
  177.62        2970.50           1496       18596.00     81235.22
  177.65        2970.75           1499       16684.00     72861.79
  177.68        2971.00           1502       14944.00     65245.29
  177.72        2971.25           1506       12845.00     56061.95
  177.75        2971.50           1509       10980.00     47906.65
  177.78        2971.75           1513        8922.00     38912.01
  177.81        2972.00           1516        7322.00     31922.45
  177.84        2972.25           1519        5458.00     23783.31
  177.87        2972.50           1523        3241.00     14107.98
  177.90        2972.75           1526        1825.00      7931.27
  177.93        2973.00           1529         826.00      3574.93
  177.96        2973.25           1533         447.00      1922.52
  177.99        2973.50           1536         333.00      1425.52
  178.02        2973.75           1539         306.00      1307.81
  178.05        2974.00           1543         265.00      1129.07
  178.08        2974.25           1546         194.00       819.55
  178.11        2974.50           1549         141.00       588.50
  178.14        2974.75           1553         107.00       440.28
  178.18        2975.00           1556          72.00       287.71
  178.21        2975.25           1559          63.00       248.48
  178.24        2975.50           1563          52.00       200.52
  178.27        2975.75           1566          48.00       183.09
  178.30        2976.00           1569          55.00       213.60
  178.33        2976.25           1573          47.00       178.73
  178.36        2976.50           1576          46.00       174.37
  178.39        2976.75           1579          47.00       178.73
  178.42        2977.00           1583          41.00       152.57
  178.45        2977.25           1586          41.00       152.57
  178.48        2977.50           1590          55.00       213.60
  178.51        2977.75           1593          56.00       217.96
  178.54        2978.00           1596          54.00       209.24
  178.58        2978.25           1600          49.00       187.45
  178.61        2978.50           1603          51.00       196.17
  178.64        2978.75           1606          42.00       156.93
  178.67        2979.00           1610          59.00       231.04
  178.70        2979.25           1613          45.00       170.01
  178.73        2979.50           1616          49.00       187.45
  178.76        2979.75           1620          48.00       183.09
  178.79        2980.00           1623          46.00       174.37
  178.82        2980.25           1626          45.00       170.01
  178.85        2980.50           1630          42.00       156.93
  178.88        2980.75           1633          49.00       187.45
  178.91        2981.00           1637          47.00       178.73
  178.94        2981.25           1640          42.00       156.93
  178.98        2981.50           1643          47.00       178.73
  179.01        2981.75           1647          44.00       165.65
  179.04        2982.00           1650          42.00       156.93
  179.07        2982.25           1653          50.00       191.81
  179.10        2982.50           1657          46.00       174.37
  179.13        2982.75           1660          40.00       148.21
  179.16        2983.00           1663          40.00       148.21
  179.19        2983.25           1667          45.00       170.01
  179.22        2983.50           1670          44.00       165.65
  179.25        2983.75           1673          45.00       170.01
  179.28        2984.00           1677          45.00       170.01
HS scan finished at 02:59:30
end
************************************************************
  HS Scan of (1) Internal mercury lamp
************************************************************
Integration time is 0.2294 seconds per sample
dh250417Manchester 53.47 2.23 2.750537pr1000
************************************************************
Dead Time -------------------------  3E-08 
Number of Cycles Used -------------  4 
Starting Wavelength (Angstroms) ---  2950 
Final Wavelength (Angstoms) -------  2984 
Wavelength Increment (Angstroms) --  .25 
Filter Wheel #1 Position ---------- (1) Ground quartz diffuser (ND=2.32)
Filter Wheel #2 Position ---------- (1) Neutral Density 0.494



************************************************************
HS scan start time = 20:42:01
Dark Count =  6.6 


Time (GMT)  Wavelength (Ang)  Step Number  Raw Counts  Counts/Second

 1242.39        2950.00           1222          44.00       163.03
 1242.45        2950.25           1226          44.00       163.03
 1242.48        2950.50           1229          45.00       167.39
 1242.51        2950.75           1232          41.00       149.96
 1242.54        2951.00           1236          50.00       189.19
 1242.57        2951.25           1239          50.00       189.19
 1242.61        2951.50           1242          45.00       167.39
 1242.64        2951.75           1246          47.00       176.11
 1242.67        2952.00           1249          46.00       171.75
 1242.70        2952.25           1252          41.00       149.96
 1242.73        2952.50           1256          46.00       171.75
 1242.76        2952.75           1259          51.00       193.55
 1242.79        2953.00           1262          50.00       189.19
 1242.82        2953.25           1266          42.00       154.32
 1242.85        2953.50           1269          48.00       180.47
 1242.88        2953.75           1272          50.00       189.19
 1242.91        2954.00           1276          51.00       193.55
 1242.95        2954.25           1279          45.00       167.39
 1242.98        2954.50           1282          48.00       180.47
 1243.01        2954.75           1286          45.00       167.39
 1243.04        2955.00           1289          42.00       154.32
 1243.07        2955.25           1292          47.00       176.11
 1243.10        2955.50           1296          52.00       197.91
 1243.13        2955.75           1299          47.00       176.11
 1243.16        2956.00           1302          39.00       141.24
 1243.19        2956.25           1306          41.00       149.96
 1243.22        2956.50           1309          45.00       167.39
 1243.25        2956.75           1312          38.00       136.88
 1243.29        2957.00           1316          64.00       250.22
 1243.32        2957.25           1319          42.00       154.32
 1243.35        2957.50           1322          53.00       202.27
 1243.38        2957.75           1326          54.00       206.63
 1243.41        2958.00           1329          46.00       171.75
 1243.44        2958.25           1332          47.00       176.11
 1243.47        2958.50           1336          45.00       167.39
 1243.50        2958.75           1339          45.00       167.39
 1243.53        2959.00           1342          51.00       193.55
 1243.56        2959.25           1346          49.00       184.83
 1243.59        2959.50           1349          56.00       215.35
 1243.62        2959.75           1352          70.00       276.38
 1243.65        2960.00           1356         100.00       407.15
 1243.68        2960.25           1359         137.00       568.45
 1243.71        2960.50           1362         162.00       677.43
 1243.74        2960.75           1366         215.00       908.48
 1243.77        2961.00           1369         263.00      1117.74
 1243.81        2961.25           1372         325.00      1388.03
 1243.84        2961.50           1376         415.00      1780.39
 1243.87        2961.75           1379         630.00      2717.75
 1243.90        2962.00           1382        1248.00      5412.39
 1243.93        2962.25           1386        2971.00     12927.42
 1243.96        2962.50           1389        4538.00     19764.99
 1243.99        2962.75           1392        6088.00     26531.14
 1244.02        2963.00           1396        8378.00     36532.61
 1244.05        2963.25           1399       10005.00     43642.11
 1244.08        2963.50           1402       11763.00     51327.46
 1244.12        2963.75           1406       14127.00     61667.61
 1244.15        2964.00           1409       15758.00     68805.35
 1244.18        2964.25           1412       17494.00     76405.97
 1244.21        2964.50           1416       19834.00     86656.55
 1244.24        2964.75           1419       21615.00     94462.61
 1244.27        2965.00           1422       23206.00    101439.00
 1244.30        2965.25           1426       25286.00    110564.10
 1244.33        2965.50           1429       27210.00    119009.10
 1244.36        2965.75           1432       28879.00    126338.40
 1244.40        2966.00           1436       31065.00    135943.00
 1244.43        2966.25           1439       32811.00    143618.30
 1244.46        2966.50           1442       34114.00    149348.60
 1244.49        2966.75           1446       35786.00    156704.50
 1244.52        2967.00           1449       35894.00    157179.70
 1244.55        2967.25           1452       36074.00    157971.80
 1244.58        2967.50           1456       36141.00    158266.70
 1244.61        2967.75           1459       36026.00    157760.60
 1244.64        2968.00           1462       35970.00    157514.20
 1244.67        2968.25           1466       34828.00    152489.40
 1244.71        2968.50           1469       33503.00    146661.30
 1244.74        2968.75           1472       31798.00    139164.80
 1244.77        2969.00           1476       29705.00    129967.00
 1244.80        2969.25           1479       28062.00    122750.20
 1244.83        2969.50           1482       26461.00    115721.00
 1244.86        2969.75           1486       24132.00    105500.80
 1244.89        2970.00           1489       22529.00     98470.06
 1244.92        2970.25           1492       20889.00     91280.14
 1244.95        2970.50           1496       18809.00     82165.66
 1244.99        2970.75           1499       16987.00     74185.85
 1245.02        2971.00           1502       15359.00     67058.93
 1245.05        2971.25           1506       13307.00     58080.19
 1245.08        2971.50           1509       11698.00     51043.23
 1245.11        2971.75           1513        9288.00     40508.66
 1245.14        2972.00           1516        7538.00     32863.25
 1245.17        2972.25           1519        5988.00     26094.53
 1245.20        2972.50           1523        3866.00     16832.39
 1245.23        2972.75           1526        2410.00     10480.19
 1245.26        2973.00           1529        1203.00      5216.16
 1245.30        2973.25           1533         497.00      2137.89
 1245.33        2973.50           1536         362.00      1549.33
 1245.36        2973.75           1539         309.00      1318.27
 1245.39        2974.00           1543         246.00      1043.62
 1245.42        2974.25           1546         183.00       768.98
 1245.45        2974.50           1549         140.00       581.53
 1245.48        2974.75           1553          95.00       385.36
 1245.51        2975.00           1556          70.00       276.38
 1245.54        2975.25           1559          63.00       245.86
 1245.57        2975.50           1563          53.00       202.27
 1245.60        2975.75           1566          53.00       202.27
 1245.63        2976.00           1569          51.00       193.55
 1245.66        2976.25           1573          47.00       176.11
 1245.70        2976.50           1576          50.00       189.19
 1245.73        2976.75           1579          58.00       224.06
 1245.76        2977.00           1583          46.00       171.75
 1245.79        2977.25           1586          57.00       219.71
 1245.82        2977.50           1590          51.00       193.55
 1245.85        2977.75           1593          47.00       176.11
 1245.88        2978.00           1596          47.00       176.11
 1245.91        2978.25           1600          51.00       193.55
 1245.94        2978.50           1603          42.00       154.32
 1245.97        2978.75           1606          40.00       145.60
 1246.00        2979.00           1610          48.00       180.47
 1246.03        2979.25           1613          46.00       171.75
 1246.07        2979.50           1616          44.00       163.03
 1246.10        2979.75           1620          49.00       184.83
 1246.13        2980.00           1623          49.00       184.83
 1246.16        2980.25           1626          45.00       167.39
 1246.19        2980.50           1630          43.00       158.68
 1246.22        2980.75           1633          40.00       145.60
 1246.25        2981.00           1637          54.00       206.63
 1246.28        2981.25           1640          57.00       219.71
 1246.31        2981.50           1643          44.00       163.03
 1246.34        2981.75           1647          46.00       171.75
 1246.38        2982.00           1650          41.00       149.96
 1246.41        2982.25           1653          46.00       171.75
 1246.44        2982.50           1657          44.00       163.03
 1246.47        2982.75           1660          45.00       167.39
 1246.50        2983.00           1663          40.00       145.60
 1246.53        2983.25           1667          49.00       184.83
 1246.56        2983.50           1670          56.00       215.35
 1246.59        2983.75           1673          48.00       180.47
 1246.62        2984.00           1677          50.00       189.19
HS scan finished at 20:46:50
end
