************************************************************
  HS Scan of (1) Internal mercury lamp
************************************************************
Integration time is 0.2294 seconds per sample
dh010517Manchester 53.47 2.23 2.804185pr1000
************************************************************
Dead Time -------------------------  3E-08 
Number of Cycles Used -------------  4 
Starting Wavelength (Angstroms) ---  2950 
Final Wavelength (Angstoms) -------  2984 
Wavelength Increment (Angstroms) --  .25 
Filter Wheel #1 Position ---------- (1) Ground quartz diffuser (ND=2.32)
Filter Wheel #2 Position ---------- (1) Neutral Density 0.494



************************************************************
HS scan start time = 01:37:09
Dark Count =  5.2 


Time (GMT)  Wavelength (Ang)  Step Number  Raw Counts  Counts/Second

   97.51        2950.00           1222          46.00       177.86
   97.58        2950.25           1226          45.00       173.50
   97.61        2950.50           1229          38.00       142.98
   97.64        2950.75           1232          44.00       169.14
   97.67        2951.00           1236          48.00       186.57
   97.70        2951.25           1239          48.00       186.57
   97.73        2951.50           1242          49.00       190.93
   97.76        2951.75           1246          41.00       156.06
   97.79        2952.00           1249          46.00       177.86
   97.82        2952.25           1252          43.00       164.78
   97.85        2952.50           1256          46.00       177.86
   97.88        2952.75           1259          48.00       186.57
   97.91        2953.00           1262          49.00       190.93
   97.94        2953.25           1266          44.00       169.14
   97.98        2953.50           1269          50.00       195.29
   98.01        2953.75           1272          44.00       169.14
   98.04        2954.00           1276          47.00       182.22
   98.07        2954.25           1279          41.00       156.06
   98.10        2954.50           1282          47.00       182.22
   98.13        2954.75           1286          45.00       173.50
   98.16        2955.00           1289          51.00       199.65
   98.19        2955.25           1292          48.00       186.57
   98.22        2955.50           1296          50.00       195.29
   98.25        2955.75           1299          51.00       199.65
   98.29        2956.00           1302          46.00       177.86
   98.32        2956.25           1306          48.00       186.57
   98.35        2956.50           1309          42.00       160.42
   98.38        2956.75           1312          50.00       195.29
   98.41        2957.00           1316          45.00       173.50
   98.44        2957.25           1319          48.00       186.57
   98.47        2957.50           1322          52.00       204.01
   98.50        2957.75           1326          50.00       195.29
   98.53        2958.00           1329          60.00       238.89
   98.56        2958.25           1332          45.00       173.50
   98.59        2958.50           1336          39.00       147.34
   98.63        2958.75           1339          49.00       190.93
   98.66        2959.00           1342          49.00       190.93
   98.69        2959.25           1346          56.00       221.45
   98.72        2959.50           1349          53.00       208.37
   98.75        2959.75           1352          70.00       282.48
   98.78        2960.00           1356         116.00       483.01
   98.81        2960.25           1359         139.00       583.27
   98.84        2960.50           1362         198.00       840.47
   98.87        2960.75           1366         250.00      1067.17
   98.90        2961.00           1369         293.00      1254.62
   98.93        2961.25           1372         340.00      1459.52
   98.96        2961.50           1376         470.00      2026.28
   99.00        2961.75           1379         861.00      3731.02
   99.03        2962.00           1382        1825.00      7934.76
   99.06        2962.25           1386        3693.00     16083.61
   99.09        2962.50           1389        5257.00     22909.37
   99.12        2962.75           1392        6968.00     30379.90
   99.15        2963.00           1396        9225.00     40239.48
   99.18        2963.25           1399       10792.00     47088.28
   99.21        2963.50           1402       12547.00     54762.08
   99.24        2963.75           1406       15042.00     65677.68
   99.27        2964.00           1409       16680.00     72847.79
   99.31        2964.25           1412       18369.00     80244.38
   99.34        2964.50           1416       20880.00     91246.82
   99.37        2964.75           1419       22574.00     98673.54
   99.40        2965.00           1422       24343.00    106432.60
   99.43        2965.25           1426       26684.00    116706.10
   99.46        2965.50           1429       28279.00    123709.40
   99.49        2965.75           1432       30127.00    131827.20
   99.52        2966.00           1436       32580.00    142608.80
   99.55        2966.25           1439       33909.00    148453.10
   99.58        2966.50           1442       35308.00    154607.40
   99.62        2966.75           1446       36809.00    161212.90
   99.65        2967.00           1449       37009.00    162093.20
   99.68        2967.25           1452       37048.00    162264.90
   99.71        2967.50           1456       37333.00    163519.50
   99.74        2967.75           1459       37122.00    162590.60
   99.77        2968.00           1462       36526.00    159967.30
   99.80        2968.25           1466       35311.00    154620.60
   99.83        2968.50           1469       33812.00    148026.40
   99.86        2968.75           1472       32341.00    141558.10
   99.90        2969.00           1476       30199.00    132143.60
   99.93        2969.25           1479       28399.00    124236.40
   99.96        2969.50           1482       26894.00    117628.00
   99.99        2969.75           1486       24642.00    107744.40
  100.02        2970.00           1489       22995.00    100519.80
  100.05        2970.25           1492       21441.00     93705.96
  100.08        2970.50           1496       18906.00     82596.75
  100.11        2970.75           1499       17137.00     74848.79
  100.14        2971.00           1502       15401.00     67248.88
  100.17        2971.25           1506       13151.00     57403.92
  100.20        2971.50           1509       11450.00     49964.99
  100.24        2971.75           1513        9198.00     40121.50
  100.27        2972.00           1516        7437.00     32428.22
  100.30        2972.25           1519        5924.00     25821.22
  100.33        2972.50           1523        3776.00     16445.78
  100.36        2972.75           1526        2212.00      9622.66
  100.39        2973.00           1529        1083.00      4699.01
  100.42        2973.25           1533         463.00      1995.76
  100.45        2973.50           1536         386.00      1660.07
  100.48        2973.75           1539         292.00      1250.26
  100.51        2974.00           1543         245.00      1045.37
  100.55        2974.25           1546         194.00       823.04
  100.58        2974.50           1549         159.00       670.46
  100.61        2974.75           1553          99.00       408.90
  100.64        2975.00           1556          69.00       278.12
  100.67        2975.25           1559          60.00       238.89
  100.70        2975.50           1563          53.00       208.37
  100.73        2975.75           1566          49.00       190.93
  100.76        2976.00           1569          55.00       217.09
  100.79        2976.25           1573          52.00       204.01
  100.82        2976.50           1576          45.00       173.50
  100.85        2976.75           1579          46.00       177.86
  100.88        2977.00           1583          51.00       199.65
  100.92        2977.25           1586          38.00       142.98
  100.95        2977.50           1590          50.00       195.29
  100.98        2977.75           1593          48.00       186.57
  101.01        2978.00           1596          44.00       169.14
  101.04        2978.25           1600          47.00       182.22
  101.07        2978.50           1603          43.00       164.78
  101.10        2978.75           1606          51.00       199.65
  101.13        2979.00           1610          46.00       177.86
  101.16        2979.25           1613          44.00       169.14
  101.19        2979.50           1616          52.00       204.01
  101.22        2979.75           1620          40.00       151.70
  101.26        2980.00           1623          47.00       182.22
  101.29        2980.25           1626          47.00       182.22
  101.32        2980.50           1630          41.00       156.06
  101.35        2980.75           1633          49.00       190.93
  101.38        2981.00           1637          40.00       151.70
  101.41        2981.25           1640          48.00       186.57
  101.44        2981.50           1643          47.00       182.22
  101.47        2981.75           1647          52.00       204.01
  101.50        2982.00           1650          46.00       177.86
  101.53        2982.25           1653          42.00       160.42
  101.56        2982.50           1657          51.00       199.65
  101.60        2982.75           1660          50.00       195.29
  101.63        2983.00           1663          48.00       186.57
  101.66        2983.25           1667          52.00       204.01
  101.69        2983.50           1670          44.00       169.14
  101.72        2983.75           1673          52.00       204.01
  101.75        2984.00           1677          39.00       147.34
HS scan finished at 01:41:58
end
************************************************************
  HS Scan of (1) Internal mercury lamp
************************************************************
Integration time is 0.2294 seconds per sample
dh010517Manchester 53.47 2.23 2.804185pr1000
************************************************************
Dead Time -------------------------  3E-08 
Number of Cycles Used -------------  4 
Starting Wavelength (Angstroms) ---  2950 
Final Wavelength (Angstoms) -------  2984 
Wavelength Increment (Angstroms) --  .25 
Filter Wheel #1 Position ---------- (1) Ground quartz diffuser (ND=2.32)
Filter Wheel #2 Position ---------- (1) Neutral Density 0.494



************************************************************
HS scan start time = 20:42:01
Dark Count =  8.2 


Time (GMT)  Wavelength (Ang)  Step Number  Raw Counts  Counts/Second

 1242.39        2950.00           1222          45.00       160.42
 1242.45        2950.25           1226          42.00       147.34
 1242.49        2950.50           1229          48.00       173.50
 1242.52        2950.75           1232          45.00       160.42
 1242.55        2951.00           1236          46.00       164.78
 1242.58        2951.25           1239          53.00       195.29
 1242.61        2951.50           1242          48.00       173.50
 1242.64        2951.75           1246          55.00       204.01
 1242.67        2952.00           1249          49.00       177.86
 1242.70        2952.25           1252          47.00       169.14
 1242.73        2952.50           1256          52.00       190.93
 1242.76        2952.75           1259          43.00       151.70
 1242.79        2953.00           1262          58.00       217.09
 1242.82        2953.25           1266          50.00       182.22
 1242.86        2953.50           1269          41.00       142.98
 1242.89        2953.75           1272          56.00       208.37
 1242.92        2954.00           1276          53.00       195.29
 1242.95        2954.25           1279          46.00       164.78
 1242.98        2954.50           1282          41.00       142.98
 1243.01        2954.75           1286          43.00       151.70
 1243.04        2955.00           1289          57.00       212.73
 1243.07        2955.25           1292          43.00       151.70
 1243.10        2955.50           1296          43.00       151.70
 1243.13        2955.75           1299          44.00       156.06
 1243.16        2956.00           1302          52.00       190.93
 1243.20        2956.25           1306          44.00       156.06
 1243.23        2956.50           1309          48.00       173.50
 1243.26        2956.75           1312          52.00       190.93
 1243.29        2957.00           1316          48.00       173.50
 1243.32        2957.25           1319          38.00       129.90
 1243.35        2957.50           1322          43.00       151.70
 1243.38        2957.75           1326          44.00       156.06
 1243.41        2958.00           1329          49.00       177.86
 1243.44        2958.25           1332          48.00       173.50
 1243.47        2958.50           1336          54.00       199.65
 1243.50        2958.75           1339          44.00       156.06
 1243.53        2959.00           1342          49.00       177.86
 1243.56        2959.25           1346          57.00       212.73
 1243.60        2959.50           1349          58.00       217.09
 1243.63        2959.75           1352          71.00       273.76
 1243.66        2960.00           1356         105.00       421.98
 1243.69        2960.25           1359         128.00       522.24
 1243.72        2960.50           1362         186.00       775.08
 1243.75        2960.75           1366         244.00      1027.93
 1243.78        2961.00           1369         266.00      1123.84
 1243.81        2961.25           1372         332.00      1411.57
 1243.84        2961.50           1376         397.00      1694.94
 1243.87        2961.75           1379         520.00      2231.19
 1243.90        2962.00           1382         849.00      3665.62
 1243.94        2962.25           1386        2285.00      9927.98
 1243.97        2962.50           1389        4000.00     17410.14
 1244.00        2962.75           1392        5553.00     24188.43
 1244.03        2963.00           1396        7850.00     34219.07
 1244.06        2963.25           1399        9469.00     41292.62
 1244.09        2963.50           1402       11151.00     48644.61
 1244.12        2963.75           1406       13452.00     58707.49
 1244.15        2964.00           1409       15337.00     66955.63
 1244.18        2964.25           1412       16851.00     73583.35
 1244.21        2964.50           1416       19257.00     84121.37
 1244.24        2964.75           1419       20923.00     91422.16
 1244.28        2965.00           1422       22531.00     98471.83
 1244.31        2965.25           1426       24831.00    108560.50
 1244.34        2965.50           1429       26575.00    116214.40
 1244.37        2965.75           1432       28381.00    124144.20
 1244.40        2966.00           1436       30669.00    134195.70
 1244.43        2966.25           1439       32168.00    140784.30
 1244.46        2966.50           1442       33652.00    147309.60
 1244.49        2966.75           1446       35333.00    154704.10
 1244.52        2967.00           1449       36257.00    158770.10
 1244.56        2967.25           1452       36529.00    159967.30
 1244.59        2967.50           1456       36597.00    160266.60
 1244.62        2967.75           1459       36597.00    160266.60
 1244.65        2968.00           1462       36516.00    159910.00
 1244.68        2968.25           1466       35596.00    155861.40
 1244.71        2968.50           1469       34374.00    150485.20
 1244.74        2968.75           1472       32905.00    144024.60
 1244.77        2969.00           1476       30589.00    133844.10
 1244.80        2969.25           1479       28944.00    126616.90
 1244.83        2969.50           1482       27552.00    120503.70
 1244.86        2969.75           1486       25173.00    110061.20
 1244.90        2970.00           1489       23641.00    103339.90
 1244.93        2970.25           1492       21919.00     95788.39
 1244.96        2970.50           1496       19788.00     86447.99
 1244.99        2970.75           1499       18121.00     79144.99
 1245.02        2971.00           1502       16508.00     72081.61
 1245.05        2971.25           1506       14221.00     62071.89
 1245.08        2971.50           1509       12393.00     54075.45
 1245.11        2971.75           1513       10103.00     44063.44
 1245.14        2972.00           1516        8450.00     36840.17
 1245.18        2972.25           1519        6735.00     29349.28
 1245.21        2972.50           1523        4770.00     20770.57
 1245.24        2972.75           1526        3235.00     14072.20
 1245.27        2973.00           1529        1719.00      7459.39
 1245.30        2973.25           1533         611.00      2627.93
 1245.33        2973.50           1536         371.00      1581.59
 1245.36        2973.75           1539         296.00      1254.62
 1245.39        2974.00           1543         242.00      1019.21
 1245.42        2974.25           1546         178.00       740.21
 1245.45        2974.50           1549         137.00       561.47
 1245.48        2974.75           1553          89.00       352.23
 1245.52        2975.00           1556          65.00       247.60
 1245.55        2975.25           1559          58.00       217.09
 1245.58        2975.50           1563          63.00       238.89
 1245.61        2975.75           1566          48.00       173.50
 1245.64        2976.00           1569          41.00       142.98
 1245.67        2976.25           1573          44.00       156.06
 1245.70        2976.50           1576          47.00       169.14
 1245.73        2976.75           1579          46.00       164.78
 1245.76        2977.00           1583          45.00       160.42
 1245.79        2977.25           1586          42.00       147.34
 1245.82        2977.50           1590          48.00       173.50
 1245.85        2977.75           1593          46.00       164.78
 1245.89        2978.00           1596          43.00       151.70
 1245.92        2978.25           1600          54.00       199.65
 1245.95        2978.50           1603          43.00       151.70
 1245.98        2978.75           1606          47.00       169.14
 1246.01        2979.00           1610          47.00       169.14
 1246.04        2979.25           1613          46.00       164.78
 1246.07        2979.50           1616          51.00       186.57
 1246.10        2979.75           1620          48.00       173.50
 1246.13        2980.00           1623          47.00       169.14
 1246.17        2980.25           1626          48.00       173.50
 1246.20        2980.50           1630          46.00       164.78
 1246.23        2980.75           1633          47.00       169.14
 1246.26        2981.00           1637          43.00       151.70
 1246.29        2981.25           1640          47.00       169.14
 1246.32        2981.50           1643          43.00       151.70
 1246.35        2981.75           1647          43.00       151.70
 1246.38        2982.00           1650          44.00       156.06
 1246.41        2982.25           1653          48.00       173.50
 1246.44        2982.50           1657          43.00       151.70
 1246.47        2982.75           1660          45.00       160.42
 1246.51        2983.00           1663          43.00       151.70
 1246.54        2983.25           1667          40.00       138.62
 1246.57        2983.50           1670          46.00       164.78
 1246.60        2983.75           1673          36.00       121.19
 1246.63        2984.00           1677          39.00       134.26
HS scan finished at 20:46:51
end
