************************************************************
  HS Scan of (1) Internal mercury lamp
************************************************************
Integration time is 0.2294 seconds per sample
dh090517Manchester 53.47 2.23 2.804185pr1000
************************************************************
Dead Time -------------------------  3E-08 
Number of Cycles Used -------------  4 
Starting Wavelength (Angstroms) ---  2950 
Final Wavelength (Angstoms) -------  2984 
Wavelength Increment (Angstroms) --  .25 
Filter Wheel #1 Position ---------- (1) Ground quartz diffuser (ND=2.32)
Filter Wheel #2 Position ---------- (1) Neutral Density 0.494



************************************************************
HS scan start time = 02:52:34
Dark Count =  5.5 


Time (GMT)  Wavelength (Ang)  Step Number  Raw Counts  Counts/Second

  172.94        2950.00           1222          44.00       167.83
  173.01        2950.25           1226          49.00       189.63
  173.04        2950.50           1229          44.00       167.83
  173.07        2950.75           1232          45.00       172.19
  173.10        2951.00           1236          52.00       202.70
  173.13        2951.25           1239          49.00       189.63
  173.16        2951.50           1242          50.00       193.99
  173.19        2951.75           1246          41.00       154.75
  173.22        2952.00           1249          47.00       180.91
  173.25        2952.25           1252          41.00       154.75
  173.28        2952.50           1256          50.00       193.99
  173.32        2952.75           1259          41.00       154.75
  173.35        2953.00           1262          50.00       193.99
  173.38        2953.25           1266          43.00       163.47
  173.41        2953.50           1269          40.00       150.39
  173.44        2953.75           1272          49.00       189.63
  173.47        2954.00           1276          51.00       198.34
  173.50        2954.25           1279          43.00       163.47
  173.53        2954.50           1282          48.00       185.27
  173.56        2954.75           1286          45.00       172.19
  173.59        2955.00           1289          50.00       193.99
  173.62        2955.25           1292          46.00       176.55
  173.65        2955.50           1296          47.00       180.91
  173.68        2955.75           1299          45.00       172.19
  173.72        2956.00           1302          47.00       180.91
  173.75        2956.25           1306          49.00       189.63
  173.78        2956.50           1309          42.00       159.11
  173.81        2956.75           1312          45.00       172.19
  173.84        2957.00           1316          45.00       172.19
  173.87        2957.25           1319          46.00       176.55
  173.90        2957.50           1322          43.00       163.47
  173.93        2957.75           1326          43.00       163.47
  173.96        2958.00           1329          45.00       172.19
  173.99        2958.25           1332          49.00       189.63
  174.02        2958.50           1336          53.00       207.06
  174.06        2958.75           1339          50.00       193.99
  174.09        2959.00           1342          43.00       163.47
  174.12        2959.25           1346          48.00       185.27
  174.15        2959.50           1349          49.00       189.63
  174.18        2959.75           1352          70.00       281.17
  174.21        2960.00           1356         103.00       425.03
  174.24        2960.25           1359         142.00       595.04
  174.27        2960.50           1362         175.00       738.90
  174.30        2960.75           1366         237.00      1009.18
  174.33        2961.00           1369         265.00      1131.25
  174.36        2961.25           1372         333.00      1427.70
  174.40        2961.50           1376         423.00      1820.06
  174.43        2961.75           1379         612.00      2644.06
  174.46        2962.00           1382        1242.00      5391.02
  174.49        2962.25           1386        2854.00     12421.81
  174.52        2962.50           1389        4467.00     19459.92
  174.55        2962.75           1392        6010.00     26195.38
  174.58        2963.00           1396        8337.00     36358.30
  174.61        2963.25           1399       10017.00     43699.37
  174.64        2963.50           1402       12096.00     52788.42
  174.67        2963.75           1406       14201.00     61996.19
  174.71        2964.00           1409       15881.00     69348.57
  174.74        2964.25           1412       17575.00     76765.52
  174.77        2964.50           1416       19865.00     86797.21
  174.80        2964.75           1419       21700.00     94840.08
  174.83        2965.00           1422       23489.00    102685.10
  174.86        2965.25           1426       25656.00    112192.60
  174.89        2965.50           1429       27440.00    120023.80
  174.92        2965.75           1432       29283.00    128117.90
  174.95        2966.00           1436       31506.00    137886.10
  174.98        2966.25           1439       33086.00    144832.40
  175.02        2966.50           1442       34466.00    150901.70
  175.05        2966.75           1446       36245.00    158729.20
  175.08        2967.00           1449       36818.00    161251.20
  175.11        2967.25           1452       36944.00    161805.80
  175.14        2967.50           1456       37053.00    162285.60
  175.17        2967.75           1459       37037.00    162215.10
  175.20        2968.00           1462       36883.00    161537.30
  175.23        2968.25           1466       36008.00    157686.20
  175.26        2968.50           1469       34794.00    152344.60
  175.30        2968.75           1472       32919.00    144098.10
  175.33        2969.00           1476       30889.00    135174.40
  175.36        2969.25           1479       29423.00    128732.90
  175.39        2969.50           1482       27419.00    119931.60
  175.42        2969.75           1486       24892.00    108840.00
  175.45        2970.00           1489       23364.00    102136.80
  175.48        2970.25           1492       21723.00     94940.91
  175.51        2970.50           1496       19704.00     86091.74
  175.54        2970.75           1499       17972.00     78504.21
  175.58        2971.00           1502       16397.00     71607.46
  175.61        2971.25           1506       14224.00     62096.83
  175.64        2971.50           1509       12467.00     54410.89
  175.67        2971.75           1513       10096.00     44044.65
  175.70        2972.00           1516        8428.00     36755.85
  175.73        2972.25           1519        6749.00     29422.21
  175.76        2972.50           1523        4386.00     19106.42
  175.79        2972.75           1526        2846.00     12386.90
  175.82        2973.00           1529        1548.00      6725.42
  175.85        2973.25           1533         563.00      2430.43
  175.89        2973.50           1536         378.00      1623.88
  175.92        2973.75           1539         298.00      1275.11
  175.95        2974.00           1543         268.00      1144.33
  175.98        2974.25           1546         200.00       847.89
  176.01        2974.50           1549         149.00       625.56
  176.04        2974.75           1553          96.00       394.51
  176.07        2975.00           1556          66.00       263.73
  176.10        2975.25           1559          59.00       233.22
  176.13        2975.50           1563          54.00       211.42
  176.16        2975.75           1566          40.00       150.39
  176.20        2976.00           1569          46.00       176.55
  176.23        2976.25           1573          51.00       198.34
  176.26        2976.50           1576          51.00       198.34
  176.29        2976.75           1579          50.00       193.99
  176.32        2977.00           1583          48.00       185.27
  176.35        2977.25           1586          43.00       163.47
  176.38        2977.50           1590          44.00       167.83
  176.41        2977.75           1593          56.00       220.14
  176.44        2978.00           1596          44.00       167.83
  176.47        2978.25           1600          47.00       180.91
  176.50        2978.50           1603          48.00       185.27
  176.53        2978.75           1606          42.00       159.11
  176.57        2979.00           1610          42.00       159.11
  176.60        2979.25           1613          48.00       185.27
  176.63        2979.50           1616          43.00       163.47
  176.66        2979.75           1620          49.00       189.63
  176.69        2980.00           1623          46.00       176.55
  176.72        2980.25           1626          42.00       159.11
  176.75        2980.50           1630          49.00       189.63
  176.78        2980.75           1633          47.00       180.91
  176.81        2981.00           1637          50.00       193.99
  176.84        2981.25           1640          56.00       220.14
  176.87        2981.50           1643          36.00       132.96
  176.90        2981.75           1647          46.00       176.55
  176.93        2982.00           1650          47.00       180.91
  176.96        2982.25           1653          47.00       180.91
  177.00        2982.50           1657          50.00       193.99
  177.03        2982.75           1660          44.00       167.83
  177.06        2983.00           1663          51.00       198.34
  177.09        2983.25           1667          44.00       167.83
  177.12        2983.50           1670          45.00       172.19
  177.15        2983.75           1673          43.00       163.47
  177.18        2984.00           1677          45.00       172.19
HS scan finished at 02:57:24
end
************************************************************
  HS Scan of (1) Internal mercury lamp
************************************************************
Integration time is 0.2294 seconds per sample
dh090517Manchester 53.47 2.23 2.804185pr1000
************************************************************
Dead Time -------------------------  3E-08 
Number of Cycles Used -------------  4 
Starting Wavelength (Angstroms) ---  2950 
Final Wavelength (Angstoms) -------  2984 
Wavelength Increment (Angstroms) --  .25 
Filter Wheel #1 Position ---------- (1) Ground quartz diffuser (ND=2.32)
Filter Wheel #2 Position ---------- (1) Neutral Density 0.494



************************************************************
HS scan start time = 20:42:01
Dark Count =  6.5 


Time (GMT)  Wavelength (Ang)  Step Number  Raw Counts  Counts/Second

 1242.38        2950.00           1222          43.00       159.11
 1242.45        2950.25           1226          47.00       176.55
 1242.48        2950.50           1229          47.00       176.55
 1242.51        2950.75           1232          40.00       146.03
 1242.54        2951.00           1236          40.00       146.03
 1242.57        2951.25           1239          40.00       146.03
 1242.60        2951.50           1242          44.00       163.47
 1242.63        2951.75           1246          45.00       167.83
 1242.66        2952.00           1249          47.00       176.55
 1242.69        2952.25           1252          38.00       137.32
 1242.72        2952.50           1256          46.00       172.19
 1242.75        2952.75           1259          46.00       172.19
 1242.78        2953.00           1262          48.00       180.91
 1242.81        2953.25           1266          50.00       189.63
 1242.84        2953.50           1269          41.00       150.39
 1242.88        2953.75           1272          48.00       180.91
 1242.91        2954.00           1276          41.00       150.39
 1242.94        2954.25           1279          47.00       176.55
 1242.97        2954.50           1282          52.00       198.34
 1243.00        2954.75           1286          50.00       189.63
 1243.03        2955.00           1289          59.00       228.86
 1243.06        2955.25           1292          47.00       176.55
 1243.09        2955.50           1296          49.00       185.27
 1243.12        2955.75           1299          45.00       167.83
 1243.15        2956.00           1302          42.00       154.75
 1243.18        2956.25           1306          49.00       185.27
 1243.21        2956.50           1309          54.00       207.06
 1243.24        2956.75           1312          54.00       207.06
 1243.27        2957.00           1316          51.00       193.99
 1243.31        2957.25           1319          54.00       207.06
 1243.34        2957.50           1322          52.00       198.34
 1243.37        2957.75           1326          49.00       185.27
 1243.40        2958.00           1329          49.00       185.27
 1243.43        2958.25           1332          49.00       185.27
 1243.46        2958.50           1336          47.00       176.55
 1243.49        2958.75           1339          41.00       150.39
 1243.52        2959.00           1342          58.00       224.50
 1243.55        2959.25           1346          53.00       202.70
 1243.58        2959.50           1349          55.00       211.42
 1243.61        2959.75           1352          70.00       276.81
 1243.64        2960.00           1356         104.00       425.03
 1243.67        2960.25           1359         136.00       564.53
 1243.70        2960.50           1362         158.00       660.43
 1243.73        2960.75           1366         233.00       987.39
 1243.77        2961.00           1369         266.00      1131.25
 1243.80        2961.25           1372         315.00      1344.87
 1243.83        2961.50           1376         437.00      1876.74
 1243.86        2961.75           1379         658.00      2840.26
 1243.89        2962.00           1382        1268.00      5500.04
 1243.92        2962.25           1386        3052.00     13281.23
 1243.95        2962.50           1389        4795.00     20887.10
 1243.98        2962.75           1392        6524.00     28435.32
 1244.01        2963.00           1396        8677.00     37839.36
 1244.04        2963.25           1399       10356.00     45176.71
 1244.07        2963.50           1402       12061.00     52630.99
 1244.11        2963.75           1406       14449.00     63076.97
 1244.14        2964.00           1409       16079.00     70210.95
 1244.17        2964.25           1412       17951.00     78407.85
 1244.20        2964.50           1416       20040.00     87559.69
 1244.23        2964.75           1419       21817.00     95348.64
 1244.26        2965.00           1422       23546.00    102930.70
 1244.29        2965.25           1426       25805.00    112842.10
 1244.32        2965.50           1429       27563.00    120559.50
 1244.35        2965.75           1432       29329.00    128315.60
 1244.38        2966.00           1436       31534.00    138004.80
 1244.41        2966.25           1439       33247.00    145536.00
 1244.44        2966.50           1442       34882.00    152727.40
 1244.48        2966.75           1446       36124.00    158192.30
 1244.51        2967.00           1449       36536.00    160005.60
 1244.54        2967.25           1452       36724.00    160833.00
 1244.57        2967.50           1456       36628.00    160410.50
 1244.60        2967.75           1459       36539.00    160018.80
 1244.63        2968.00           1462       36459.00    159666.70
 1244.66        2968.25           1466       35129.00    153814.10
 1244.69        2968.50           1469       33532.00    146789.30
 1244.72        2968.75           1472       32164.00    140774.20
 1244.75        2969.00           1476       29888.00    130771.40
 1244.78        2969.25           1479       28111.00    122965.90
 1244.82        2969.50           1482       26593.00    116300.90
 1244.85        2969.75           1486       24280.00    106150.50
 1244.88        2970.00           1489       22619.00     98865.16
 1244.91        2970.25           1492       20890.00     91284.96
 1244.94        2970.50           1496       18778.00     82030.31
 1244.97        2970.75           1499       17100.00     74681.08
 1245.00        2971.00           1502       15308.00     66836.15
 1245.03        2971.25           1506       13073.00     57057.04
 1245.06        2971.50           1509       11311.00     49351.57
 1245.10        2971.75           1513        9024.00     39355.51
 1245.13        2972.00           1516        7390.00     32217.26
 1245.16        2972.25           1519        5838.00     25440.08
 1245.19        2972.50           1523        3803.00     16557.92
 1245.22        2972.75           1526        2315.00     10066.25
 1245.25        2973.00           1529        1179.00      5111.94
 1245.28        2973.25           1533         495.00      2129.60
 1245.31        2973.50           1536         362.00      1549.77
 1245.34        2973.75           1539         290.00      1235.88
 1245.37        2974.00           1543         244.00      1035.34
 1245.40        2974.25           1546         187.00       786.85
 1245.43        2974.50           1549         140.00       581.96
 1245.46        2974.75           1553          85.00       342.20
 1245.49        2975.00           1556          73.00       289.89
 1245.53        2975.25           1559          56.00       215.78
 1245.56        2975.50           1563          44.00       163.47
 1245.59        2975.75           1566          46.00       172.19
 1245.62        2976.00           1569          51.00       193.99
 1245.65        2976.25           1573          43.00       159.11
 1245.68        2976.50           1576          50.00       189.63
 1245.71        2976.75           1579          42.00       154.75
 1245.74        2977.00           1583          45.00       167.83
 1245.77        2977.25           1586          50.00       189.63
 1245.80        2977.50           1590          40.00       146.03
 1245.83        2977.75           1593          54.00       207.06
 1245.87        2978.00           1596          46.00       172.19
 1245.90        2978.25           1600          50.00       189.63
 1245.93        2978.50           1603          55.00       211.42
 1245.96        2978.75           1606          53.00       202.70
 1245.99        2979.00           1610          40.00       146.03
 1246.02        2979.25           1613          45.00       167.83
 1246.05        2979.50           1616          42.00       154.75
 1246.08        2979.75           1620          39.00       141.67
 1246.11        2980.00           1623          42.00       154.75
 1246.14        2980.25           1626          52.00       198.34
 1246.17        2980.50           1630          40.00       146.03
 1246.21        2980.75           1633          47.00       176.55
 1246.24        2981.00           1637          42.00       154.75
 1246.27        2981.25           1640          43.00       159.11
 1246.30        2981.50           1643          49.00       185.27
 1246.33        2981.75           1647          46.00       172.19
 1246.36        2982.00           1650          46.00       172.19
 1246.39        2982.25           1653          39.00       141.67
 1246.42        2982.50           1657          42.00       154.75
 1246.45        2982.75           1660          44.00       163.47
 1246.48        2983.00           1663          44.00       163.47
 1246.51        2983.25           1667          41.00       150.39
 1246.54        2983.50           1670          44.00       163.47
 1246.57        2983.75           1673          58.00       224.50
 1246.60        2984.00           1677          52.00       198.34
HS scan finished at 20:46:49
end
