************************************************************
  HS Scan of (1) Internal mercury lamp
************************************************************
Integration time is 0.2294 seconds per sample
dh070517Manchester 53.47 2.23 2.804185pr1000
************************************************************
Dead Time -------------------------  3E-08 
Number of Cycles Used -------------  4 
Starting Wavelength (Angstroms) ---  2950 
Final Wavelength (Angstoms) -------  2984 
Wavelength Increment (Angstroms) --  .25 
Filter Wheel #1 Position ---------- (1) Ground quartz diffuser (ND=2.32)
Filter Wheel #2 Position ---------- (1) Neutral Density 0.494



************************************************************
HS scan start time = 01:32:10
Dark Count =  6.5 


Time (GMT)  Wavelength (Ang)  Step Number  Raw Counts  Counts/Second

   92.54        2950.00           1222          48.00       180.91
   92.60        2950.25           1226          43.00       159.11
   92.64        2950.50           1229          46.00       172.19
   92.67        2950.75           1232          40.00       146.03
   92.70        2951.00           1236          44.00       163.47
   92.73        2951.25           1239          39.00       141.67
   92.76        2951.50           1242          46.00       172.19
   92.79        2951.75           1246          47.00       176.55
   92.82        2952.00           1249          49.00       185.27
   92.85        2952.25           1252          51.00       193.99
   92.88        2952.50           1256          55.00       211.42
   92.91        2952.75           1259          43.00       159.11
   92.94        2953.00           1262          49.00       185.27
   92.98        2953.25           1266          50.00       189.63
   93.01        2953.50           1269          53.00       202.70
   93.04        2953.75           1272          38.00       137.32
   93.07        2954.00           1276          44.00       163.47
   93.10        2954.25           1279          44.00       163.47
   93.13        2954.50           1282          47.00       176.55
   93.16        2954.75           1286          49.00       185.27
   93.19        2955.00           1289          44.00       163.47
   93.22        2955.25           1292          46.00       172.19
   93.25        2955.50           1296          43.00       159.11
   93.29        2955.75           1299          47.00       176.55
   93.32        2956.00           1302          52.00       198.34
   93.35        2956.25           1306          46.00       172.19
   93.38        2956.50           1309          51.00       193.99
   93.41        2956.75           1312          49.00       185.27
   93.44        2957.00           1316          47.00       176.55
   93.47        2957.25           1319          48.00       180.91
   93.50        2957.50           1322          39.00       141.67
   93.53        2957.75           1326          42.00       154.75
   93.56        2958.00           1329          54.00       207.06
   93.59        2958.25           1332          47.00       176.55
   93.62        2958.50           1336          45.00       167.83
   93.65        2958.75           1339          45.00       167.83
   93.69        2959.00           1342          51.00       193.99
   93.72        2959.25           1346          43.00       159.11
   93.75        2959.50           1349          56.00       215.78
   93.78        2959.75           1352          68.00       268.09
   93.81        2960.00           1356         102.00       416.31
   93.84        2960.25           1359         134.00       555.81
   93.87        2960.50           1362         166.00       695.31
   93.90        2960.75           1366         244.00      1035.34
   93.93        2961.00           1369         282.00      1201.00
   93.96        2961.25           1372         324.00      1384.10
   93.99        2961.50           1376         416.00      1785.19
   94.02        2961.75           1379         651.00      2809.74
   94.05        2962.00           1382        1295.00      5617.77
   94.08        2962.25           1386        2980.00     12967.12
   94.12        2962.50           1389        4737.00     20633.95
   94.15        2962.75           1392        6367.00     27749.77
   94.18        2963.00           1396        8557.00     37315.08
   94.21        2963.25           1399       10096.00     44040.28
   94.24        2963.50           1402       12005.00     52386.10
   94.27        2963.75           1406       14328.00     62547.51
   94.30        2964.00           1409       15989.00     69816.96
   94.33        2964.25           1412       17936.00     78342.16
   94.36        2964.50           1416       19963.00     87222.27
   94.39        2964.75           1419       21591.00     94357.84
   94.42        2965.00           1422       23424.00    102395.60
   94.46        2965.25           1426       25599.00    111938.00
   94.49        2965.50           1429       27305.00    119426.70
   94.52        2965.75           1432       29100.00    127309.60
   94.55        2966.00           1436       31393.00    137385.00
   94.58        2966.25           1439       32858.00    143825.40
   94.61        2966.50           1442       34485.00    150980.90
   94.64        2966.75           1446       36214.00    158588.40
   94.67        2967.00           1449       36681.00    160643.70
   94.70        2967.25           1452       36691.00    160687.80
   94.74        2967.50           1456       36780.00    161079.50
   94.77        2967.75           1459       36736.00    160885.80
   94.80        2968.00           1462       36525.00    159957.10
   94.83        2968.25           1466       35303.00    154579.60
   94.86        2968.50           1469       33908.00    148442.90
   94.89        2968.75           1472       32321.00    141464.40
   94.92        2969.00           1476       30070.00    131571.10
   94.95        2969.25           1479       28452.00    124463.40
   94.98        2969.50           1482       26690.00    116726.70
   95.02        2969.75           1486       24606.00    107580.70
   95.05        2970.00           1489       22899.00    100093.10
   95.08        2970.25           1492       21230.00     92775.30
   95.11        2970.50           1496       19059.00     83261.34
   95.14        2970.75           1499       17420.00     76082.36
   95.17        2971.00           1502       15605.00     68136.10
   95.20        2971.25           1506       13405.00     58509.33
   95.23        2971.50           1509       11832.00     51629.60
   95.26        2971.75           1513        9436.00     41155.85
   95.29        2972.00           1516        7698.00     33562.55
   95.33        2972.25           1519        6044.00     26339.46
   95.36        2972.50           1523        3829.00     16671.37
   95.39        2972.75           1526        2185.00      9499.22
   95.42        2973.00           1529        1054.00      4566.89
   95.45        2973.25           1533         464.00      1994.45
   95.48        2973.50           1536         344.00      1471.29
   95.51        2973.75           1539         300.00      1279.47
   95.54        2974.00           1543         249.00      1057.14
   95.57        2974.25           1546         183.00       769.42
   95.60        2974.50           1549         139.00       577.60
   95.63        2974.75           1553          85.00       342.20
   95.67        2975.00           1556          92.00       372.72
   95.70        2975.25           1559          53.00       202.70
   95.73        2975.50           1563          46.00       172.19
   95.76        2975.75           1566          48.00       180.91
   95.79        2976.00           1569          46.00       172.19
   95.82        2976.25           1573          48.00       180.91
   95.85        2976.50           1576          40.00       146.03
   95.88        2976.75           1579          42.00       154.75
   95.91        2977.00           1583          46.00       172.19
   95.94        2977.25           1586          44.00       163.47
   95.98        2977.50           1590          42.00       154.75
   96.01        2977.75           1593          43.00       159.11
   96.04        2978.00           1596          46.00       172.19
   96.07        2978.25           1600          44.00       163.47
   96.10        2978.50           1603          54.00       207.06
   96.13        2978.75           1606          56.00       215.78
   96.16        2979.00           1610          46.00       172.19
   96.19        2979.25           1613          46.00       172.19
   96.22        2979.50           1616          39.00       141.67
   96.25        2979.75           1620          36.00       128.60
   96.28        2980.00           1623          44.00       163.47
   96.31        2980.25           1626          44.00       163.47
   96.34        2980.50           1630          43.00       159.11
   96.37        2980.75           1633          48.00       180.91
   96.41        2981.00           1637          53.00       202.70
   96.44        2981.25           1640          38.00       137.32
   96.47        2981.50           1643          44.00       163.47
   96.50        2981.75           1647          50.00       189.63
   96.53        2982.00           1650          39.00       141.67
   96.56        2982.25           1653          49.00       185.27
   96.59        2982.50           1657          46.00       172.19
   96.62        2982.75           1660          45.00       167.83
   96.65        2983.00           1663          45.00       167.83
   96.68        2983.25           1667          41.00       150.39
   96.71        2983.50           1670          42.00       154.75
   96.74        2983.75           1673          39.00       141.67
   96.78        2984.00           1677          44.00       163.47
HS scan finished at 01:37:00
end
************************************************************
  HS Scan of (1) Internal mercury lamp
************************************************************
Integration time is 0.2294 seconds per sample
dh070517Manchester 53.47 2.23 2.804185pr1000
************************************************************
Dead Time -------------------------  3E-08 
Number of Cycles Used -------------  4 
Starting Wavelength (Angstroms) ---  2950 
Final Wavelength (Angstoms) -------  2984 
Wavelength Increment (Angstroms) --  .25 
Filter Wheel #1 Position ---------- (1) Ground quartz diffuser (ND=2.32)
Filter Wheel #2 Position ---------- (1) Neutral Density 0.494



************************************************************
HS scan start time = 20:41:57
Dark Count =  7.4 


Time (GMT)  Wavelength (Ang)  Step Number  Raw Counts  Counts/Second

 1242.33        2950.00           1222          40.00       142.11
 1242.39        2950.25           1226          42.00       150.83
 1242.42        2950.50           1229          48.00       176.98
 1242.45        2950.75           1232          40.00       142.11
 1242.48        2951.00           1236          49.00       181.34
 1242.52        2951.25           1239          49.00       181.34
 1242.55        2951.50           1242          47.00       172.63
 1242.58        2951.75           1246          46.00       168.27
 1242.61        2952.00           1249          42.00       150.83
 1242.64        2952.25           1252          45.00       163.91
 1242.67        2952.50           1256          46.00       168.27
 1242.70        2952.75           1259          43.00       155.19
 1242.73        2953.00           1262          39.00       137.75
 1242.76        2953.25           1266          49.00       181.34
 1242.79        2953.50           1269          46.00       168.27
 1242.82        2953.75           1272          42.00       150.83
 1242.85        2954.00           1276          42.00       150.83
 1242.88        2954.25           1279          40.00       142.11
 1242.91        2954.50           1282          51.00       190.06
 1242.94        2954.75           1286          42.00       150.83
 1242.98        2955.00           1289          46.00       168.27
 1243.01        2955.25           1292          48.00       176.98
 1243.04        2955.50           1296          44.00       159.55
 1243.07        2955.75           1299          43.00       155.19
 1243.10        2956.00           1302          46.00       168.27
 1243.13        2956.25           1306          45.00       163.91
 1243.16        2956.50           1309          48.00       176.98
 1243.19        2956.75           1312          40.00       142.11
 1243.22        2957.00           1316          53.00       198.78
 1243.25        2957.25           1319          52.00       194.42
 1243.28        2957.50           1322          50.00       185.70
 1243.31        2957.75           1326          41.00       146.47
 1243.34        2958.00           1329          52.00       194.42
 1243.37        2958.25           1332          43.00       155.19
 1243.40        2958.50           1336          50.00       185.70
 1243.44        2958.75           1339          52.00       194.42
 1243.47        2959.00           1342          50.00       185.70
 1243.50        2959.25           1346          47.00       172.63
 1243.53        2959.50           1349          57.00       216.22
 1243.56        2959.75           1352          60.00       229.30
 1243.59        2960.00           1356          88.00       351.36
 1243.62        2960.25           1359         123.00       503.93
 1243.65        2960.50           1362         155.00       643.43
 1243.68        2960.75           1366         212.00       891.92
 1243.71        2961.00           1369         255.00      1079.37
 1243.74        2961.25           1372         315.00      1340.94
 1243.77        2961.50           1376         403.00      1724.59
 1243.80        2961.75           1379         593.00      2552.94
 1243.83        2962.00           1382        1199.00      5195.23
 1243.87        2962.25           1386        2977.00     12950.11
 1243.90        2962.50           1389        4715.00     20534.01
 1243.93        2962.75           1392        6278.00     27357.23
 1243.96        2963.00           1396        8524.00     37166.96
 1243.99        2963.25           1399       10253.00     44722.56
 1244.02        2963.50           1402       11735.00     51201.52
 1244.05        2963.75           1406       13969.00     60972.81
 1244.08        2964.00           1409       15919.00     69506.60
 1244.11        2964.25           1412       17505.00     76450.65
 1244.14        2964.50           1416       19987.00     87323.49
 1244.17        2964.75           1419       21580.00     94305.66
 1244.20        2965.00           1422       23209.00    101448.70
 1244.24        2965.25           1426       25494.00    111473.30
 1244.27        2965.50           1429       27367.00    119695.00
 1244.30        2965.75           1432       29172.00    127622.00
 1244.33        2966.00           1436       31399.00    137407.50
 1244.36        2966.25           1439       32874.00    143891.90
 1244.39        2966.50           1442       34311.00    150211.60
 1244.42        2966.75           1446       35838.00    156929.80
 1244.45        2967.00           1449       36560.00    160107.20
 1244.48        2967.25           1452       36645.00    160481.40
 1244.52        2967.50           1456       36576.00    160177.60
 1244.55        2967.75           1459       36542.00    160028.00
 1244.58        2968.00           1462       36346.00    159165.40
 1244.61        2968.25           1466       35234.00    154272.10
 1244.64        2968.50           1469       33921.00    148496.20
 1244.67        2968.75           1472       32292.00    141333.00
 1244.70        2969.00           1476       30148.00    131909.80
 1244.73        2969.25           1479       28323.00    123892.90
 1244.76        2969.50           1482       26819.00    117289.10
 1244.79        2969.75           1486       24541.00    107291.60
 1244.82        2970.00           1489       22940.00    100268.90
 1244.85        2970.25           1492       21320.00     93165.88
 1244.88        2970.50           1496       19270.00     84181.81
 1244.92        2970.75           1499       17378.00     75894.49
 1244.95        2971.00           1502       15733.00     68692.41
 1244.98        2971.25           1506       13531.00     59056.58
 1245.01        2971.50           1509       11742.00     51232.13
 1245.04        2971.75           1513        9449.00     41208.72
 1245.07        2972.00           1516        7813.00     34060.94
 1245.10        2972.25           1519        6047.00     26348.63
 1245.13        2972.50           1523        3893.00     16946.71
 1245.16        2972.75           1526        2479.00     10777.68
 1245.19        2973.00           1529        1175.00      5090.58
 1245.22        2973.25           1533         475.00      2038.49
 1245.25        2973.50           1536         349.00      1489.17
 1245.28        2973.75           1539         292.00      1240.67
 1245.32        2974.00           1543         249.00      1053.22
 1245.35        2974.25           1546         175.00       730.62
 1245.38        2974.50           1549         142.00       586.76
 1245.41        2974.75           1553          88.00       351.36
 1245.44        2975.00           1556          65.00       251.09
 1245.47        2975.25           1559          55.00       207.50
 1245.50        2975.50           1563          44.00       159.55
 1245.53        2975.75           1566          46.00       168.27
 1245.56        2976.00           1569          61.00       233.65
 1245.59        2976.25           1573          53.00       198.78
 1245.62        2976.50           1576          51.00       190.06
 1245.65        2976.75           1579          40.00       142.11
 1245.68        2977.00           1583          50.00       185.70
 1245.71        2977.25           1586          50.00       185.70
 1245.74        2977.50           1590          51.00       190.06
 1245.77        2977.75           1593          52.00       194.42
 1245.81        2978.00           1596          46.00       168.27
 1245.84        2978.25           1600          54.00       203.14
 1245.87        2978.50           1603          50.00       185.70
 1245.90        2978.75           1606          48.00       176.98
 1245.93        2979.00           1610          45.00       163.91
 1245.96        2979.25           1613          46.00       168.27
 1245.99        2979.50           1616          46.00       168.27
 1246.02        2979.75           1620          53.00       198.78
 1246.05        2980.00           1623          46.00       168.27
 1246.08        2980.25           1626          44.00       159.55
 1246.11        2980.50           1630          47.00       172.63
 1246.14        2980.75           1633          45.00       163.91
 1246.17        2981.00           1637          45.00       163.91
 1246.20        2981.25           1640          47.00       172.63
 1246.23        2981.50           1643          49.00       181.34
 1246.26        2981.75           1647          37.00       129.03
 1246.30        2982.00           1650          47.00       172.63
 1246.33        2982.25           1653          41.00       146.47
 1246.36        2982.50           1657          48.00       176.98
 1246.39        2982.75           1660          44.00       159.55
 1246.42        2983.00           1663          40.00       142.11
 1246.45        2983.25           1667          45.00       163.91
 1246.48        2983.50           1670          45.00       163.91
 1246.51        2983.75           1673          45.00       163.91
 1246.54        2984.00           1677          41.00       146.47
HS scan finished at 20:46:46
end
