************************************************************
  HS Scan of (1) Internal mercury lamp
************************************************************
Integration time is 0.2294 seconds per sample
dh050517Manchester 53.47 2.23 2.750537pr1000
************************************************************
Dead Time -------------------------  3E-08 
Number of Cycles Used -------------  4 
Starting Wavelength (Angstroms) ---  2950 
Final Wavelength (Angstoms) -------  2984 
Wavelength Increment (Angstroms) --  .25 
Filter Wheel #1 Position ---------- (1) Ground quartz diffuser (ND=2.32)
Filter Wheel #2 Position ---------- (1) Neutral Density 0.494



************************************************************
HS scan start time = 01:20:59
Dark Count =  8.7 


Time (GMT)  Wavelength (Ang)  Step Number  Raw Counts  Counts/Second

   81.35        2950.00           1222          44.00       153.88
   81.42        2950.25           1226          47.00       166.96
   81.45        2950.50           1229          43.00       149.52
   81.48        2950.75           1232          48.00       171.32
   81.51        2951.00           1236          48.00       171.32
   81.54        2951.25           1239          48.00       171.32
   81.57        2951.50           1242          41.00       140.80
   81.60        2951.75           1246          49.00       175.68
   81.63        2952.00           1249          48.00       171.32
   81.67        2952.25           1252          51.00       184.40
   81.70        2952.50           1256          49.00       175.68
   81.73        2952.75           1259          50.00       180.04
   81.76        2953.00           1262          47.00       166.96
   81.79        2953.25           1266          44.00       153.88
   81.82        2953.50           1269          48.00       171.32
   81.85        2953.75           1272          41.00       140.80
   81.88        2954.00           1276          38.00       127.72
   81.91        2954.25           1279          40.00       136.44
   81.95        2954.50           1282          47.00       166.96
   81.98        2954.75           1286          49.00       175.68
   82.01        2955.00           1289          43.00       149.52
   82.04        2955.25           1292          51.00       184.40
   82.07        2955.50           1296          46.00       162.60
   82.10        2955.75           1299          44.00       153.88
   82.13        2956.00           1302          42.00       145.16
   82.16        2956.25           1306          44.00       153.88
   82.19        2956.50           1309          43.00       149.52
   82.22        2956.75           1312          48.00       171.32
   82.26        2957.00           1316          53.00       193.11
   82.29        2957.25           1319          52.00       188.75
   82.32        2957.50           1322          50.00       180.04
   82.35        2957.75           1326          43.00       149.52
   82.38        2958.00           1329          48.00       171.32
   82.41        2958.25           1332          46.00       162.60
   82.44        2958.50           1336          52.00       188.75
   82.47        2958.75           1339          45.00       158.24
   82.50        2959.00           1342          41.00       140.80
   82.53        2959.25           1346          48.00       171.32
   82.56        2959.50           1349          57.00       210.55
   82.59        2959.75           1352          66.00       249.78
   82.62        2960.00           1356         107.00       428.51
   82.66        2960.25           1359         124.00       502.62
   82.69        2960.50           1362         173.00       716.23
   82.72        2960.75           1366         247.00      1038.83
   82.75        2961.00           1369         289.00      1221.93
   82.78        2961.25           1372         322.00      1365.79
   82.81        2961.50           1376         432.00      1845.35
   82.84        2961.75           1379         784.00      3380.03
   82.87        2962.00           1382        1675.00      7265.32
   82.90        2962.25           1386        3623.00     15762.90
   82.93        2962.50           1389        5345.00     23278.24
   82.97        2962.75           1392        6932.00     30207.40
   83.00        2963.00           1396        9078.00     39581.85
   83.03        2963.25           1399       10868.00     47405.21
   83.06        2963.50           1402       12522.00     54637.44
   83.09        2963.75           1406       14816.00     64673.31
   83.12        2964.00           1409       16577.00     72381.51
   83.15        2964.25           1412       18296.00     79909.31
   83.18        2964.50           1416       20513.00     89622.96
   83.21        2964.75           1419       22384.00     97825.04
   83.25        2965.00           1422       24007.00    104943.20
   83.28        2965.25           1426       26325.00    115114.80
   83.31        2965.50           1429       28041.00    122648.80
   83.34        2965.75           1432       29720.00    130023.60
   83.37        2966.00           1436       31971.00    139916.10
   83.40        2966.25           1439       33660.00    147342.60
   83.43        2966.50           1442       35069.00    153540.40
   83.46        2966.75           1446       36309.00    158996.80
   83.49        2967.00           1449       36504.00    159855.00
   83.52        2967.25           1452       36578.00    160180.70
   83.56        2967.50           1456       36694.00    160691.30
   83.59        2967.75           1459       36612.00    160330.40
   83.62        2968.00           1462       36087.00    158019.80
   83.65        2968.25           1466       34684.00    151846.70
   83.68        2968.50           1469       33039.00    144611.60
   83.71        2968.75           1472       31436.00    137564.40
   83.74        2969.00           1476       29208.00    127774.40
   83.77        2969.25           1479       27467.00    120128.30
   83.80        2969.50           1482       25954.00    113486.40
   83.84        2969.75           1486       23695.00    103574.60
   83.87        2970.00           1489       21841.00     95444.22
   83.90        2970.25           1492       20297.00     88676.31
   83.93        2970.50           1496       18069.00     78915.03
   83.96        2970.75           1499       16468.00     71904.29
   83.99        2971.00           1502       14733.00     64310.10
   84.02        2971.25           1506       12249.00     53443.51
   84.05        2971.50           1509       10465.00     45643.54
   84.08        2971.75           1513        8306.00     36208.88
   84.12        2972.00           1516        6721.00     29285.96
   84.15        2972.25           1519        5144.00     22400.84
   84.18        2972.50           1523        3034.00     13193.10
   84.21        2972.75           1526        1729.00      7500.82
   84.24        2973.00           1529         853.00      3680.88
   84.27        2973.25           1533         446.00      1906.39
   84.30        2973.50           1536         347.00      1474.78
   84.33        2973.75           1539         305.00      1291.68
   84.37        2974.00           1543         243.00      1021.39
   84.40        2974.25           1546         181.00       751.11
   84.43        2974.50           1549         131.00       533.14
   84.46        2974.75           1553          90.00       354.41
   84.49        2975.00           1556          72.00       275.94
   84.52        2975.25           1559          65.00       245.42
   84.55        2975.50           1563          53.00       193.11
   84.58        2975.75           1566          49.00       175.68
   84.61        2976.00           1569          49.00       175.68
   84.64        2976.25           1573          49.00       175.68
   84.67        2976.50           1576          48.00       171.32
   84.70        2976.75           1579          46.00       162.60
   84.74        2977.00           1583          43.00       149.52
   84.77        2977.25           1586          48.00       171.32
   84.80        2977.50           1590          58.00       214.91
   84.83        2977.75           1593          45.00       158.24
   84.86        2978.00           1596          42.00       145.16
   84.89        2978.25           1600          45.00       158.24
   84.92        2978.50           1603          42.00       145.16
   84.95        2978.75           1606          43.00       149.52
   84.98        2979.00           1610          53.00       193.11
   85.01        2979.25           1613          50.00       180.04
   85.04        2979.50           1616          53.00       193.11
   85.07        2979.75           1620          43.00       149.52
   85.11        2980.00           1623          47.00       166.96
   85.14        2980.25           1626          43.00       149.52
   85.17        2980.50           1630          37.00       123.37
   85.20        2980.75           1633          43.00       149.52
   85.23        2981.00           1637          47.00       166.96
   85.26        2981.25           1640          46.00       162.60
   85.29        2981.50           1643          45.00       158.24
   85.32        2981.75           1647          48.00       171.32
   85.35        2982.00           1650          45.00       158.24
   85.38        2982.25           1653          50.00       180.04
   85.41        2982.50           1657          46.00       162.60
   85.44        2982.75           1660          53.00       193.11
   85.47        2983.00           1663          45.00       158.24
   85.51        2983.25           1667          45.00       158.24
   85.54        2983.50           1670          42.00       145.16
   85.57        2983.75           1673          48.00       171.32
   85.60        2984.00           1677          45.00       158.24
HS scan finished at 01:25:49
end
************************************************************
  HS Scan of (1) Internal mercury lamp
************************************************************
Integration time is 0.2294 seconds per sample
dh050517Manchester 53.47 2.23 2.804185pr1000
************************************************************
Dead Time -------------------------  3E-08 
Number of Cycles Used -------------  4 
Starting Wavelength (Angstroms) ---  2950 
Final Wavelength (Angstoms) -------  2984 
Wavelength Increment (Angstroms) --  .25 
Filter Wheel #1 Position ---------- (1) Ground quartz diffuser (ND=2.32)
Filter Wheel #2 Position ---------- (1) Neutral Density 0.494



************************************************************
HS scan start time = 20:42:00
Dark Count =  5.5 


Time (GMT)  Wavelength (Ang)  Step Number  Raw Counts  Counts/Second

 1242.36        2950.00           1222          40.00       150.39
 1242.43        2950.25           1226          48.00       185.27
 1242.46        2950.50           1229          47.00       180.91
 1242.49        2950.75           1232          41.00       154.75
 1242.52        2951.00           1236          52.00       202.70
 1242.55        2951.25           1239          53.00       207.06
 1242.58        2951.50           1242          46.00       176.55
 1242.62        2951.75           1246          46.00       176.55
 1242.65        2952.00           1249          45.00       172.19
 1242.68        2952.25           1252          44.00       167.83
 1242.71        2952.50           1256          46.00       176.55
 1242.74        2952.75           1259          41.00       154.75
 1242.77        2953.00           1262          45.00       172.19
 1242.80        2953.25           1266          45.00       172.19
 1242.83        2953.50           1269          52.00       202.70
 1242.86        2953.75           1272          48.00       185.27
 1242.89        2954.00           1276          50.00       193.99
 1242.92        2954.25           1279          48.00       185.27
 1242.95        2954.50           1282          48.00       185.27
 1242.98        2954.75           1286          43.00       163.47
 1243.01        2955.00           1289          49.00       189.63
 1243.04        2955.25           1292          42.00       159.11
 1243.07        2955.50           1296          47.00       180.91
 1243.10        2955.75           1299          52.00       202.70
 1243.13        2956.00           1302          50.00       193.99
 1243.16        2956.25           1306          44.00       167.83
 1243.20        2956.50           1309          46.00       176.55
 1243.23        2956.75           1312          40.00       150.39
 1243.26        2957.00           1316          48.00       185.27
 1243.29        2957.25           1319          46.00       176.55
 1243.32        2957.50           1322          44.00       167.83
 1243.35        2957.75           1326          51.00       198.34
 1243.38        2958.00           1329          54.00       211.42
 1243.41        2958.25           1332          46.00       176.55
 1243.44        2958.50           1336          45.00       172.19
 1243.47        2958.75           1339          48.00       185.27
 1243.50        2959.00           1342          49.00       189.63
 1243.53        2959.25           1346          55.00       215.78
 1243.56        2959.50           1349          61.00       241.94
 1243.59        2959.75           1352          77.00       311.69
 1243.62        2960.00           1356         101.00       416.31
 1243.66        2960.25           1359         136.00       568.89
 1243.69        2960.50           1362         178.00       751.98
 1243.72        2960.75           1366         236.00      1004.83
 1243.75        2961.00           1369         297.00      1270.75
 1243.78        2961.25           1372         343.00      1471.29
 1243.81        2961.50           1376         404.00      1737.23
 1243.84        2961.75           1379         610.00      2635.34
 1243.87        2962.00           1382        1158.00      5024.73
 1243.90        2962.25           1386        2986.00     12997.66
 1243.93        2962.50           1389        4614.00     20101.48
 1243.96        2962.75           1392        6185.00     26959.46
 1243.99        2963.00           1396        8463.00     36908.77
 1244.02        2963.25           1399       10050.00     43843.60
 1244.05        2963.50           1402       11692.00     51021.81
 1244.08        2963.75           1406       14004.00     61134.26
 1244.12        2964.00           1409       15649.00     68333.06
 1244.15        2964.25           1412       17359.00     75819.60
 1244.18        2964.50           1416       19637.00     85798.16
 1244.21        2964.75           1419       21268.00     92946.25
 1244.24        2965.00           1422       23129.00    101106.10
 1244.27        2965.25           1426       25700.00    112385.70
 1244.30        2965.50           1429       27127.00    118649.60
 1244.33        2965.75           1432       28824.00    126101.70
 1244.36        2966.00           1436       31152.00    136330.20
 1244.39        2966.25           1439       32553.00    142488.80
 1244.42        2966.50           1442       34242.00    149916.40
 1244.45        2966.75           1446       35662.00    156163.70
 1244.48        2967.00           1449       36312.00    159024.10
 1244.52        2967.25           1452       36535.00    160005.60
 1244.55        2967.50           1456       36818.00    161251.20
 1244.58        2967.75           1459       36763.00    161009.10
 1244.61        2968.00           1462       36491.00    159811.90
 1244.64        2968.25           1466       35284.00    154500.40
 1244.67        2968.50           1469       34318.00    150250.70
 1244.70        2968.75           1472       32504.00    142273.40
 1244.73        2969.00           1476       30332.00    132726.70
 1244.76        2969.25           1479       28790.00    125952.40
 1244.79        2969.50           1482       27155.00    118772.50
 1244.82        2969.75           1486       24668.00    107857.20
 1244.85        2970.00           1489       23201.00    101421.90
 1244.88        2970.25           1492       21579.00     94309.60
 1244.92        2970.50           1496       19416.00     84829.81
 1244.95        2970.75           1499       17719.00     77396.16
 1244.98        2971.00           1502       16094.00     70280.99
 1245.01        2971.25           1506       13609.00     59406.13
 1245.04        2971.50           1509       11892.00     51896.34
 1245.07        2971.75           1513        9650.00     42095.41
 1245.10        2972.00           1516        7951.00     34672.06
 1245.13        2972.25           1519        6402.00     27906.96
 1245.16        2972.50           1523        4234.00     18443.07
 1245.19        2972.75           1526        2683.00     11675.84
 1245.22        2973.00           1529        1369.00      5944.83
 1245.26        2973.25           1533         501.00      2160.12
 1245.29        2973.50           1536         351.00      1506.17
 1245.32        2973.75           1539         289.00      1235.88
 1245.35        2974.00           1543         241.00      1026.62
 1245.38        2974.25           1546         177.00       747.62
 1245.41        2974.50           1549         125.00       520.93
 1245.44        2974.75           1553          91.00       372.72
 1245.47        2975.00           1556          59.00       233.22
 1245.50        2975.25           1559          64.00       255.02
 1245.53        2975.50           1563          56.00       220.14
 1245.56        2975.75           1566          49.00       189.63
 1245.59        2976.00           1569          50.00       193.99
 1245.62        2976.25           1573          47.00       180.91
 1245.65        2976.50           1576          52.00       202.70
 1245.68        2976.75           1579          41.00       154.75
 1245.72        2977.00           1583          50.00       193.99
 1245.75        2977.25           1586          46.00       176.55
 1245.78        2977.50           1590          48.00       185.27
 1245.81        2977.75           1593          44.00       167.83
 1245.84        2978.00           1596          45.00       172.19
 1245.87        2978.25           1600          51.00       198.34
 1245.90        2978.50           1603          44.00       167.83
 1245.93        2978.75           1606          47.00       180.91
 1245.96        2979.00           1610          41.00       154.75
 1245.99        2979.25           1613          44.00       167.83
 1246.02        2979.50           1616          43.00       163.47
 1246.05        2979.75           1620          44.00       167.83
 1246.08        2980.00           1623          51.00       198.34
 1246.11        2980.25           1626          47.00       180.91
 1246.14        2980.50           1630          47.00       180.91
 1246.17        2980.75           1633          47.00       180.91
 1246.21        2981.00           1637          45.00       172.19
 1246.24        2981.25           1640          38.00       141.67
 1246.27        2981.50           1643          46.00       176.55
 1246.30        2981.75           1647          53.00       207.06
 1246.33        2982.00           1650          44.00       167.83
 1246.36        2982.25           1653          53.00       207.06
 1246.39        2982.50           1657          46.00       176.55
 1246.42        2982.75           1660          49.00       189.63
 1246.45        2983.00           1663          46.00       176.55
 1246.48        2983.25           1667          47.00       180.91
 1246.51        2983.50           1670          37.00       137.32
 1246.54        2983.75           1673          38.00       141.67
 1246.57        2984.00           1677          44.00       167.83
HS scan finished at 20:46:47
end
