************************************************************
  HS Scan of (1) Internal mercury lamp
************************************************************
Integration time is 0.2294 seconds per sample
dh080517Manchester 53.47 2.23 2.750537pr1000
************************************************************
Dead Time -------------------------  3E-08 
Number of Cycles Used -------------  4 
Starting Wavelength (Angstroms) ---  2950 
Final Wavelength (Angstoms) -------  2984 
Wavelength Increment (Angstroms) --  .25 
Filter Wheel #1 Position ---------- (1) Ground quartz diffuser (ND=2.32)
Filter Wheel #2 Position ---------- (1) Neutral Density 0.494



************************************************************
HS scan start time = 01:34:01
Dark Count =  7.8 


Time (GMT)  Wavelength (Ang)  Step Number  Raw Counts  Counts/Second

   94.39        2950.00           1222          42.00       149.09
   94.46        2950.25           1226          43.00       153.44
   94.49        2950.50           1229          46.00       166.52
   94.52        2950.75           1232          51.00       188.32
   94.55        2951.00           1236          46.00       166.52
   94.58        2951.25           1239          45.00       162.16
   94.61        2951.50           1242          45.00       162.16
   94.64        2951.75           1246          42.00       149.09
   94.67        2952.00           1249          43.00       153.44
   94.70        2952.25           1252          49.00       179.60
   94.73        2952.50           1256          39.00       136.01
   94.76        2952.75           1259          43.00       153.44
   94.79        2953.00           1262          42.00       149.09
   94.83        2953.25           1266          50.00       183.96
   94.86        2953.50           1269          45.00       162.16
   94.89        2953.75           1272          51.00       188.32
   94.92        2954.00           1276          54.00       201.40
   94.95        2954.25           1279          56.00       210.11
   94.98        2954.50           1282          45.00       162.16
   95.01        2954.75           1286          43.00       153.44
   95.04        2955.00           1289          40.00       140.37
   95.07        2955.25           1292          49.00       179.60
   95.10        2955.50           1296          46.00       166.52
   95.13        2955.75           1299          43.00       153.44
   95.16        2956.00           1302          53.00       197.04
   95.20        2956.25           1306          42.00       149.09
   95.23        2956.50           1309          43.00       153.44
   95.26        2956.75           1312          44.00       157.80
   95.29        2957.00           1316          42.00       149.09
   95.32        2957.25           1319          46.00       166.52
   95.35        2957.50           1322          50.00       183.96
   95.38        2957.75           1326          43.00       153.44
   95.41        2958.00           1329          52.00       192.68
   95.44        2958.25           1332          42.00       149.09
   95.47        2958.50           1336          51.00       188.32
   95.50        2958.75           1339          39.00       136.01
   95.53        2959.00           1342          53.00       197.04
   95.56        2959.25           1346          50.00       183.96
   95.60        2959.50           1349          53.00       197.04
   95.63        2959.75           1352          72.00       279.86
   95.66        2960.00           1356          98.00       393.20
   95.69        2960.25           1359         126.00       515.27
   95.72        2960.50           1362         167.00       694.00
   95.75        2960.75           1366         222.00       933.77
   95.78        2961.00           1369         277.00      1173.54
   95.81        2961.25           1372         305.00      1295.60
   95.84        2961.50           1376         404.00      1727.20
   95.87        2961.75           1379         564.00      2424.76
   95.90        2962.00           1382        1141.00      4940.57
   95.93        2962.25           1386        2898.00     12603.72
   95.97        2962.50           1389        4534.00     19742.29
   96.00        2962.75           1392        6156.00     26822.80
   96.03        2963.00           1396        8269.00     36051.18
   96.06        2963.25           1399        9804.00     42758.39
   96.09        2963.50           1402       11589.00     50561.39
   96.12        2963.75           1406       13791.00     60192.30
   96.15        2964.00           1409       15466.00     67522.00
   96.18        2964.25           1412       17400.00     75989.07
   96.21        2964.50           1416       19785.00     86436.58
   96.25        2964.75           1419       21454.00     93751.54
   96.28        2965.00           1422       23015.00    100596.10
   96.31        2965.25           1426       25478.00    111401.30
   96.34        2965.50           1429       26887.00    117585.80
   96.37        2965.75           1432       28662.00    125380.00
   96.40        2966.00           1436       30872.00    135089.50
   96.43        2966.25           1439       32650.00    142905.20
   96.46        2966.50           1442       34153.00    149514.80
   96.49        2966.75           1446       35877.00    157099.60
   96.52        2967.00           1449       36605.00    160303.50
   96.55        2967.25           1452       36747.00    160928.50
   96.59        2967.50           1456       36746.00    160924.10
   96.62        2967.75           1459       36570.00    160149.50
   96.65        2968.00           1462       36471.00    159713.70
   96.68        2968.25           1466       35642.00    156065.50
   96.71        2968.50           1469       34412.00    150654.10
   96.74        2968.75           1472       33002.00    144452.90
   96.77        2969.00           1476       30813.00    134830.30
   96.80        2969.25           1479       29267.00    128037.50
   96.83        2969.50           1482       27369.00    119702.00
   96.87        2969.75           1486       25240.00    110356.90
   96.90        2970.00           1489       23598.00    103153.10
   96.93        2970.25           1492       21704.00     94847.53
   96.96        2970.50           1496       19497.00     85174.64
   96.99        2970.75           1499       17908.00     78213.82
   97.02        2971.00           1502       16077.00     70196.50
   97.05        2971.25           1506       13914.00     60730.42
   97.08        2971.50           1509       12185.00     53167.57
   97.11        2971.75           1513       10028.00     43737.39
   97.15        2972.00           1516        8414.00     36684.65
   97.18        2972.25           1519        6663.00     29036.62
   97.21        2972.50           1523        4389.00     19109.47
   97.24        2972.75           1526        2784.00     12106.40
   97.27        2973.00           1529        1444.00      6261.86
   97.30        2973.25           1533         558.00      2398.60
   97.33        2973.50           1536         382.00      1631.29
   97.36        2973.75           1539         323.00      1374.08
   97.39        2974.00           1543         263.00      1112.50
   97.42        2974.25           1546         208.00       872.73
   97.45        2974.50           1549         164.00       680.92
   97.48        2974.75           1553         112.00       454.23
   97.51        2975.00           1556          81.00       319.10
   97.55        2975.25           1559          63.00       240.63
   97.58        2975.50           1563          47.00       170.88
   97.61        2975.75           1566          49.00       179.60
   97.64        2976.00           1569          54.00       201.40
   97.67        2976.25           1573          45.00       162.16
   97.70        2976.50           1576          45.00       162.16
   97.73        2976.75           1579          43.00       153.44
   97.76        2977.00           1583          51.00       188.32
   97.79        2977.25           1586          48.00       175.24
   97.82        2977.50           1590          48.00       175.24
   97.85        2977.75           1593          53.00       197.04
   97.88        2978.00           1596          40.00       140.37
   97.92        2978.25           1600          43.00       153.44
   97.95        2978.50           1603          44.00       157.80
   97.98        2978.75           1606          43.00       153.44
   98.01        2979.00           1610          50.00       183.96
   98.04        2979.25           1613          56.00       210.11
   98.07        2979.50           1616          48.00       175.24
   98.10        2979.75           1620          45.00       162.16
   98.13        2980.00           1623          45.00       162.16
   98.16        2980.25           1626          48.00       175.24
   98.19        2980.50           1630          49.00       179.60
   98.23        2980.75           1633          41.00       144.73
   98.26        2981.00           1637          36.00       122.93
   98.29        2981.25           1640          43.00       153.44
   98.32        2981.50           1643          39.00       136.01
   98.35        2981.75           1647          45.00       162.16
   98.38        2982.00           1650          48.00       175.24
   98.41        2982.25           1653          52.00       192.68
   98.44        2982.50           1657          46.00       166.52
   98.47        2982.75           1660          47.00       170.88
   98.50        2983.00           1663          45.00       162.16
   98.53        2983.25           1667          41.00       144.73
   98.56        2983.50           1670          61.00       231.91
   98.59        2983.75           1673          56.00       210.11
   98.62        2984.00           1677          42.00       149.09
HS scan finished at 01:38:50
end
************************************************************
  HS Scan of (1) Internal mercury lamp
************************************************************
Integration time is 0.2294 seconds per sample
dh080517Manchester 53.47 2.23 2.804185pr1000
************************************************************
Dead Time -------------------------  3E-08 
Number of Cycles Used -------------  4 
Starting Wavelength (Angstroms) ---  2950 
Final Wavelength (Angstoms) -------  2984 
Wavelength Increment (Angstroms) --  .25 
Filter Wheel #1 Position ---------- (1) Ground quartz diffuser (ND=2.32)
Filter Wheel #2 Position ---------- (1) Neutral Density 0.494



************************************************************
HS scan start time = 20:41:58
Dark Count =  8.100001 


Time (GMT)  Wavelength (Ang)  Step Number  Raw Counts  Counts/Second

 1242.34        2950.00           1222          43.00       152.14
 1242.41        2950.25           1226          46.00       165.21
 1242.44        2950.50           1229          51.00       187.01
 1242.47        2950.75           1232          41.00       143.42
 1242.50        2951.00           1236          48.00       173.93
 1242.53        2951.25           1239          45.00       160.86
 1242.56        2951.50           1242          43.00       152.14
 1242.59        2951.75           1246          46.00       165.21
 1242.62        2952.00           1249          42.00       147.78
 1242.65        2952.25           1252          44.00       156.50
 1242.69        2952.50           1256          48.00       173.93
 1242.72        2952.75           1259          52.00       191.37
 1242.75        2953.00           1262          47.00       169.57
 1242.78        2953.25           1266          48.00       173.93
 1242.81        2953.50           1269          51.00       187.01
 1242.84        2953.75           1272          46.00       165.21
 1242.87        2954.00           1276          58.00       217.53
 1242.90        2954.25           1279          44.00       156.50
 1242.93        2954.50           1282          46.00       165.21
 1242.96        2954.75           1286          48.00       173.93
 1242.99        2955.00           1289          55.00       204.45
 1243.02        2955.25           1292          51.00       187.01
 1243.05        2955.50           1296          46.00       165.21
 1243.08        2955.75           1299          44.00       156.50
 1243.12        2956.00           1302          45.00       160.86
 1243.15        2956.25           1306          39.00       134.70
 1243.18        2956.50           1309          44.00       156.50
 1243.21        2956.75           1312          51.00       187.01
 1243.24        2957.00           1316          47.00       169.57
 1243.27        2957.25           1319          51.00       187.01
 1243.30        2957.50           1322          47.00       169.57
 1243.33        2957.75           1326          52.00       191.37
 1243.36        2958.00           1329          47.00       169.57
 1243.39        2958.25           1332          45.00       160.86
 1243.42        2958.50           1336          42.00       147.78
 1243.45        2958.75           1339          48.00       173.93
 1243.48        2959.00           1342          43.00       152.14
 1243.51        2959.25           1346          49.00       178.29
 1243.54        2959.50           1349          66.00       252.40
 1243.58        2959.75           1352          78.00       304.71
 1243.61        2960.00           1356          99.00       396.26
 1243.64        2960.25           1359         139.00       570.63
 1243.67        2960.50           1362         172.00       714.49
 1243.70        2960.75           1366         232.00       976.05
 1243.73        2961.00           1369         273.00      1154.79
 1243.76        2961.25           1372         343.00      1459.96
 1243.79        2961.50           1376         395.00      1686.66
 1243.82        2961.75           1379         616.00      2650.17
 1243.85        2962.00           1382        1164.00      5039.56
 1243.88        2962.25           1386        2813.00     12231.60
 1243.91        2962.50           1389        4409.00     19195.45
 1243.94        2962.75           1392        6071.00     26450.36
 1243.97        2963.00           1396        8156.00     35556.22
 1244.00        2963.25           1399        9779.00     42647.82
 1244.04        2963.50           1402       11478.00     50074.74
 1244.07        2963.75           1406       13929.00     60794.74
 1244.10        2964.00           1409       15552.00     67897.10
 1244.13        2964.25           1412       17264.00     75392.22
 1244.16        2964.50           1416       19782.00     86422.12
 1244.19        2964.75           1419       21426.00     93627.48
 1244.22        2965.00           1422       23097.00    100954.40
 1244.25        2965.25           1426       25160.00    110004.60
 1244.28        2965.50           1429       26880.00    117553.80
 1244.31        2965.75           1432       28614.00    125167.90
 1244.35        2966.00           1436       30702.00    134341.10
 1244.38        2966.25           1439       32391.00    141765.10
 1244.41        2966.50           1442       33777.00    147859.70
 1244.44        2966.75           1446       35514.00    155501.00
 1244.47        2967.00           1449       36202.00    158528.50
 1244.50        2967.25           1452       36428.00    159523.20
 1244.53        2967.50           1456       36393.00    159369.10
 1244.56        2967.75           1459       36412.00    159452.70
 1244.59        2968.00           1462       36344.00    159153.50
 1244.62        2968.25           1466       35306.00    154585.80
 1244.65        2968.50           1469       34308.00    150195.30
 1244.69        2968.75           1472       32714.00    143185.20
 1244.72        2969.00           1476       30523.00    133554.60
 1244.75        2969.25           1479       28932.00    126564.70
 1244.78        2969.50           1482       27294.00    119371.40
 1244.81        2969.75           1486       25009.00    109342.00
 1244.84        2970.00           1489       23348.00    102055.20
 1244.87        2970.25           1492       21573.00     94271.91
 1244.90        2970.50           1496       19260.00     84134.94
 1244.93        2970.75           1499       17687.00     77244.63
 1244.96        2971.00           1502       16016.00     69928.15
 1245.00        2971.25           1506       13833.00     60374.74
 1245.03        2971.50           1509       11944.00     52112.37
 1245.06        2971.75           1513        9805.00     42761.45
 1245.09        2972.00           1516        8058.00     35128.11
 1245.12        2972.25           1519        6539.00     28493.84
 1245.15        2972.50           1523        4221.00     18374.99
 1245.18        2972.75           1526        2673.00     11620.88
 1245.21        2973.00           1529        1368.00      5929.13
 1245.24        2973.25           1533         471.00      2017.99
 1245.27        2973.50           1536         358.00      1525.35
 1245.30        2973.75           1539         292.00      1237.62
 1245.33        2974.00           1543         244.00      1028.37
 1245.37        2974.25           1546         192.00       801.68
 1245.40        2974.50           1549         126.00       513.96
 1245.43        2974.75           1553          90.00       357.02
 1245.46        2975.00           1556          59.00       221.88
 1245.49        2975.25           1559          55.00       204.45
 1245.52        2975.50           1563          58.00       217.53
 1245.55        2975.75           1566          47.00       169.57
 1245.58        2976.00           1569          44.00       156.50
 1245.61        2976.25           1573          44.00       156.50
 1245.64        2976.50           1576          48.00       173.93
 1245.67        2976.75           1579          48.00       173.93
 1245.70        2977.00           1583          43.00       152.14
 1245.74        2977.25           1586          52.00       191.37
 1245.77        2977.50           1590          49.00       178.29
 1245.80        2977.75           1593          45.00       160.86
 1245.83        2978.00           1596          44.00       156.50
 1245.86        2978.25           1600          46.00       165.21
 1245.89        2978.50           1603          39.00       134.70
 1245.92        2978.75           1606          47.00       169.57
 1245.95        2979.00           1610          38.00       130.34
 1245.98        2979.25           1613          47.00       169.57
 1246.01        2979.50           1616          51.00       187.01
 1246.04        2979.75           1620          41.00       143.42
 1246.08        2980.00           1623          45.00       160.86
 1246.11        2980.25           1626          46.00       165.21
 1246.14        2980.50           1630          47.00       169.57
 1246.17        2980.75           1633          46.00       165.21
 1246.20        2981.00           1637          44.00       156.50
 1246.23        2981.25           1640          41.00       143.42
 1246.26        2981.50           1643          47.00       169.57
 1246.29        2981.75           1647          40.00       139.06
 1246.32        2982.00           1650          40.00       139.06
 1246.35        2982.25           1653          49.00       178.29
 1246.39        2982.50           1657          50.00       182.65
 1246.42        2982.75           1660          39.00       134.70
 1246.45        2983.00           1663          42.00       147.78
 1246.48        2983.25           1667          42.00       147.78
 1246.51        2983.50           1670          40.00       139.06
 1246.54        2983.75           1673          46.00       165.21
 1246.57        2984.00           1677          49.00       178.29
HS scan finished at 20:46:47
end
