************************************************************
  HS Scan of (1) Internal mercury lamp
************************************************************
Integration time is 0.2294 seconds per sample
dh060517Manchester 53.47 2.23 2.750537pr1000
************************************************************
Dead Time -------------------------  3E-08 
Number of Cycles Used -------------  4 
Starting Wavelength (Angstroms) ---  2950 
Final Wavelength (Angstoms) -------  2984 
Wavelength Increment (Angstroms) --  .25 
Filter Wheel #1 Position ---------- (1) Ground quartz diffuser (ND=2.32)
Filter Wheel #2 Position ---------- (1) Neutral Density 0.494



************************************************************
HS scan start time = 01:22:36
Dark Count =  7.7 


Time (GMT)  Wavelength (Ang)  Step Number  Raw Counts  Counts/Second

   82.97        2950.00           1222          42.00       149.52
   83.04        2950.25           1226          48.00       175.68
   83.07        2950.50           1229          46.00       166.96
   83.10        2950.75           1232          47.00       171.32
   83.13        2951.00           1236          40.00       140.80
   83.16        2951.25           1239          51.00       188.75
   83.19        2951.50           1242          39.00       136.44
   83.22        2951.75           1246          45.00       162.60
   83.26        2952.00           1249          46.00       166.96
   83.29        2952.25           1252          55.00       206.19
   83.32        2952.50           1256          43.00       153.88
   83.35        2952.75           1259          43.00       153.88
   83.38        2953.00           1262          51.00       188.75
   83.41        2953.25           1266          46.00       166.96
   83.44        2953.50           1269          41.00       145.16
   83.47        2953.75           1272          44.00       158.24
   83.50        2954.00           1276          44.00       158.24
   83.53        2954.25           1279          47.00       171.32
   83.56        2954.50           1282          54.00       201.83
   83.59        2954.75           1286          44.00       158.24
   83.62        2955.00           1289          51.00       188.75
   83.66        2955.25           1292          46.00       166.96
   83.69        2955.50           1296          43.00       153.88
   83.72        2955.75           1299          48.00       175.68
   83.75        2956.00           1302          48.00       175.68
   83.78        2956.25           1306          47.00       171.32
   83.81        2956.50           1309          39.00       136.44
   83.84        2956.75           1312          50.00       184.40
   83.87        2957.00           1316          45.00       162.60
   83.90        2957.25           1319          50.00       184.40
   83.93        2957.50           1322          43.00       153.88
   83.96        2957.75           1326          46.00       166.96
   83.99        2958.00           1329          47.00       171.32
   84.02        2958.25           1332          49.00       180.04
   84.06        2958.50           1336          47.00       171.32
   84.09        2958.75           1339          46.00       166.96
   84.12        2959.00           1342          45.00       162.60
   84.15        2959.25           1346          54.00       201.83
   84.18        2959.50           1349          58.00       219.27
   84.21        2959.75           1352          69.00       267.22
   84.24        2960.00           1356         112.00       454.67
   84.27        2960.25           1359         155.00       642.12
   84.30        2960.50           1362         192.00       803.42
   84.33        2960.75           1366         253.00      1069.35
   84.36        2961.00           1369         280.00      1187.05
   84.39        2961.25           1372         354.00      1509.66
   84.43        2961.50           1376         417.00      1784.32
   84.46        2961.75           1379         645.00      2778.35
   84.49        2962.00           1382        1235.00      5350.90
   84.52        2962.25           1386        2899.00     12608.52
   84.55        2962.50           1389        4495.00     19572.52
   84.58        2962.75           1392        6078.00     26482.67
   84.61        2963.00           1396        8250.00     35968.61
   84.64        2963.25           1399        9929.00     43305.14
   84.67        2963.50           1402       11598.00     50601.17
   84.70        2963.75           1406       14142.00     61728.42
   84.73        2964.00           1409       16005.00     69881.75
   84.76        2964.25           1412       17906.00     78205.50
   84.79        2964.50           1416       20178.00     88159.19
   84.82        2964.75           1419       21574.00     94278.04
   84.86        2965.00           1422       23611.00    103210.50
   84.89        2965.25           1426       25920.00    113341.60
   84.92        2965.50           1429       27531.00    120413.70
   84.95        2965.75           1432       29304.00    128200.50
   84.98        2966.00           1436       31331.00    137107.30
   85.01        2966.25           1439       33001.00    144448.90
   85.04        2966.50           1442       34713.00    151978.60
   85.07        2966.75           1446       36234.00    158671.10
   85.10        2967.00           1449       36741.00    160902.60
   85.13        2967.25           1452       37022.00    162139.40
   85.17        2967.50           1456       36880.00    161514.40
   85.20        2967.75           1459       36874.00    161488.00
   85.23        2968.00           1462       36611.00    160330.40
   85.26        2968.25           1466       35845.00    156959.20
   85.29        2968.50           1469       34440.00    150777.70
   85.32        2968.75           1472       32956.00    144251.10
   85.35        2969.00           1476       30704.00    134351.70
   85.38        2969.25           1479       29200.00    127743.60
   85.41        2969.50           1482       27195.00    118938.50
   85.44        2969.75           1486       24922.00    108962.00
   85.47        2970.00           1489       23177.00    101307.00
   85.50        2970.25           1492       21693.00     94799.75
   85.54        2970.50           1496       19348.00     84522.25
   85.57        2970.75           1499       17655.00     77106.24
   85.60        2971.00           1502       15991.00     69820.46
   85.63        2971.25           1506       13763.00     60070.23
   85.66        2971.50           1509       12159.00     53054.30
   85.69        2971.75           1513       10016.00     43685.38
   85.72        2972.00           1516        8237.00     35911.82
   85.75        2972.25           1519        6631.00     28897.32
   85.78        2972.50           1523        4483.00     19520.15
   85.82        2972.75           1526        2776.00     12071.94
   85.85        2973.00           1529        1375.00      5961.40
   85.88        2973.25           1533         493.00      2115.65
   85.91        2973.50           1536         318.00      1352.71
   85.94        2973.75           1539         268.00      1134.74
   85.97        2974.00           1543         234.00       986.52
   86.00        2974.25           1546         159.00       659.56
   86.03        2974.50           1549         123.00       502.62
   86.06        2974.75           1553          82.00       323.89
   86.09        2975.00           1556          62.00       236.71
   86.13        2975.25           1559          56.00       210.55
   86.16        2975.50           1563          55.00       206.19
   86.19        2975.75           1566          48.00       175.68
   86.22        2976.00           1569          43.00       153.88
   86.25        2976.25           1573          46.00       166.96
   86.28        2976.50           1576          44.00       158.24
   86.31        2976.75           1579          43.00       153.88
   86.34        2977.00           1583          47.00       171.32
   86.37        2977.25           1586          55.00       206.19
   86.40        2977.50           1590          49.00       180.04
   86.44        2977.75           1593          51.00       188.75
   86.47        2978.00           1596          48.00       175.68
   86.50        2978.25           1600          46.00       166.96
   86.53        2978.50           1603          44.00       158.24
   86.56        2978.75           1606          53.00       197.47
   86.59        2979.00           1610          44.00       158.24
   86.62        2979.25           1613          42.00       149.52
   86.65        2979.50           1616          48.00       175.68
   86.68        2979.75           1620          44.00       158.24
   86.71        2980.00           1623          40.00       140.80
   86.74        2980.25           1626          51.00       188.75
   86.78        2980.50           1630          48.00       175.68
   86.81        2980.75           1633          47.00       171.32
   86.84        2981.00           1637          43.00       153.88
   86.87        2981.25           1640          49.00       180.04
   86.90        2981.50           1643          41.00       145.16
   86.93        2981.75           1647          47.00       171.32
   86.96        2982.00           1650          48.00       175.68
   86.99        2982.25           1653          46.00       166.96
   87.02        2982.50           1657          47.00       171.32
   87.05        2982.75           1660          47.00       171.32
   87.08        2983.00           1663          50.00       184.40
   87.11        2983.25           1667          59.00       223.63
   87.14        2983.50           1670          43.00       153.88
   87.17        2983.75           1673          42.00       149.52
   87.21        2984.00           1677          39.00       136.44
HS scan finished at 01:27:25
end
************************************************************
  HS Scan of (1) Internal mercury lamp
************************************************************
Integration time is 0.2294 seconds per sample
dh060517Manchester 53.47 2.23 2.804185pr1000
************************************************************
Dead Time -------------------------  3E-08 
Number of Cycles Used -------------  4 
Starting Wavelength (Angstroms) ---  2950 
Final Wavelength (Angstoms) -------  2984 
Wavelength Increment (Angstroms) --  .25 
Filter Wheel #1 Position ---------- (1) Ground quartz diffuser (ND=2.32)
Filter Wheel #2 Position ---------- (1) Neutral Density 0.494



************************************************************
HS scan start time = 20:42:01
Dark Count =  5.1 


Time (GMT)  Wavelength (Ang)  Step Number  Raw Counts  Counts/Second

 1242.38        2950.00           1222          47.00       182.65
 1242.45        2950.25           1226          46.00       178.29
 1242.48        2950.50           1229          47.00       182.65
 1242.51        2950.75           1232          52.00       204.45
 1242.54        2951.00           1236          44.00       169.57
 1242.57        2951.25           1239          48.00       187.01
 1242.60        2951.50           1242          50.00       195.73
 1242.63        2951.75           1246          53.00       208.81
 1242.66        2952.00           1249          47.00       182.65
 1242.70        2952.25           1252          49.00       191.37
 1242.73        2952.50           1256          45.00       173.93
 1242.76        2952.75           1259          46.00       178.29
 1242.79        2953.00           1262          42.00       160.86
 1242.82        2953.25           1266          49.00       191.37
 1242.85        2953.50           1269          40.00       152.14
 1242.88        2953.75           1272          44.00       169.57
 1242.91        2954.00           1276          47.00       182.65
 1242.94        2954.25           1279          37.00       139.06
 1242.97        2954.50           1282          50.00       195.73
 1243.01        2954.75           1286          51.00       200.09
 1243.04        2955.00           1289          42.00       160.86
 1243.07        2955.25           1292          51.00       200.09
 1243.10        2955.50           1296          44.00       169.57
 1243.13        2955.75           1299          51.00       200.09
 1243.16        2956.00           1302          51.00       200.09
 1243.19        2956.25           1306          49.00       191.37
 1243.22        2956.50           1309          47.00       182.65
 1243.25        2956.75           1312          51.00       200.09
 1243.28        2957.00           1316          49.00       191.37
 1243.31        2957.25           1319          41.00       156.50
 1243.34        2957.50           1322          44.00       169.57
 1243.37        2957.75           1326          44.00       169.57
 1243.40        2958.00           1329          46.00       178.29
 1243.44        2958.25           1332          46.00       178.29
 1243.47        2958.50           1336          50.00       195.73
 1243.50        2958.75           1339          56.00       221.88
 1243.53        2959.00           1342          46.00       178.29
 1243.56        2959.25           1346          50.00       195.73
 1243.59        2959.50           1349          53.00       208.81
 1243.62        2959.75           1352          70.00       282.91
 1243.65        2960.00           1356         105.00       435.49
 1243.68        2960.25           1359         131.00       548.83
 1243.71        2960.50           1362         188.00       797.32
 1243.74        2960.75           1366         227.00       967.33
 1243.78        2961.00           1369         268.00      1146.07
 1243.81        2961.25           1372         315.00      1350.97
 1243.84        2961.50           1376         413.00      1778.21
 1243.87        2961.75           1379         655.00      2833.28
 1243.90        2962.00           1382        1337.00      5807.03
 1243.93        2962.25           1386        3096.00     13479.30
 1243.96        2962.50           1389        4709.00     20517.86
 1243.99        2962.75           1392        6359.00     27720.95
 1244.02        2963.00           1396        8267.00     36054.24
 1244.05        2963.25           1399        9898.00     43181.02
 1244.08        2963.50           1402       11827.00     51613.86
 1244.11        2963.75           1406       14298.00     62422.37
 1244.14        2964.00           1409       16171.00     70619.81
 1244.18        2964.25           1412       17885.00     78124.91
 1244.21        2964.50           1416       20153.00     88061.02
 1244.24        2964.75           1419       21770.00     95148.72
 1244.27        2965.00           1422       23458.00    102550.90
 1244.30        2965.25           1426       25721.00    112479.60
 1244.33        2965.50           1429       27494.00    120262.70
 1244.36        2965.75           1432       29158.00    127570.60
 1244.39        2966.00           1436       31321.00    137074.80
 1244.42        2966.25           1439       33004.00    144473.60
 1244.46        2966.50           1442       34830.00    152504.80
 1244.49        2966.75           1446       36235.00    158686.90
 1244.52        2967.00           1449       36501.00    159857.60
 1244.55        2967.25           1452       36619.00    160377.00
 1244.58        2967.50           1456       36556.00    160099.70
 1244.61        2967.75           1459       36495.00    159831.20
 1244.64        2968.00           1462       36320.00    159061.00
 1244.67        2968.25           1466       35299.00    154568.20
 1244.70        2968.50           1469       33985.00    148787.80
 1244.73        2968.75           1472       32488.00    142204.80
 1244.76        2969.00           1476       30297.00    132574.60
 1244.80        2969.25           1479       28622.00    125216.20
 1244.83        2969.50           1482       26914.00    117716.20
 1244.86        2969.75           1486       24614.00    107622.00
 1244.89        2970.00           1489       22982.00    100463.20
 1244.92        2970.25           1492       21141.00     92391.31
 1244.95        2970.50           1496       18972.00     82886.33
 1244.98        2970.75           1499       17151.00     74910.53
 1245.01        2971.00           1502       15736.00     68715.63
 1245.05        2971.25           1506       13435.00     58646.69
 1245.08        2971.50           1509       11769.00     51360.25
 1245.11        2971.75           1513        9645.00     42075.31
 1245.14        2972.00           1516        8069.00     35189.27
 1245.17        2972.25           1519        6319.00     27546.29
 1245.20        2972.50           1523        4024.00     17528.40
 1245.23        2972.75           1526        2505.00     10901.12
 1245.26        2973.00           1529        1187.00      5152.93
 1245.29        2973.25           1533         490.00      2113.91
 1245.32        2973.50           1536         350.00      1503.56
 1245.35        2973.75           1539         283.00      1211.47
 1245.39        2974.00           1543         233.00       993.49
 1245.42        2974.25           1546         194.00       823.47
 1245.45        2974.50           1549         132.00       553.19
 1245.48        2974.75           1553          89.00       365.74
 1245.51        2975.00           1556          66.00       265.48
 1245.54        2975.25           1559          48.00       187.01
 1245.57        2975.50           1563          54.00       213.17
 1245.60        2975.75           1566          57.00       226.24
 1245.63        2976.00           1569          48.00       187.01
 1245.66        2976.25           1573          50.00       195.73
 1245.69        2976.50           1576          46.00       178.29
 1245.72        2976.75           1579          50.00       195.73
 1245.75        2977.00           1583          47.00       182.65
 1245.78        2977.25           1586          52.00       204.45
 1245.81        2977.50           1590          56.00       221.88
 1245.84        2977.75           1593          47.00       182.65
 1245.88        2978.00           1596          51.00       200.09
 1245.91        2978.25           1600          41.00       156.50
 1245.94        2978.50           1603          54.00       213.17
 1245.97        2978.75           1606          49.00       191.37
 1246.00        2979.00           1610          47.00       182.65
 1246.03        2979.25           1613          52.00       204.45
 1246.06        2979.50           1616          44.00       169.57
 1246.09        2979.75           1620          42.00       160.86
 1246.12        2980.00           1623          50.00       195.73
 1246.15        2980.25           1626          53.00       208.81
 1246.18        2980.50           1630          47.00       182.65
 1246.22        2980.75           1633          43.00       165.21
 1246.25        2981.00           1637          44.00       169.57
 1246.28        2981.25           1640          45.00       173.93
 1246.31        2981.50           1643          45.00       173.93
 1246.34        2981.75           1647          48.00       187.01
 1246.37        2982.00           1650          35.00       130.34
 1246.40        2982.25           1653          47.00       182.65
 1246.43        2982.50           1657          45.00       173.93
 1246.46        2982.75           1660          46.00       178.29
 1246.49        2983.00           1663          43.00       165.21
 1246.53        2983.25           1667          44.00       169.57
 1246.56        2983.50           1670          40.00       152.14
 1246.59        2983.75           1673          41.00       156.50
 1246.62        2984.00           1677          43.00       165.21
HS scan finished at 20:46:50
end
