************************************************************
  HS Scan of (1) Internal mercury lamp
************************************************************
Integration time is 0.2294 seconds per sample
dh050518Manchester 53.47 2.23 2.804185pr1000
************************************************************
Dead Time -------------------------  3E-08 
Number of Cycles Used -------------  4 
Starting Wavelength (Angstroms) ---  2950 
Final Wavelength (Angstoms) -------  2984 
Wavelength Increment (Angstroms) --  .25 
Filter Wheel #1 Position ---------- (1) Ground quartz diffuser (ND=2.32)
Filter Wheel #2 Position ---------- (1) Neutral Density 0.494



************************************************************
HS scan start time = 01:19:42
Dark Count =  6.8 


Time (GMT)  Wavelength (Ang)  Step Number  Raw Counts  Counts/Second

   80.07        2950.00           1222          57.00       218.83
   80.14        2950.25           1226          62.00       240.63
   80.17        2950.50           1229          52.00       197.04
   80.20        2950.75           1232          58.00       223.19
   80.23        2951.00           1236          64.00       249.35
   80.26        2951.25           1239          63.00       244.99
   80.29        2951.50           1242          61.00       236.27
   80.32        2951.75           1246          61.00       236.27
   80.36        2952.00           1249          51.00       192.68
   80.39        2952.25           1252          57.00       218.83
   80.42        2952.50           1256          54.00       205.76
   80.45        2952.75           1259          58.00       223.19
   80.48        2953.00           1262          64.00       249.35
   80.51        2953.25           1266          58.00       223.19
   80.54        2953.50           1269          53.00       201.40
   80.57        2953.75           1272          56.00       214.47
   80.60        2954.00           1276          57.00       218.83
   80.63        2954.25           1279          60.00       231.91
   80.66        2954.50           1282          69.00       271.14
   80.69        2954.75           1286          59.00       227.55
   80.72        2955.00           1289          52.00       197.04
   80.75        2955.25           1292          54.00       205.76
   80.78        2955.50           1296          57.00       218.83
   80.82        2955.75           1299          65.00       253.71
   80.85        2956.00           1302          55.00       210.11
   80.88        2956.25           1306          55.00       210.11
   80.91        2956.50           1309          57.00       218.83
   80.94        2956.75           1312          53.00       201.40
   80.97        2957.00           1316          52.00       197.04
   81.00        2957.25           1319          68.00       266.79
   81.03        2957.50           1322          63.00       244.99
   81.06        2957.75           1326          57.00       218.83
   81.09        2958.00           1329          54.00       205.76
   81.12        2958.25           1332          54.00       205.76
   81.15        2958.50           1336          52.00       197.04
   81.18        2958.75           1339          64.00       249.35
   81.22        2959.00           1342          55.00       210.11
   81.25        2959.25           1346          65.00       253.71
   81.28        2959.50           1349          69.00       271.14
   81.31        2959.75           1352          87.00       349.61
   81.34        2960.00           1356         122.00       502.19
   81.37        2960.25           1359         159.00       663.48
   81.40        2960.50           1362         191.00       802.98
   81.43        2960.75           1366         234.00       990.44
   81.46        2961.00           1369         260.00      1103.79
   81.49        2961.25           1372         319.00      1361.00
   81.52        2961.50           1376         378.00      1618.21
   81.55        2961.75           1379         554.00      2385.52
   81.59        2962.00           1382        1177.00      5101.91
   81.62        2962.25           1386        2920.00     12704.06
   81.65        2962.50           1389        4346.00     18926.18
   81.68        2962.75           1392        5610.00     24443.38
   81.71        2963.00           1396        7604.00     33150.65
   81.74        2963.25           1399        9155.00     39926.61
   81.77        2963.50           1402       10576.00     46137.06
   81.80        2963.75           1406       12549.00     54763.83
   81.83        2964.00           1409       14067.00     61404.21
   81.86        2964.25           1412       15607.00     68143.52
   81.90        2964.50           1416       17503.00     76444.51
   81.93        2964.75           1419       19174.00     83763.85
   81.96        2965.00           1422       20558.00     89828.50
   81.99        2965.25           1426       22620.00     98868.22
   82.02        2965.50           1429       24008.00    104955.90
   82.05        2965.75           1432       25634.00    112090.30
   82.08        2966.00           1436       27485.00    120215.70
   82.11        2966.25           1439       28824.00    126096.00
   82.14        2966.50           1442       29954.00    131060.10
   82.18        2966.75           1446       31402.00    137423.30
   82.21        2967.00           1449       31933.00    139757.40
   82.24        2967.25           1452       31760.00    138996.90
   82.27        2967.50           1456       31957.00    139862.90
   82.30        2967.75           1459       31940.00    139788.10
   82.33        2968.00           1462       31787.00    139115.60
   82.36        2968.25           1466       30689.00    134289.70
   82.39        2968.50           1469       29115.00    127374.20
   82.43        2968.75           1472       28055.00    122718.60
   82.46        2969.00           1476       25926.00    113371.90
   82.49        2969.25           1479       24408.00    106710.70
   82.52        2969.50           1482       23023.00    100635.50
   82.55        2969.75           1486       21174.00     92528.51
   82.58        2970.00           1489       19849.00     86721.41
   82.61        2970.25           1492       18200.00     79497.13
   82.64        2970.50           1496       16341.00     71356.61
   82.67        2970.75           1499       14726.00     64287.78
   82.70        2971.00           1502       13268.00     57908.72
   82.74        2971.25           1506       11294.00     49275.93
   82.77        2971.50           1509        9834.00     42893.88
   82.80        2971.75           1513        7949.00     34657.64
   82.83        2972.00           1516        6483.00     28254.98
   82.86        2972.25           1519        5091.00     22177.79
   82.89        2972.50           1523        3206.00     13951.79
   82.92        2972.75           1526        1898.00      8246.15
   82.95        2973.00           1529         848.00      3667.36
   82.98        2973.25           1533         364.00      1557.18
   83.02        2973.50           1536         285.00      1212.77
   83.05        2973.75           1539         254.00      1077.63
   83.08        2974.00           1543         184.00       772.47
   83.11        2974.25           1546         143.00       593.73
   83.14        2974.50           1549         111.00       454.23
   83.17        2974.75           1553          79.00       314.74
   83.20        2975.00           1556          66.00       258.07
   83.23        2975.25           1559          63.00       244.99
   83.26        2975.50           1563          60.00       231.91
   83.29        2975.75           1566          52.00       197.04
   83.32        2976.00           1569          59.00       227.55
   83.35        2976.25           1573          54.00       205.76
   83.39        2976.50           1576          56.00       214.47
   83.42        2976.75           1579          56.00       214.47
   83.45        2977.00           1583          60.00       231.91
   83.48        2977.25           1586          56.00       214.47
   83.51        2977.50           1590          62.00       240.63
   83.54        2977.75           1593          50.00       188.32
   83.57        2978.00           1596          58.00       223.19
   83.60        2978.25           1600          52.00       197.04
   83.63        2978.50           1603          56.00       214.47
   83.66        2978.75           1606          50.00       188.32
   83.69        2979.00           1610          52.00       197.04
   83.72        2979.25           1613          47.00       175.24
   83.75        2979.50           1616          53.00       201.40
   83.78        2979.75           1620          57.00       218.83
   83.82        2980.00           1623          61.00       236.27
   83.85        2980.25           1626          47.00       175.24
   83.88        2980.50           1630          51.00       192.68
   83.91        2980.75           1633          57.00       218.83
   83.94        2981.00           1637          50.00       188.32
   83.97        2981.25           1640          61.00       236.27
   84.00        2981.50           1643          56.00       214.47
   84.03        2981.75           1647          50.00       188.32
   84.06        2982.00           1650          50.00       188.32
   84.09        2982.25           1653          47.00       175.24
   84.12        2982.50           1657          62.00       240.63
   84.15        2982.75           1660          51.00       192.68
   84.18        2983.00           1663          49.00       183.96
   84.21        2983.25           1667          60.00       231.91
   84.24        2983.50           1670          55.00       210.11
   84.28        2983.75           1673          53.00       201.40
   84.31        2984.00           1677          44.00       162.16
HS scan finished at 01:24:31
end
************************************************************
  HS Scan of (1) Internal mercury lamp
************************************************************
Integration time is 0.2294 seconds per sample
dh050518Manchester 53.47 2.23 3.018777pr1000
************************************************************
Dead Time -------------------------  3E-08 
Number of Cycles Used -------------  4 
Starting Wavelength (Angstroms) ---  2950 
Final Wavelength (Angstoms) -------  2984 
Wavelength Increment (Angstroms) --  .25 
Filter Wheel #1 Position ---------- (1) Ground quartz diffuser (ND=2.32)
Filter Wheel #2 Position ---------- (1) Neutral Density 0.494



************************************************************
HS scan start time = 20:42:04
Dark Count =  6.6 


Time (GMT)  Wavelength (Ang)  Step Number  Raw Counts  Counts/Second

 1242.43        2950.00           1222          52.00       197.91
 1242.50        2950.25           1226          59.00       228.42
 1242.53        2950.50           1229          64.00       250.22
 1242.56        2950.75           1232          62.00       241.50
 1242.59        2951.00           1236          54.00       206.63
 1242.62        2951.25           1239          62.00       241.50
 1242.65        2951.50           1242          55.00       210.99
 1242.68        2951.75           1246          56.00       215.35
 1242.71        2952.00           1249          61.00       237.14
 1242.74        2952.25           1252          60.00       232.78
 1242.77        2952.50           1256          65.00       254.58
 1242.80        2952.75           1259          59.00       228.42
 1242.83        2953.00           1262          59.00       228.42
 1242.86        2953.25           1266          57.00       219.71
 1242.90        2953.50           1269          64.00       250.22
 1242.93        2953.75           1272          58.00       224.06
 1242.96        2954.00           1276          58.00       224.06
 1242.99        2954.25           1279          78.00       311.25
 1243.02        2954.50           1282          57.00       219.71
 1243.05        2954.75           1286          57.00       219.71
 1243.08        2955.00           1289          62.00       241.50
 1243.11        2955.25           1292          54.00       206.63
 1243.14        2955.50           1296          56.00       215.35
 1243.18        2955.75           1299          55.00       210.99
 1243.21        2956.00           1302          58.00       224.06
 1243.24        2956.25           1306          66.00       258.94
 1243.27        2956.50           1309          53.00       202.27
 1243.30        2956.75           1312          55.00       210.99
 1243.33        2957.00           1316          56.00       215.35
 1243.36        2957.25           1319          64.00       250.22
 1243.39        2957.50           1322          59.00       228.42
 1243.42        2957.75           1326          65.00       254.58
 1243.45        2958.00           1329          55.00       210.99
 1243.49        2958.25           1332          59.00       228.42
 1243.52        2958.50           1336          63.00       245.86
 1243.55        2958.75           1339          59.00       228.42
 1243.58        2959.00           1342          57.00       219.71
 1243.61        2959.25           1346          60.00       232.78
 1243.64        2959.50           1349          63.00       245.86
 1243.67        2959.75           1352          81.00       324.33
 1243.70        2960.00           1356         109.00       446.39
 1243.73        2960.25           1359         137.00       568.45
 1243.76        2960.50           1362         174.00       729.75
 1243.79        2960.75           1366         233.00       986.95
 1243.82        2961.00           1369         265.00      1126.45
 1243.85        2961.25           1372         306.00      1305.20
 1243.88        2961.50           1376         369.00      1579.85
 1243.92        2961.75           1379         527.00      2268.68
 1243.95        2962.00           1382        1173.00      5085.34
 1243.98        2962.25           1386        3071.00     13363.68
 1244.01        2962.50           1389        4622.00     20131.60
 1244.04        2962.75           1392        6127.00     26701.42
 1244.07        2963.00           1396        8172.00     35632.67
 1244.10        2963.25           1399        9773.00     42628.15
 1244.13        2963.50           1402       11382.00     49661.56
 1244.16        2963.75           1406       13712.00     59851.93
 1244.19        2964.00           1409       15152.00     66152.96
 1244.22        2964.25           1412       16858.00     73621.02
 1244.26        2964.50           1416       19053.00     83234.61
 1244.29        2964.75           1419       20628.00     90136.18
 1244.32        2965.00           1422       22322.00     97562.38
 1244.35        2965.25           1426       24406.00    106702.90
 1244.38        2965.50           1429       25984.00    113627.30
 1244.41        2965.75           1432       27747.00    121367.00
 1244.44        2966.00           1436       29981.00    131179.60
 1244.47        2966.25           1439       31598.00    138285.70
 1244.51        2966.50           1442       32964.00    144291.10
 1244.54        2966.75           1446       34363.00    150443.80
 1244.57        2967.00           1449       34645.00    151684.30
 1244.60        2967.25           1452       34767.00    152221.00
 1244.63        2967.50           1456       34724.00    152031.90
 1244.66        2967.75           1459       34644.00    151679.90
 1244.69        2968.00           1462       34313.00    150223.90
 1244.72        2968.25           1466       33341.00    145948.90
 1244.75        2968.50           1469       31816.00    139243.90
 1244.79        2968.75           1472       30355.00    132822.90
 1244.82        2969.00           1476       28256.00    123602.20
 1244.85        2969.25           1479       26619.00    116414.60
 1244.88        2969.50           1482       24999.00    109304.70
 1244.91        2969.75           1486       23061.00    100803.10
 1244.94        2970.00           1489       21604.00     94414.39
 1244.97        2970.25           1492       19929.00     87072.84
 1245.00        2970.50           1496       17939.00     78354.85
 1245.03        2970.75           1499       16256.00     70985.36
 1245.06        2971.00           1502       14719.00     64258.03
 1245.10        2971.25           1506       12489.00     54502.30
 1245.13        2971.50           1509       10822.00     47213.30
 1245.16        2971.75           1513        8935.00     38966.19
 1245.19        2972.00           1516        7373.00     32142.58
 1245.22        2972.25           1519        5707.00     24867.72
 1245.25        2972.50           1523        3425.00     14908.15
 1245.28        2972.75           1526        1978.00      8595.94
 1245.31        2973.00           1529         907.00      3925.48
 1245.34        2973.25           1533         436.00      1871.94
 1245.37        2973.50           1536         349.00      1492.66
 1245.41        2973.75           1539         296.00      1261.60
 1245.44        2974.00           1543         244.00      1034.91
 1245.47        2974.25           1546         189.00       795.14
 1245.50        2974.50           1549         139.00       577.17
 1245.53        2974.75           1553          94.00       381.00
 1245.56        2975.00           1556          83.00       333.05
 1245.59        2975.25           1559          64.00       250.22
 1245.62        2975.50           1563          53.00       202.27
 1245.65        2975.75           1566          63.00       245.86
 1245.68        2976.00           1569          53.00       202.27
 1245.72        2976.25           1573          53.00       202.27
 1245.75        2976.50           1576          65.00       254.58
 1245.78        2976.75           1579          52.00       197.91
 1245.81        2977.00           1583          59.00       228.42
 1245.84        2977.25           1586          53.00       202.27
 1245.87        2977.50           1590          56.00       215.35
 1245.90        2977.75           1593          72.00       285.09
 1245.93        2978.00           1596          58.00       224.06
 1245.96        2978.25           1600          43.00       158.68
 1245.99        2978.50           1603          54.00       206.63
 1246.02        2978.75           1606          53.00       202.27
 1246.05        2979.00           1610          57.00       219.71
 1246.08        2979.25           1613          53.00       202.27
 1246.11        2979.50           1616          59.00       228.42
 1246.15        2979.75           1620          46.00       171.75
 1246.18        2980.00           1623          45.00       167.39
 1246.21        2980.25           1626          48.00       180.47
 1246.24        2980.50           1630          56.00       215.35
 1246.27        2980.75           1633          57.00       219.71
 1246.30        2981.00           1637          53.00       202.27
 1246.33        2981.25           1640          51.00       193.55
 1246.36        2981.50           1643          51.00       193.55
 1246.39        2981.75           1647          56.00       215.35
 1246.42        2982.00           1650          55.00       210.99
 1246.45        2982.25           1653          57.00       219.71
 1246.49        2982.50           1657          52.00       197.91
 1246.52        2982.75           1660          51.00       193.55
 1246.55        2983.00           1663          53.00       202.27
 1246.58        2983.25           1667          51.00       193.55
 1246.61        2983.50           1670          60.00       232.78
 1246.64        2983.75           1673          51.00       193.55
 1246.67        2984.00           1677          53.00       202.27
HS scan finished at 20:46:53
end
