************************************************************
  HS Scan of (1) Internal mercury lamp
************************************************************
Integration time is 0.2294 seconds per sample
dh090518Manchester 53.47 2.23 2.804185pr1000
************************************************************
Dead Time -------------------------  3E-08 
Number of Cycles Used -------------  4 
Starting Wavelength (Angstroms) ---  2950 
Final Wavelength (Angstoms) -------  2984 
Wavelength Increment (Angstroms) --  .25 
Filter Wheel #1 Position ---------- (1) Ground quartz diffuser (ND=2.32)
Filter Wheel #2 Position ---------- (1) Neutral Density 0.494



************************************************************
HS scan start time = 01:33:38
Dark Count =  5.4 


Time (GMT)  Wavelength (Ang)  Step Number  Raw Counts  Counts/Second

   94.01        2950.00           1222          53.00       207.50
   94.08        2950.25           1226          60.00       238.01
   94.11        2950.50           1229          57.00       224.94
   94.14        2950.75           1232          53.00       207.50
   94.17        2951.00           1236          58.00       229.30
   94.20        2951.25           1239          58.00       229.30
   94.23        2951.50           1242          64.00       255.45
   94.26        2951.75           1246          49.00       190.06
   94.29        2952.00           1249          59.00       233.65
   94.32        2952.25           1252          52.00       203.14
   94.35        2952.50           1256          67.00       268.53
   94.38        2952.75           1259          73.00       294.68
   94.42        2953.00           1262          52.00       203.14
   94.45        2953.25           1266          61.00       242.37
   94.48        2953.50           1269          60.00       238.01
   94.51        2953.75           1272          55.00       216.22
   94.54        2954.00           1276          62.00       246.73
   94.57        2954.25           1279          53.00       207.50
   94.60        2954.50           1282          62.00       246.73
   94.63        2954.75           1286          59.00       233.65
   94.66        2955.00           1289          54.00       211.86
   94.69        2955.25           1292          54.00       211.86
   94.72        2955.50           1296          61.00       242.37
   94.75        2955.75           1299          63.00       251.09
   94.78        2956.00           1302          55.00       216.22
   94.82        2956.25           1306          62.00       246.73
   94.85        2956.50           1309          50.00       194.42
   94.88        2956.75           1312          53.00       207.50
   94.91        2957.00           1316          58.00       229.30
   94.94        2957.25           1319          59.00       233.65
   94.97        2957.50           1322          59.00       233.65
   95.00        2957.75           1326          55.00       216.22
   95.03        2958.00           1329          65.00       259.81
   95.06        2958.25           1332          54.00       211.86
   95.10        2958.50           1336          59.00       233.65
   95.13        2958.75           1339          68.00       272.89
   95.16        2959.00           1342          58.00       229.30
   95.19        2959.25           1346          55.00       216.22
   95.22        2959.50           1349          62.00       246.73
   95.25        2959.75           1352          76.00       307.76
   95.28        2960.00           1356          97.00       399.31
   95.31        2960.25           1359         120.00       499.57
   95.34        2960.50           1362         160.00       673.95
   95.37        2960.75           1366         214.00       909.35
   95.40        2961.00           1369         255.00      1088.09
   95.43        2961.25           1372         297.00      1271.19
   95.46        2961.50           1376         361.00      1550.20
   95.49        2961.75           1379         542.00      2339.31
   95.53        2962.00           1382        1287.00      5587.68
   95.56        2962.25           1386        2977.00     12958.83
   95.59        2962.50           1389        4373.00     19050.12
   95.62        2962.75           1392        5803.00     25292.07
   95.65        2963.00           1396        7652.00     33366.43
   95.68        2963.25           1399        9138.00     39858.44
   95.71        2963.50           1402       10699.00     46680.85
   95.74        2963.75           1406       13006.00     56768.79
   95.77        2964.00           1409       14281.00     62346.67
   95.80        2964.25           1412       15961.00     69699.21
   95.83        2964.50           1416       17999.00     78622.90
   95.86        2964.75           1419       19550.00     85417.39
   95.89        2965.00           1422       20856.00     91140.75
   95.93        2965.25           1426       22846.00     99865.44
   95.96        2965.50           1429       24232.00    105944.70
   95.99        2965.75           1432       25768.00    112684.60
   96.02        2966.00           1436       27734.00    121315.20
   96.05        2966.25           1439       29175.00    127643.90
   96.08        2966.50           1442       30454.00    133263.20
   96.11        2966.75           1446       31689.00    138690.90
   96.14        2967.00           1449       31969.00    139921.80
   96.17        2967.25           1452       31871.00    139491.00
   96.21        2967.50           1456       31901.00    139622.90
   96.24        2967.75           1459       31961.00    139886.60
   96.27        2968.00           1462       31661.00    138567.90
   96.30        2968.25           1466       30673.00    134225.60
   96.33        2968.50           1469       29342.00    128377.50
   96.36        2968.75           1472       27941.00    122224.20
   96.39        2969.00           1476       26099.00    114137.30
   96.42        2969.25           1479       24474.00    107006.40
   96.45        2969.50           1482       23061.00    100808.30
   96.48        2969.75           1486       21115.00     92276.02
   96.52        2970.00           1489       19707.00     86105.31
   96.55        2970.25           1492       17996.00     78609.75
   96.58        2970.50           1496       16152.00     70535.33
   96.61        2970.75           1499       14778.00     64521.46
   96.64        2971.00           1502       13196.00     57599.89
   96.67        2971.25           1506       11263.00     49146.51
   96.70        2971.50           1509        9881.00     43105.40
   96.73        2971.75           1513        8269.00     36061.66
   96.76        2972.00           1516        6573.00     28654.09
   96.79        2972.25           1519        5178.00     22563.66
   96.82        2972.50           1523        3215.00     13997.16
   96.86        2972.75           1526        1804.00      7842.30
   96.89        2973.00           1529         818.00      3542.66
   96.92        2973.25           1533         397.00      1707.15
   96.95        2973.50           1536         300.00      1284.27
   96.98        2973.75           1539         271.00      1157.84
   97.01        2974.00           1543         200.00       848.32
   97.04        2974.25           1546         153.00       643.43
   97.07        2974.50           1549         122.00       508.29
   97.10        2974.75           1553          81.00       329.56
   97.13        2975.00           1556          66.00       264.17
   97.17        2975.25           1559          53.00       207.50
   97.20        2975.50           1563          60.00       238.01
   97.23        2975.75           1566          57.00       224.94
   97.26        2976.00           1569          57.00       224.94
   97.29        2976.25           1573          55.00       216.22
   97.32        2976.50           1576          52.00       203.14
   97.35        2976.75           1579          55.00       216.22
   97.38        2977.00           1583          57.00       224.94
   97.41        2977.25           1586          55.00       216.22
   97.44        2977.50           1590          60.00       238.01
   97.47        2977.75           1593          55.00       216.22
   97.50        2978.00           1596          53.00       207.50
   97.53        2978.25           1600          57.00       224.94
   97.57        2978.50           1603          48.00       185.70
   97.60        2978.75           1606          59.00       233.65
   97.63        2979.00           1610          50.00       194.42
   97.66        2979.25           1613          49.00       190.06
   97.69        2979.50           1616          58.00       229.30
   97.72        2979.75           1620          51.00       198.78
   97.75        2980.00           1623          52.00       203.14
   97.78        2980.25           1626          52.00       203.14
   97.81        2980.50           1630          54.00       211.86
   97.84        2980.75           1633          52.00       203.14
   97.87        2981.00           1637          57.00       224.94
   97.91        2981.25           1640          51.00       198.78
   97.94        2981.50           1643          58.00       229.30
   97.97        2981.75           1647          52.00       203.14
   98.00        2982.00           1650          55.00       216.22
   98.03        2982.25           1653          47.00       181.34
   98.06        2982.50           1657          55.00       216.22
   98.09        2982.75           1660          52.00       203.14
   98.12        2983.00           1663          47.00       181.34
   98.15        2983.25           1667          59.00       233.65
   98.18        2983.50           1670          57.00       224.94
   98.21        2983.75           1673          48.00       185.70
   98.24        2984.00           1677          51.00       198.78
HS scan finished at 01:38:27
end
************************************************************
  HS Scan of (1) Internal mercury lamp
************************************************************
Integration time is 0.2294 seconds per sample
dh090518Manchester 53.47 2.23 2.804185pr1000
************************************************************
Dead Time -------------------------  3E-08 
Number of Cycles Used -------------  4 
Starting Wavelength (Angstroms) ---  2950 
Final Wavelength (Angstoms) -------  2984 
Wavelength Increment (Angstroms) --  .25 
Filter Wheel #1 Position ---------- (1) Ground quartz diffuser (ND=2.32)
Filter Wheel #2 Position ---------- (1) Neutral Density 0.494



************************************************************
HS scan start time = 20:42:02
Dark Count =  6.1 


Time (GMT)  Wavelength (Ang)  Step Number  Raw Counts  Counts/Second

 1242.40        2950.00           1222          64.00       252.40
 1242.47        2950.25           1226          62.00       243.68
 1242.50        2950.50           1229          64.00       252.40
 1242.53        2950.75           1232          57.00       221.88
 1242.56        2951.00           1236          54.00       208.81
 1242.59        2951.25           1239          59.00       230.60
 1242.62        2951.50           1242          61.00       239.32
 1242.66        2951.75           1246          62.00       243.68
 1242.69        2952.00           1249          54.00       208.81
 1242.72        2952.25           1252          59.00       230.60
 1242.75        2952.50           1256          59.00       230.60
 1242.78        2952.75           1259          58.00       226.24
 1242.81        2953.00           1262          55.00       213.17
 1242.84        2953.25           1266          56.00       217.53
 1242.87        2953.50           1269          53.00       204.45
 1242.90        2953.75           1272          57.00       221.88
 1242.93        2954.00           1276          60.00       234.96
 1242.96        2954.25           1279          62.00       243.68
 1242.99        2954.50           1282          60.00       234.96
 1243.02        2954.75           1286          68.00       269.84
 1243.05        2955.00           1289          63.00       248.04
 1243.08        2955.25           1292          60.00       234.96
 1243.12        2955.50           1296          63.00       248.04
 1243.15        2955.75           1299          60.00       234.96
 1243.18        2956.00           1302          60.00       234.96
 1243.21        2956.25           1306          71.00       282.91
 1243.24        2956.50           1309          70.00       278.56
 1243.27        2956.75           1312          58.00       226.24
 1243.30        2957.00           1316          63.00       248.04
 1243.33        2957.25           1319          53.00       204.45
 1243.36        2957.50           1322          59.00       230.60
 1243.39        2957.75           1326          60.00       234.96
 1243.42        2958.00           1329          53.00       204.45
 1243.46        2958.25           1332          60.00       234.96
 1243.49        2958.50           1336          67.00       265.48
 1243.52        2958.75           1339          61.00       239.32
 1243.55        2959.00           1342          58.00       226.24
 1243.58        2959.25           1346          67.00       265.48
 1243.61        2959.50           1349          69.00       274.20
 1243.64        2959.75           1352          81.00       326.51
 1243.67        2960.00           1356         108.00       444.21
 1243.70        2960.25           1359         152.00       636.02
 1243.73        2960.50           1362         169.00       710.13
 1243.76        2960.75           1366         225.00       954.26
 1243.80        2961.00           1369         259.00      1102.48
 1243.83        2961.25           1372         310.00      1324.81
 1243.86        2961.50           1376         371.00      1590.75
 1243.89        2961.75           1379         546.00      2353.70
 1243.92        2962.00           1382        1190.00      5161.65
 1243.95        2962.25           1386        2925.00     12728.92
 1243.98        2962.50           1389        4413.00     19221.63
 1244.01        2962.75           1392        5766.00     25127.48
 1244.04        2963.00           1396        7638.00     33302.22
 1244.07        2963.25           1399        9073.00     39571.36
 1244.11        2963.50           1402       10486.00     45746.70
 1244.14        2963.75           1406       12620.00     55077.42
 1244.17        2964.00           1409       14181.00     61906.07
 1244.20        2964.25           1412       15496.00     67660.75
 1244.23        2964.50           1416       17444.00     76189.21
 1244.26        2964.75           1419       18848.00     82338.72
 1244.29        2965.00           1422       20321.00     88792.88
 1244.32        2965.25           1426       22487.00     98288.09
 1244.35        2965.50           1429       23993.00    104893.20
 1244.38        2965.75           1432       25469.00    111369.30
 1244.41        2966.00           1436       27447.00    120051.90
 1244.44        2966.25           1439       28665.00    125400.70
 1244.48        2966.50           1442       29980.00    131177.40
 1244.51        2966.75           1446       31387.00    137360.40
 1244.54        2967.00           1449       31780.00    139087.90
 1244.57        2967.25           1452       31530.00    137989.00
 1244.60        2967.50           1456       31702.00    138745.00
 1244.63        2967.75           1459       31532.00    137997.80
 1244.66        2968.00           1462       31587.00    138239.50
 1244.69        2968.25           1466       30444.00    133216.20
 1244.72        2968.50           1469       29274.00    128075.70
 1244.75        2968.75           1472       27764.00    121443.80
 1244.78        2969.00           1476       25889.00    113212.60
 1244.82        2969.25           1479       24147.00    105568.80
 1244.85        2969.50           1482       22946.00    100300.90
 1244.88        2969.75           1486       21154.00     92443.91
 1244.91        2970.00           1489       19614.00     85694.75
 1244.94        2970.25           1492       18327.00     80056.47
 1244.97        2970.50           1496       16639.00     72664.35
 1245.00        2970.75           1499       14962.00     65323.62
 1245.03        2971.00           1502       13365.00     58336.10
 1245.06        2971.25           1506       11313.00     49362.07
 1245.09        2971.50           1509        9745.00     42507.97
 1245.12        2971.75           1513        7937.00     34608.28
 1245.16        2972.00           1516        6458.00     28148.87
 1245.19        2972.25           1519        5090.00     22176.48
 1245.22        2972.50           1523        3078.00     13396.40
 1245.25        2972.75           1526        1777.00      7721.49
 1245.28        2973.00           1529         764.00      3304.16
 1245.31        2973.25           1533         369.00      1582.03
 1245.34        2973.50           1536         302.00      1289.94
 1245.37        2973.75           1539         246.00      1045.80
 1245.40        2974.00           1543         221.00       936.82
 1245.43        2974.25           1546         159.00       666.53
 1245.46        2974.50           1549         124.00       513.96
 1245.49        2974.75           1553          96.00       391.90
 1245.53        2975.00           1556          79.00       317.79
 1245.56        2975.25           1559          84.00       339.59
 1245.59        2975.50           1563          58.00       226.24
 1245.62        2975.75           1566          66.00       261.12
 1245.65        2976.00           1569          62.00       243.68
 1245.68        2976.25           1573          57.00       221.88
 1245.71        2976.50           1576          56.00       217.53
 1245.74        2976.75           1579          52.00       200.09
 1245.77        2977.00           1583          63.00       248.04
 1245.80        2977.25           1586          53.00       204.45
 1245.83        2977.50           1590          61.00       239.32
 1245.86        2977.75           1593          55.00       213.17
 1245.90        2978.00           1596          60.00       234.96
 1245.93        2978.25           1600          50.00       191.37
 1245.96        2978.50           1603          56.00       217.53
 1245.99        2978.75           1606          51.00       195.73
 1246.02        2979.00           1610          55.00       213.17
 1246.05        2979.25           1613          57.00       221.88
 1246.08        2979.50           1616          48.00       182.65
 1246.11        2979.75           1620          55.00       213.17
 1246.14        2980.00           1623          54.00       208.81
 1246.17        2980.25           1626          61.00       239.32
 1246.20        2980.50           1630          50.00       191.37
 1246.23        2980.75           1633          49.00       187.01
 1246.26        2981.00           1637          55.00       213.17
 1246.29        2981.25           1640          53.00       204.45
 1246.32        2981.50           1643          54.00       208.81
 1246.36        2981.75           1647          56.00       217.53
 1246.39        2982.00           1650          50.00       191.37
 1246.42        2982.25           1653          48.00       182.65
 1246.45        2982.50           1657          52.00       200.09
 1246.48        2982.75           1660          43.00       160.86
 1246.51        2983.00           1663          54.00       208.81
 1246.54        2983.25           1667          50.00       191.37
 1246.57        2983.50           1670          54.00       208.81
 1246.60        2983.75           1673          52.00       200.09
 1246.64        2984.00           1677          57.00       221.88
HS scan finished at 20:46:51
end
