************************************************************
  HS Scan of (1) Internal mercury lamp
************************************************************
Integration time is 0.2294 seconds per sample
dh030517Manchester 53.47 2.23 2.804185pr1000
************************************************************
Dead Time -------------------------  3E-08 
Number of Cycles Used -------------  4 
Starting Wavelength (Angstroms) ---  2950 
Final Wavelength (Angstoms) -------  2984 
Wavelength Increment (Angstroms) --  .25 
Filter Wheel #1 Position ---------- (1) Ground quartz diffuser (ND=2.32)
Filter Wheel #2 Position ---------- (1) Neutral Density 0.494



************************************************************
HS scan start time = 02:15:59
Dark Count =  6.7 


Time (GMT)  Wavelength (Ang)  Step Number  Raw Counts  Counts/Second

  136.35        2950.00           1222          57.00       219.27
  136.41        2950.25           1226          45.00       166.96
  136.44        2950.50           1229          45.00       166.96
  136.47        2950.75           1232          44.00       162.60
  136.51        2951.00           1236          48.00       180.04
  136.54        2951.25           1239          48.00       180.04
  136.57        2951.50           1242          49.00       184.40
  136.60        2951.75           1246          48.00       180.04
  136.63        2952.00           1249          50.00       188.75
  136.66        2952.25           1252          45.00       166.96
  136.69        2952.50           1256          50.00       188.75
  136.72        2952.75           1259          47.00       175.68
  136.75        2953.00           1262          43.00       158.24
  136.78        2953.25           1266          47.00       175.68
  136.81        2953.50           1269          47.00       175.68
  136.84        2953.75           1272          46.00       171.32
  136.87        2954.00           1276          45.00       166.96
  136.90        2954.25           1279          43.00       158.24
  136.94        2954.50           1282          47.00       175.68
  136.97        2954.75           1286          49.00       184.40
  137.00        2955.00           1289          52.00       197.47
  137.03        2955.25           1292          42.00       153.88
  137.06        2955.50           1296          46.00       171.32
  137.09        2955.75           1299          47.00       175.68
  137.12        2956.00           1302          43.00       158.24
  137.15        2956.25           1306          49.00       184.40
  137.18        2956.50           1309          55.00       210.55
  137.21        2956.75           1312          55.00       210.55
  137.24        2957.00           1316          44.00       162.60
  137.28        2957.25           1319          49.00       184.40
  137.31        2957.50           1322          45.00       166.96
  137.34        2957.75           1326          49.00       184.40
  137.37        2958.00           1329          45.00       166.96
  137.40        2958.25           1332          50.00       188.75
  137.43        2958.50           1336          52.00       197.47
  137.46        2958.75           1339          45.00       166.96
  137.49        2959.00           1342          56.00       214.91
  137.52        2959.25           1346          48.00       180.04
  137.55        2959.50           1349          54.00       206.19
  137.58        2959.75           1352          58.00       223.63
  137.61        2960.00           1356         101.00       411.08
  137.64        2960.25           1359         135.00       559.29
  137.67        2960.50           1362         167.00       698.79
  137.71        2960.75           1366         219.00       925.48
  137.74        2961.00           1369         263.00      1117.30
  137.77        2961.25           1372         316.00      1348.35
  137.80        2961.50           1376         402.00      1723.28
  137.83        2961.75           1379         581.00      2503.68
  137.86        2962.00           1382        1126.00      4879.97
  137.89        2962.25           1386        2727.00     11862.55
  137.92        2962.50           1389        4286.00     18664.76
  137.95        2962.75           1392        5729.00     24963.33
  137.99        2963.00           1396        7911.00     34492.08
  138.02        2963.25           1399        9609.00     41910.99
  138.05        2963.50           1402       11340.00     49477.49
  138.08        2963.75           1406       13795.00     60214.61
  138.11        2964.00           1409       15655.00     68354.07
  138.14        2964.25           1412       17405.00     76015.80
  138.17        2964.50           1416       19564.00     85473.04
  138.20        2964.75           1419       21170.00     92511.41
  138.23        2965.00           1422       23125.00    101083.30
  138.26        2965.25           1426       25501.00    111507.10
  138.29        2965.50           1429       27405.00    119864.90
  138.32        2965.75           1432       29049.00    127084.70
  138.36        2966.00           1436       31206.00    136562.30
  138.39        2966.25           1439       32658.00    142945.20
  138.42        2966.50           1442       34488.00    150993.20
  138.45        2966.75           1446       35967.00    157500.50
  138.48        2967.00           1449       36653.00    160519.60
  138.51        2967.25           1452       36594.00    160260.00
  138.54        2967.50           1456       36526.00    159960.60
  138.57        2967.75           1459       36715.00    160792.50
  138.60        2968.00           1462       36407.00    159436.90
  138.63        2968.25           1466       35495.00    155423.50
  138.66        2968.50           1469       34484.00    150975.60
  138.69        2968.75           1472       32708.00    143165.00
  138.73        2969.00           1476       30776.00    134672.50
  138.76        2969.25           1479       29048.00    127080.40
  138.79        2969.50           1482       27419.00    119926.40
  138.82        2969.75           1486       24936.00    109027.80
  138.85        2970.00           1489       23408.00    102324.50
  138.88        2970.25           1492       21770.00     95141.71
  138.91        2970.50           1496       19612.00     85683.36
  138.94        2970.75           1499       17795.00     77723.75
  138.97        2971.00           1502       16038.00     70030.58
  139.00        2971.25           1506       13940.00     60848.99
  139.04        2971.50           1509       12231.00     53373.54
  139.07        2971.75           1513       10054.00     43855.83
  139.10        2972.00           1516        8347.00     36396.74
  139.13        2972.25           1519        6852.00     29866.77
  139.16        2972.50           1523        4657.00     20283.92
  139.19        2972.75           1526        2981.00     12970.61
  139.22        2973.00           1529        1625.00      7055.98
  139.25        2973.25           1533         595.00      2564.71
  139.29        2973.50           1536         368.00      1575.05
  139.32        2973.75           1539         302.00      1287.32
  139.35        2974.00           1543         248.00      1051.91
  139.38        2974.25           1546         175.00       733.67
  139.41        2974.50           1549         129.00       533.14
  139.44        2974.75           1553          89.00       358.77
  139.47        2975.00           1556          68.00       267.22
  139.50        2975.25           1559          53.00       201.83
  139.53        2975.50           1563          49.00       184.40
  139.56        2975.75           1566          51.00       193.11
  139.59        2976.00           1569          49.00       184.40
  139.62        2976.25           1573          43.00       158.24
  139.65        2976.50           1576          48.00       180.04
  139.68        2976.75           1579          54.00       206.19
  139.71        2977.00           1583          45.00       166.96
  139.74        2977.25           1586          42.00       153.88
  139.77        2977.50           1590          46.00       171.32
  139.81        2977.75           1593          55.00       210.55
  139.84        2978.00           1596          49.00       184.40
  139.87        2978.25           1600          55.00       210.55
  139.90        2978.50           1603          53.00       201.83
  139.93        2978.75           1606          47.00       175.68
  139.96        2979.00           1610          44.00       162.60
  139.99        2979.25           1613          47.00       175.68
  140.02        2979.50           1616          51.00       193.11
  140.05        2979.75           1620          52.00       197.47
  140.08        2980.00           1623          44.00       162.60
  140.11        2980.25           1626          52.00       197.47
  140.15        2980.50           1630          50.00       188.75
  140.18        2980.75           1633          45.00       166.96
  140.21        2981.00           1637          40.00       145.16
  140.24        2981.25           1640          56.00       214.91
  140.27        2981.50           1643          42.00       153.88
  140.30        2981.75           1647          47.00       175.68
  140.33        2982.00           1650          48.00       180.04
  140.36        2982.25           1653          37.00       132.08
  140.39        2982.50           1657          50.00       188.75
  140.42        2982.75           1660          47.00       175.68
  140.45        2983.00           1663          48.00       180.04
  140.49        2983.25           1667          46.00       171.32
  140.52        2983.50           1670          50.00       188.75
  140.55        2983.75           1673          48.00       180.04
  140.58        2984.00           1677          52.00       197.47
HS scan finished at 02:20:48
end
************************************************************
  HS Scan of (1) Internal mercury lamp
************************************************************
Integration time is 0.2294 seconds per sample
dh030517Manchester 53.47 2.23 2.804185pr1000
************************************************************
Dead Time -------------------------  3E-08 
Number of Cycles Used -------------  4 
Starting Wavelength (Angstroms) ---  2950 
Final Wavelength (Angstoms) -------  2984 
Wavelength Increment (Angstroms) --  .25 
Filter Wheel #1 Position ---------- (1) Ground quartz diffuser (ND=2.32)
Filter Wheel #2 Position ---------- (1) Neutral Density 0.494



************************************************************
HS scan start time = 20:42:02
Dark Count =  5.6 


Time (GMT)  Wavelength (Ang)  Step Number  Raw Counts  Counts/Second

 1242.39        2950.00           1222          45.00       171.75
 1242.46        2950.25           1226          46.00       176.11
 1242.49        2950.50           1229          43.00       163.03
 1242.52        2950.75           1232          42.00       158.68
 1242.55        2951.00           1236          46.00       176.11
 1242.58        2951.25           1239          36.00       132.52
 1242.62        2951.50           1242          45.00       171.75
 1242.65        2951.75           1246          44.00       167.39
 1242.68        2952.00           1249          50.00       193.55
 1242.71        2952.25           1252          42.00       158.68
 1242.74        2952.50           1256          60.00       237.14
 1242.77        2952.75           1259          51.00       197.91
 1242.80        2953.00           1262          47.00       180.47
 1242.83        2953.25           1266          51.00       197.91
 1242.86        2953.50           1269          49.00       189.19
 1242.89        2953.75           1272          43.00       163.03
 1242.92        2954.00           1276          38.00       141.24
 1242.95        2954.25           1279          45.00       171.75
 1242.98        2954.50           1282          48.00       184.83
 1243.01        2954.75           1286          51.00       197.91
 1243.04        2955.00           1289          46.00       176.11
 1243.08        2955.25           1292          44.00       167.39
 1243.11        2955.50           1296          43.00       163.03
 1243.14        2955.75           1299          45.00       171.75
 1243.17        2956.00           1302          42.00       158.68
 1243.20        2956.25           1306          48.00       184.83
 1243.23        2956.50           1309          47.00       180.47
 1243.26        2956.75           1312          47.00       180.47
 1243.29        2957.00           1316          41.00       154.32
 1243.32        2957.25           1319          40.00       149.96
 1243.35        2957.50           1322          49.00       189.19
 1243.39        2957.75           1326          48.00       184.83
 1243.42        2958.00           1329          43.00       163.03
 1243.45        2958.25           1332          57.00       224.06
 1243.48        2958.50           1336          52.00       202.27
 1243.51        2958.75           1339          46.00       176.11
 1243.54        2959.00           1342          48.00       184.83
 1243.57        2959.25           1346          51.00       197.91
 1243.60        2959.50           1349          62.00       245.86
 1243.63        2959.75           1352          79.00       319.97
 1243.66        2960.00           1356         116.00       481.26
 1243.69        2960.25           1359         151.00       633.84
 1243.73        2960.50           1362         183.00       773.34
 1243.76        2960.75           1366         235.00      1000.03
 1243.79        2961.00           1369         298.00      1274.68
 1243.82        2961.25           1372         324.00      1388.03
 1243.85        2961.50           1376         426.00      1832.71
 1243.88        2961.75           1379         662.00      2861.62
 1243.91        2962.00           1382        1322.00      5739.44
 1243.94        2962.25           1386        3057.00     13306.97
 1243.97        2962.50           1389        4751.00     20698.99
 1244.00        2962.75           1392        6392.00     27862.86
 1244.03        2963.00           1396        8555.00     37310.27
 1244.06        2963.25           1399       10122.00     44157.85
 1244.09        2963.50           1402       11855.00     51734.11
 1244.13        2963.75           1406       14272.00     62306.42
 1244.16        2964.00           1409       15901.00     69435.68
 1244.19        2964.25           1412       17640.00     77049.75
 1244.22        2964.50           1416       19821.00     86603.98
 1244.25        2964.75           1419       21518.00     94041.76
 1244.28        2965.00           1422       23013.00    100596.90
 1244.31        2965.25           1426       25330.00    110761.50
 1244.34        2965.50           1429       27062.00    118363.80
 1244.38        2965.75           1432       28785.00    125930.00
 1244.41        2966.00           1436       31339.00    137151.70
 1244.44        2966.25           1439       32991.00    144414.20
 1244.47        2966.50           1442       34345.00    150369.00
 1244.50        2966.75           1446       36083.00    158015.80
 1244.53        2967.00           1449       36433.00    159556.20
 1244.56        2967.25           1452       36416.00    159481.40
 1244.59        2967.50           1456       36436.00    159569.40
 1244.62        2967.75           1459       36583.00    160216.40
 1244.65        2968.00           1462       36154.00    158328.30
 1244.69        2968.25           1466       35182.00    154051.20
 1244.72        2968.50           1469       33912.00    148464.50
 1244.75        2968.75           1472       32411.00    141864.00
 1244.78        2969.00           1476       30053.00    131500.30
 1244.81        2969.25           1479       28391.00    124199.50
 1244.84        2969.50           1482       26628.00    116458.50
 1244.87        2969.75           1486       24240.00    105979.00
 1244.90        2970.00           1489       22702.00     99233.08
 1244.93        2970.25           1492       20988.00     91718.46
 1244.96        2970.50           1496       18836.00     82288.34
 1245.00        2970.75           1499       17378.00     75902.37
 1245.03        2971.00           1502       15565.00     67964.94
 1245.06        2971.25           1506       13527.00     59046.97
 1245.09        2971.50           1509       11642.00     50802.75
 1245.12        2971.75           1513        9427.00     41120.45
 1245.15        2972.00           1516        7717.00     33649.47
 1245.18        2972.25           1519        6094.00     26561.70
 1245.21        2972.50           1523        3852.00     16775.66
 1245.24        2972.75           1526        2290.00      9961.13
 1245.27        2973.00           1529        1051.00      4557.73
 1245.30        2973.25           1533         412.00      1771.67
 1245.33        2973.50           1536         310.00      1326.99
 1245.37        2973.75           1539         262.00      1117.74
 1245.40        2974.00           1543         203.00       860.53
 1245.43        2974.25           1546         143.00       598.96
 1245.46        2974.50           1549         119.00       494.34
 1245.49        2974.75           1553          75.00       302.53
 1245.52        2975.00           1556          57.00       224.06
 1245.55        2975.25           1559          51.00       197.91
 1245.58        2975.50           1563          44.00       167.39
 1245.61        2975.75           1566          65.00       258.94
 1245.64        2976.00           1569          45.00       171.75
 1245.68        2976.25           1573          54.00       210.99
 1245.71        2976.50           1576          44.00       167.39
 1245.74        2976.75           1579          58.00       228.42
 1245.77        2977.00           1583          57.00       224.06
 1245.80        2977.25           1586          48.00       184.83
 1245.83        2977.50           1590          46.00       176.11
 1245.86        2977.75           1593          51.00       197.91
 1245.89        2978.00           1596          46.00       176.11
 1245.92        2978.25           1600          49.00       189.19
 1245.95        2978.50           1603          43.00       163.03
 1245.98        2978.75           1606          47.00       180.47
 1246.01        2979.00           1610          49.00       189.19
 1246.04        2979.25           1613          50.00       193.55
 1246.07        2979.50           1616          49.00       189.19
 1246.11        2979.75           1620          46.00       176.11
 1246.14        2980.00           1623          43.00       163.03
 1246.17        2980.25           1626          51.00       197.91
 1246.20        2980.50           1630          50.00       193.55
 1246.23        2980.75           1633          41.00       154.32
 1246.26        2981.00           1637          38.00       141.24
 1246.29        2981.25           1640          39.00       145.60
 1246.32        2981.50           1643          50.00       193.55
 1246.35        2981.75           1647          46.00       176.11
 1246.38        2982.00           1650          46.00       176.11
 1246.41        2982.25           1653          46.00       176.11
 1246.45        2982.50           1657          48.00       184.83
 1246.48        2982.75           1660          44.00       167.39
 1246.51        2983.00           1663          45.00       171.75
 1246.54        2983.25           1667          45.00       171.75
 1246.57        2983.50           1670          49.00       189.19
 1246.60        2983.75           1673          44.00       167.39
 1246.63        2984.00           1677          42.00       158.68
HS scan finished at 20:46:51
end
