************************************************************
  HS Scan of (1) Internal mercury lamp
************************************************************
Integration time is 0.2294 seconds per sample
dh300417Manchester 53.47 2.23 2.804185pr1000
************************************************************
Dead Time -------------------------  3E-08 
Number of Cycles Used -------------  4 
Starting Wavelength (Angstroms) ---  2950 
Final Wavelength (Angstoms) -------  2984 
Wavelength Increment (Angstroms) --  .25 
Filter Wheel #1 Position ---------- (1) Ground quartz diffuser (ND=2.32)
Filter Wheel #2 Position ---------- (1) Neutral Density 0.494



************************************************************
HS scan start time = 01:38:18
Dark Count =  6.7 


Time (GMT)  Wavelength (Ang)  Step Number  Raw Counts  Counts/Second

   98.66        2950.00           1222          41.00       149.52
   98.73        2950.25           1226          47.00       175.68
   98.76        2950.50           1229          39.00       140.80
   98.79        2950.75           1232          43.00       158.24
   98.82        2951.00           1236          51.00       193.11
   98.85        2951.25           1239          46.00       171.32
   98.88        2951.50           1242          46.00       171.32
   98.91        2951.75           1246          48.00       180.04
   98.95        2952.00           1249          48.00       180.04
   98.98        2952.25           1252          43.00       158.24
   99.01        2952.50           1256          53.00       201.83
   99.04        2952.75           1259          45.00       166.96
   99.07        2953.00           1262          39.00       140.80
   99.10        2953.25           1266          55.00       210.55
   99.13        2953.50           1269          52.00       197.47
   99.16        2953.75           1272          42.00       153.88
   99.19        2954.00           1276          43.00       158.24
   99.22        2954.25           1279          50.00       188.75
   99.25        2954.50           1282          42.00       153.88
   99.28        2954.75           1286          44.00       162.60
   99.32        2955.00           1289          43.00       158.24
   99.35        2955.25           1292          44.00       162.60
   99.38        2955.50           1296          51.00       193.11
   99.41        2955.75           1299          47.00       175.68
   99.44        2956.00           1302          50.00       188.75
   99.47        2956.25           1306          46.00       171.32
   99.50        2956.50           1309          44.00       162.60
   99.53        2956.75           1312          47.00       175.68
   99.56        2957.00           1316          46.00       171.32
   99.59        2957.25           1319          48.00       180.04
   99.62        2957.50           1322          44.00       162.60
   99.66        2957.75           1326          51.00       193.11
   99.69        2958.00           1329          52.00       197.47
   99.72        2958.25           1332          49.00       184.40
   99.75        2958.50           1336          48.00       180.04
   99.78        2958.75           1339          45.00       166.96
   99.81        2959.00           1342          45.00       166.96
   99.84        2959.25           1346          53.00       201.83
   99.87        2959.50           1349          53.00       201.83
   99.90        2959.75           1352          68.00       267.22
   99.93        2960.00           1356          97.00       393.64
   99.96        2960.25           1359         121.00       498.26
   99.99        2960.50           1362         162.00       677.00
  100.02        2960.75           1366         202.00       851.37
  100.05        2961.00           1369         268.00      1139.10
  100.08        2961.25           1372         299.00      1274.24
  100.11        2961.50           1376         403.00      1727.64
  100.15        2961.75           1379         637.00      2747.83
  100.18        2962.00           1382        1303.00      5651.79
  100.21        2962.25           1386        3105.00     13511.58
  100.24        2962.50           1389        4712.00     20523.97
  100.27        2962.75           1392        6365.00     27740.17
  100.30        2963.00           1396        8635.00     37654.99
  100.33        2963.25           1399       10428.00     45490.55
  100.36        2963.50           1402       12138.00     52966.84
  100.39        2963.75           1406       14308.00     62459.13
  100.42        2964.00           1409       16115.00     70367.66
  100.45        2964.25           1412       17772.00     77623.01
  100.48        2964.50           1416       20211.00     88308.19
  100.51        2964.75           1419       21859.00     95531.91
  100.55        2965.00           1422       23551.00    102951.80
  100.58        2965.25           1426       25904.00    113275.70
  100.61        2965.50           1429       27664.00    121002.10
  100.64        2965.75           1432       29190.00    127704.10
  100.67        2966.00           1436       31762.00    139006.10
  100.70        2966.25           1439       33199.00    145324.00
  100.73        2966.50           1442       34665.00    151771.90
  100.76        2966.75           1446       36237.00    158688.70
  100.79        2967.00           1449       36586.00    160224.70
  100.83        2967.25           1452       36715.00    160792.50
  100.86        2967.50           1456       36686.00    160664.90
  100.89        2967.75           1459       36770.00    161034.60
  100.92        2968.00           1462       36416.00    159476.50
  100.95        2968.25           1466       35512.00    155498.40
  100.98        2968.50           1469       34056.00    149093.00
  101.01        2968.75           1472       32437.00    141973.50
  101.04        2969.00           1476       30230.00    132273.20
  101.07        2969.25           1479       28432.00    124374.70
  101.11        2969.50           1482       26822.00    117305.30
  101.14        2969.75           1486       24620.00    107641.30
  101.17        2970.00           1489       22778.00     99561.54
  101.20        2970.25           1492       21234.00     92791.96
  101.23        2970.50           1496       19160.00     83702.96
  101.26        2970.75           1499       17561.00     76698.96
  101.29        2971.00           1502       16004.00     69881.75
  101.32        2971.25           1506       13691.00     59759.61
  101.35        2971.50           1509       12045.00     52560.15
  101.39        2971.75           1513        9542.00     41618.19
  101.42        2972.00           1516        7925.00     34553.24
  101.45        2972.25           1519        6189.00     26971.68
  101.48        2972.50           1523        4074.00     17739.61
  101.51        2972.75           1526        2623.00     11408.87
  101.54        2973.00           1529        1276.00      5534.05
  101.57        2973.25           1533         542.00      2333.64
  101.60        2973.50           1536         348.00      1487.86
  101.63        2973.75           1539         311.00      1326.56
  101.66        2974.00           1543         236.00       999.59
  101.69        2974.25           1546         178.00       746.75
  101.72        2974.50           1549         139.00       576.73
  101.75        2974.75           1553          87.00       350.05
  101.78        2975.00           1556          67.00       262.86
  101.81        2975.25           1559          56.00       214.91
  101.85        2975.50           1563          46.00       171.32
  101.88        2975.75           1566          49.00       184.40
  101.91        2976.00           1569          48.00       180.04
  101.94        2976.25           1573          51.00       193.11
  101.97        2976.50           1576          46.00       171.32
  102.00        2976.75           1579          44.00       162.60
  102.03        2977.00           1583          48.00       180.04
  102.06        2977.25           1586          51.00       193.11
  102.09        2977.50           1590          51.00       193.11
  102.12        2977.75           1593          46.00       171.32
  102.15        2978.00           1596          44.00       162.60
  102.18        2978.25           1600          49.00       184.40
  102.22        2978.50           1603          44.00       162.60
  102.25        2978.75           1606          52.00       197.47
  102.28        2979.00           1610          40.00       145.16
  102.31        2979.25           1613          50.00       188.75
  102.34        2979.50           1616          42.00       153.88
  102.37        2979.75           1620          51.00       193.11
  102.40        2980.00           1623          47.00       175.68
  102.43        2980.25           1626          45.00       166.96
  102.46        2980.50           1630          44.00       162.60
  102.49        2980.75           1633          51.00       193.11
  102.52        2981.00           1637          49.00       184.40
  102.56        2981.25           1640          45.00       166.96
  102.59        2981.50           1643          40.00       145.16
  102.62        2981.75           1647          39.00       140.80
  102.65        2982.00           1650          41.00       149.52
  102.68        2982.25           1653          45.00       166.96
  102.71        2982.50           1657          52.00       197.47
  102.74        2982.75           1660          47.00       175.68
  102.77        2983.00           1663          49.00       184.40
  102.80        2983.25           1667          44.00       162.60
  102.83        2983.50           1670          47.00       175.68
  102.86        2983.75           1673          41.00       149.52
  102.90        2984.00           1677          42.00       153.88
HS scan finished at 01:43:07
end
************************************************************
  HS Scan of (1) Internal mercury lamp
************************************************************
Integration time is 0.2294 seconds per sample
dh300417Manchester 53.47 2.23 2.804185pr1000
************************************************************
Dead Time -------------------------  3E-08 
Number of Cycles Used -------------  4 
Starting Wavelength (Angstroms) ---  2950 
Final Wavelength (Angstoms) -------  2984 
Wavelength Increment (Angstroms) --  .25 
Filter Wheel #1 Position ---------- (1) Ground quartz diffuser (ND=2.32)
Filter Wheel #2 Position ---------- (1) Neutral Density 0.494



************************************************************
HS scan start time = 20:42:02
Dark Count =  7.1 


Time (GMT)  Wavelength (Ang)  Step Number  Raw Counts  Counts/Second

 1242.41        2950.00           1222          47.00       173.93
 1242.48        2950.25           1226          45.00       165.21
 1242.51        2950.50           1229          47.00       173.93
 1242.54        2950.75           1232          45.00       165.21
 1242.57        2951.00           1236          43.00       156.50
 1242.60        2951.25           1239          43.00       156.50
 1242.63        2951.50           1242          53.00       200.09
 1242.66        2951.75           1246          49.00       182.65
 1242.69        2952.00           1249          51.00       191.37
 1242.72        2952.25           1252          51.00       191.37
 1242.76        2952.50           1256          42.00       152.14
 1242.79        2952.75           1259          40.00       143.42
 1242.82        2953.00           1262          44.00       160.86
 1242.85        2953.25           1266          52.00       195.73
 1242.88        2953.50           1269          41.00       147.78
 1242.91        2953.75           1272          50.00       187.01
 1242.94        2954.00           1276          47.00       173.93
 1242.97        2954.25           1279          49.00       182.65
 1243.00        2954.50           1282          41.00       147.78
 1243.03        2954.75           1286          49.00       182.65
 1243.07        2955.00           1289          51.00       191.37
 1243.10        2955.25           1292          50.00       187.01
 1243.13        2955.50           1296          39.00       139.06
 1243.16        2955.75           1299          49.00       182.65
 1243.19        2956.00           1302          50.00       187.01
 1243.22        2956.25           1306          43.00       156.50
 1243.25        2956.50           1309          53.00       200.09
 1243.28        2956.75           1312          42.00       152.14
 1243.32        2957.00           1316          53.00       200.09
 1243.35        2957.25           1319          50.00       187.01
 1243.38        2957.50           1322          41.00       147.78
 1243.41        2957.75           1326          47.00       173.93
 1243.44        2958.00           1329          48.00       178.29
 1243.47        2958.25           1332          46.00       169.57
 1243.50        2958.50           1336          44.00       160.86
 1243.53        2958.75           1339          42.00       152.14
 1243.56        2959.00           1342          58.00       221.88
 1243.59        2959.25           1346          55.00       208.81
 1243.62        2959.50           1349          55.00       208.81
 1243.66        2959.75           1352          63.00       243.68
 1243.69        2960.00           1356         101.00       409.33
 1243.72        2960.25           1359         132.00       544.47
 1243.75        2960.50           1362         185.00       775.52
 1243.78        2960.75           1366         243.00      1028.37
 1243.81        2961.00           1369         298.00      1268.14
 1243.84        2961.25           1372         317.00      1350.97
 1243.87        2961.50           1376         413.00      1769.49
 1243.90        2961.75           1379         692.00      2985.88
 1243.93        2962.00           1382        1375.00      5964.01
 1243.96        2962.25           1386        3078.00     13392.04
 1244.00        2962.50           1389        4788.00     20853.93
 1244.03        2962.75           1392        6482.00     28249.30
 1244.06        2963.00           1396        8682.00     37858.58
 1244.09        2963.25           1399       10361.00     45195.95
 1244.12        2963.50           1402       12078.00     52702.71
 1244.15        2963.75           1406       14293.00     62391.74
 1244.18        2964.00           1409       16074.00     70186.43
 1244.21        2964.25           1412       17923.00     78282.60
 1244.24        2964.50           1416       20224.00     88363.41
 1244.27        2964.75           1419       21882.00     95630.99
 1244.30        2965.00           1422       23386.00    102226.30
 1244.34        2965.25           1426       25642.00    112124.10
 1244.37        2965.50           1429       27544.00    120473.40
 1244.40        2965.75           1432       29451.00    128848.90
 1244.43        2966.00           1436       31641.00    138472.50
 1244.46        2966.25           1439       33166.00    145177.10
 1244.49        2966.50           1442       34762.00    152196.80
 1244.52        2966.75           1446       36244.00    158717.80
 1244.55        2967.00           1449       36694.00    160698.30
 1244.58        2967.25           1452       36889.00    161556.60
 1244.61        2967.50           1456       36745.00    160922.80
 1244.65        2967.75           1459       36829.00    161292.50
 1244.68        2968.00           1462       36649.00    160500.30
 1244.71        2968.25           1466       35569.00    155747.40
 1244.74        2968.50           1469       33969.00    148708.60
 1244.77        2968.75           1472       32480.00    142160.80
 1244.80        2969.00           1476       30452.00    133246.90
 1244.83        2969.25           1479       28692.00    125514.90
 1244.86        2969.50           1482       26878.00    117549.40
 1244.89        2969.75           1486       24829.00    108556.50
 1244.92        2970.00           1489       23064.00    100814.00
 1244.96        2970.25           1492       21271.00     92952.40
 1244.99        2970.50           1496       19214.00     83937.78
 1245.02        2970.75           1499       17380.00     75904.56
 1245.05        2971.00           1502       15894.00     69398.49
 1245.08        2971.25           1506       13659.00     59617.87
 1245.11        2971.50           1509       11806.00     51513.29
 1245.14        2971.75           1513        9463.00     41271.21
 1245.17        2972.00           1516        7838.00     34171.45
 1245.20        2972.25           1519        6156.00     26825.85
 1245.23        2972.50           1523        4125.00     17960.41
 1245.27        2972.75           1526        2587.00     11250.09
 1245.30        2973.00           1529        1250.00      5418.93
 1245.33        2973.25           1533         496.00      2131.35
 1245.36        2973.50           1536         351.00      1499.20
 1245.39        2973.75           1539         299.00      1272.50
 1245.42        2974.00           1543         243.00      1028.37
 1245.45        2974.25           1546         185.00       775.52
 1245.48        2974.50           1549         139.00       574.99
 1245.51        2974.75           1553          97.00       391.90
 1245.54        2975.00           1556          73.00       287.27
 1245.58        2975.25           1559          59.00       226.24
 1245.61        2975.50           1563          47.00       173.93
 1245.64        2975.75           1566          50.00       187.01
 1245.67        2976.00           1569          45.00       165.21
 1245.70        2976.25           1573          45.00       165.21
 1245.73        2976.50           1576          49.00       182.65
 1245.76        2976.75           1579          45.00       165.21
 1245.79        2977.00           1583          47.00       173.93
 1245.82        2977.25           1586          49.00       182.65
 1245.85        2977.50           1590          45.00       165.21
 1245.88        2977.75           1593          40.00       143.42
 1245.91        2978.00           1596          44.00       160.86
 1245.94        2978.25           1600          51.00       191.37
 1245.97        2978.50           1603          47.00       173.93
 1246.00        2978.75           1606          49.00       182.65
 1246.04        2979.00           1610          50.00       187.01
 1246.07        2979.25           1613          46.00       169.57
 1246.10        2979.50           1616          54.00       204.45
 1246.13        2979.75           1620          45.00       165.21
 1246.16        2980.00           1623          42.00       152.14
 1246.19        2980.25           1626          41.00       147.78
 1246.22        2980.50           1630          46.00       169.57
 1246.25        2980.75           1633          39.00       139.06
 1246.28        2981.00           1637          47.00       173.93
 1246.31        2981.25           1640          49.00       182.65
 1246.34        2981.50           1643          52.00       195.73
 1246.37        2981.75           1647          55.00       208.81
 1246.40        2982.00           1650          44.00       160.86
 1246.43        2982.25           1653          47.00       173.93
 1246.46        2982.50           1657          42.00       152.14
 1246.50        2982.75           1660          53.00       200.09
 1246.53        2983.00           1663          47.00       173.93
 1246.56        2983.25           1667          40.00       143.42
 1246.59        2983.50           1670          43.00       156.50
 1246.62        2983.75           1673          37.00       130.34
 1246.65        2984.00           1677          43.00       156.50
HS scan finished at 20:46:52
end
