************************************************************
  HS Scan of (1) Internal mercury lamp
************************************************************
Integration time is 0.2294 seconds per sample
dh040517Manchester 53.47 2.23 2.804185pr1000
************************************************************
Dead Time -------------------------  3E-08 
Number of Cycles Used -------------  4 
Starting Wavelength (Angstroms) ---  2950 
Final Wavelength (Angstoms) -------  2984 
Wavelength Increment (Angstroms) --  .25 
Filter Wheel #1 Position ---------- (1) Ground quartz diffuser (ND=2.32)
Filter Wheel #2 Position ---------- (1) Neutral Density 0.494



************************************************************
HS scan start time = 01:29:33
Dark Count =  6.3 


Time (GMT)  Wavelength (Ang)  Step Number  Raw Counts  Counts/Second

   89.92        2950.00           1222          52.00       199.22
   89.99        2950.25           1226          40.00       146.91
   90.02        2950.50           1229          50.00       190.50
   90.05        2950.75           1232          53.00       203.58
   90.08        2951.00           1236          48.00       181.78
   90.11        2951.25           1239          52.00       199.22
   90.14        2951.50           1242          45.00       168.70
   90.17        2951.75           1246          44.00       164.34
   90.20        2952.00           1249          43.00       159.98
   90.23        2952.25           1252          51.00       194.86
   90.27        2952.50           1256          41.00       151.26
   90.30        2952.75           1259          45.00       168.70
   90.33        2953.00           1262          46.00       173.06
   90.36        2953.25           1266          43.00       159.98
   90.39        2953.50           1269          49.00       186.14
   90.42        2953.75           1272          46.00       173.06
   90.45        2954.00           1276          52.00       199.22
   90.48        2954.25           1279          48.00       181.78
   90.51        2954.50           1282          46.00       173.06
   90.54        2954.75           1286          51.00       194.86
   90.57        2955.00           1289          43.00       159.98
   90.61        2955.25           1292          52.00       199.22
   90.64        2955.50           1296          52.00       199.22
   90.67        2955.75           1299          46.00       173.06
   90.70        2956.00           1302          50.00       190.50
   90.73        2956.25           1306          45.00       168.70
   90.76        2956.50           1309          37.00       133.83
   90.79        2956.75           1312          42.00       155.62
   90.82        2957.00           1316          44.00       164.34
   90.85        2957.25           1319          45.00       168.70
   90.89        2957.50           1322          50.00       190.50
   90.92        2957.75           1326          52.00       199.22
   90.95        2958.00           1329          44.00       164.34
   90.98        2958.25           1332          47.00       177.42
   91.01        2958.50           1336          42.00       155.62
   91.04        2958.75           1339          48.00       181.78
   91.07        2959.00           1342          51.00       194.86
   91.10        2959.25           1346          47.00       177.42
   91.13        2959.50           1349          58.00       225.37
   91.16        2959.75           1352          67.00       264.61
   91.19        2960.00           1356          98.00       399.74
   91.22        2960.25           1359         129.00       534.88
   91.26        2960.50           1362         180.00       757.21
   91.29        2960.75           1366         238.00      1010.06
   91.32        2961.00           1369         263.00      1119.04
   91.35        2961.25           1372         329.00      1406.77
   91.38        2961.50           1376         396.00      1698.87
   91.41        2961.75           1379         554.00      2387.70
   91.44        2962.00           1382        1119.00      4851.19
   91.47        2962.25           1386        2818.00     12261.27
   91.50        2962.50           1389        4341.00     18906.54
   91.53        2962.75           1392        5835.00     25427.85
   91.56        2963.00           1396        8070.00     35188.39
   91.60        2963.25           1399        9582.00     41794.75
   91.63        2963.50           1402       11182.00     48788.45
   91.66        2963.75           1406       13640.00     59538.25
   91.69        2964.00           1409       15207.00     66394.97
   91.72        2964.25           1412       17101.00     74686.34
   91.75        2964.50           1416       19358.00     84572.19
   91.78        2964.75           1419       21002.00     91776.75
   91.81        2965.00           1422       23061.00    100804.40
   91.85        2965.25           1426       25098.00    109740.40
   91.88        2965.50           1429       26863.00    117487.00
   91.91        2965.75           1432       28583.00    125039.70
   91.94        2966.00           1436       30798.00    134770.90
   91.97        2966.25           1439       32482.00    142173.10
   92.00        2966.50           1442       33822.00    148065.60
   92.03        2966.75           1446       35408.00    155042.50
   92.06        2967.00           1449       36517.00    159922.80
   92.09        2967.25           1452       36601.00    160292.50
   92.12        2967.50           1456       36599.00    160283.70
   92.16        2967.75           1459       36651.00    160512.60
   92.19        2968.00           1462       36393.00    159377.10
   92.22        2968.25           1466       35599.00    155882.90
   92.25        2968.50           1469       34423.00    150709.10
   92.28        2968.75           1472       32834.00    143720.80
   92.31        2969.00           1476       30541.00    133641.50
   92.34        2969.25           1479       29104.00    127328.10
   92.37        2969.50           1482       27228.00    119089.50
   92.40        2969.75           1486       25033.00    109455.20
   92.44        2970.00           1489       23552.00    102957.90
   92.47        2970.25           1492       21794.00     95248.68
   92.50        2970.50           1496       19602.00     85641.28
   92.53        2970.75           1499       17647.00     77077.33
   92.56        2971.00           1502       16078.00     70207.45
   92.59        2971.25           1506       13872.00     60553.24
   92.62        2971.50           1509       12046.00     52566.27
   92.65        2971.75           1513        9788.00     42695.02
   92.68        2972.00           1516        8102.00     35328.18
   92.72        2972.25           1519        6487.00     28274.63
   92.75        2972.50           1523        4331.00     18862.90
   92.78        2972.75           1526        2737.00     11907.92
   92.81        2973.00           1529        1424.00      6181.18
   92.84        2973.25           1533         518.00      2230.75
   92.87        2973.50           1536         330.00      1411.13
   92.90        2973.75           1539         260.00      1105.97
   92.93        2974.00           1543         215.00       909.79
   92.96        2974.25           1546         164.00       687.46
   92.99        2974.50           1549         137.00       569.76
   93.02        2974.75           1553          91.00       369.23
   93.05        2975.00           1556          63.00       247.17
   93.09        2975.25           1559          54.00       207.94
   93.12        2975.50           1563          53.00       203.58
   93.15        2975.75           1566          48.00       181.78
   93.18        2976.00           1569          50.00       190.50
   93.21        2976.25           1573          51.00       194.86
   93.24        2976.50           1576          43.00       159.98
   93.27        2976.75           1579          40.00       146.91
   93.30        2977.00           1583          49.00       186.14
   93.33        2977.25           1586          39.00       142.55
   93.36        2977.50           1590          43.00       159.98
   93.39        2977.75           1593          58.00       225.37
   93.42        2978.00           1596          56.00       216.65
   93.45        2978.25           1600          49.00       186.14
   93.48        2978.50           1603          38.00       138.19
   93.52        2978.75           1606          41.00       151.26
   93.55        2979.00           1610          53.00       203.58
   93.58        2979.25           1613          39.00       142.55
   93.61        2979.50           1616          50.00       190.50
   93.64        2979.75           1620          40.00       146.91
   93.67        2980.00           1623          44.00       164.34
   93.70        2980.25           1626          46.00       173.06
   93.73        2980.50           1630          47.00       177.42
   93.76        2980.75           1633          41.00       151.26
   93.79        2981.00           1637          41.00       151.26
   93.83        2981.25           1640          42.00       155.62
   93.86        2981.50           1643          52.00       199.22
   93.89        2981.75           1647          46.00       173.06
   93.92        2982.00           1650          43.00       159.98
   93.95        2982.25           1653          38.00       138.19
   93.98        2982.50           1657          40.00       146.91
   94.01        2982.75           1660          39.00       142.55
   94.04        2983.00           1663          51.00       194.86
   94.07        2983.25           1667          45.00       168.70
   94.10        2983.50           1670          45.00       168.70
   94.13        2983.75           1673          48.00       181.78
   94.16        2984.00           1677          43.00       159.98
HS scan finished at 01:34:23
end
************************************************************
  HS Scan of (1) Internal mercury lamp
************************************************************
Integration time is 0.2294 seconds per sample
dh040517Manchester 53.47 2.23 2.804185pr1000
************************************************************
Dead Time -------------------------  3E-08 
Number of Cycles Used -------------  4 
Starting Wavelength (Angstroms) ---  2950 
Final Wavelength (Angstoms) -------  2984 
Wavelength Increment (Angstroms) --  .25 
Filter Wheel #1 Position ---------- (1) Ground quartz diffuser (ND=2.32)
Filter Wheel #2 Position ---------- (1) Neutral Density 0.494



************************************************************
HS scan start time = 20:42:01
Dark Count =  7.1 


Time (GMT)  Wavelength (Ang)  Step Number  Raw Counts  Counts/Second

 1242.39        2950.00           1222          47.00       173.93
 1242.46        2950.25           1226          47.00       173.93
 1242.49        2950.50           1229          49.00       182.65
 1242.52        2950.75           1232          44.00       160.86
 1242.55        2951.00           1236          43.00       156.50
 1242.58        2951.25           1239          45.00       165.21
 1242.61        2951.50           1242          49.00       182.65
 1242.64        2951.75           1246          42.00       152.14
 1242.67        2952.00           1249          45.00       165.21
 1242.70        2952.25           1252          47.00       173.93
 1242.74        2952.50           1256          50.00       187.01
 1242.77        2952.75           1259          42.00       152.14
 1242.80        2953.00           1262          54.00       204.45
 1242.83        2953.25           1266          41.00       147.78
 1242.86        2953.50           1269          47.00       173.93
 1242.89        2953.75           1272          53.00       200.09
 1242.92        2954.00           1276          47.00       173.93
 1242.95        2954.25           1279          43.00       156.50
 1242.98        2954.50           1282          43.00       156.50
 1243.01        2954.75           1286          39.00       139.06
 1243.04        2955.00           1289          40.00       143.42
 1243.07        2955.25           1292          48.00       178.29
 1243.10        2955.50           1296          50.00       187.01
 1243.14        2955.75           1299          47.00       173.93
 1243.17        2956.00           1302          48.00       178.29
 1243.20        2956.25           1306          43.00       156.50
 1243.23        2956.50           1309          47.00       173.93
 1243.26        2956.75           1312          44.00       160.86
 1243.29        2957.00           1316          46.00       169.57
 1243.32        2957.25           1319          42.00       152.14
 1243.35        2957.50           1322          53.00       200.09
 1243.38        2957.75           1326          48.00       178.29
 1243.41        2958.00           1329          45.00       165.21
 1243.44        2958.25           1332          46.00       169.57
 1243.47        2958.50           1336          46.00       169.57
 1243.50        2958.75           1339          54.00       204.45
 1243.54        2959.00           1342          47.00       173.93
 1243.57        2959.25           1346          45.00       165.21
 1243.60        2959.50           1349          60.00       230.60
 1243.63        2959.75           1352          72.00       282.91
 1243.66        2960.00           1356         113.00       461.65
 1243.69        2960.25           1359         148.00       614.22
 1243.72        2960.50           1362         188.00       788.60
 1243.75        2960.75           1366         238.00      1006.57
 1243.78        2961.00           1369         288.00      1224.54
 1243.81        2961.25           1372         328.00      1398.93
 1243.84        2961.50           1376         416.00      1782.57
 1243.88        2961.75           1379         589.00      2536.81
 1243.91        2962.00           1382        1134.00      4913.10
 1243.94        2962.25           1386        2853.00     12410.46
 1243.97        2962.50           1389        4430.00     19291.46
 1244.00        2962.75           1392        5894.00     25681.94
 1244.03        2963.00           1396        8170.00     35621.74
 1244.06        2963.25           1399        9661.00     42136.49
 1244.09        2963.50           1402       11439.00     49908.59
 1244.12        2963.75           1406       13719.00     59880.37
 1244.15        2964.00           1409       15198.00     66352.09
 1244.18        2964.25           1412       17062.00     74512.06
 1244.21        2964.50           1416       19313.00     84371.53
 1244.25        2964.75           1419       20928.00     91448.88
 1244.28        2965.00           1422       22702.00     99226.49
 1244.31        2965.25           1426       24841.00    108609.20
 1244.34        2965.50           1429       26668.00    116627.50
 1244.37        2965.75           1432       28441.00    124412.50
 1244.40        2966.00           1436       30788.00    134723.50
 1244.43        2966.25           1439       32095.00    140468.20
 1244.46        2966.50           1442       33558.00    146901.00
 1244.49        2966.75           1446       35542.00    155628.60
 1244.52        2967.00           1449       36192.00    158488.90
 1244.55        2967.25           1452       36348.00    159175.50
 1244.58        2967.50           1456       36261.00    158792.60
 1244.62        2967.75           1459       36239.00    158695.80
 1244.65        2968.00           1462       36087.00    158026.80
 1244.68        2968.25           1466       35213.00    154181.00
 1244.71        2968.50           1469       34015.00    148910.90
 1244.74        2968.75           1472       32484.00    142178.40
 1244.77        2969.00           1476       30307.00    132609.80
 1244.80        2969.25           1479       28715.00    125615.90
 1244.83        2969.50           1482       27009.00    118124.50
 1244.87        2969.75           1486       24972.00    109184.00
 1244.90        2970.00           1489       23414.00    102349.10
 1244.93        2970.25           1492       21740.00     95008.43
 1244.96        2970.50           1496       19504.00     85208.39
 1244.99        2970.75           1499       17903.00     78195.00
 1245.02        2971.00           1502       16212.00     70790.55
 1245.05        2971.25           1506       13763.00     60072.86
 1245.08        2971.50           1509       12254.00     53472.38
 1245.11        2971.75           1513        9895.00     43159.16
 1245.14        2972.00           1516        8322.00     36285.78
 1245.17        2972.25           1519        6616.00     28834.44
 1245.21        2972.50           1523        4319.00     18807.03
 1245.24        2972.75           1526        2748.00     11952.41
 1245.27        2973.00           1529        1472.00      6387.01
 1245.30        2973.25           1533         524.00      2253.42
 1245.33        2973.50           1536         349.00      1490.48
 1245.36        2973.75           1539         266.00      1128.63
 1245.39        2974.00           1543         209.00       880.15
 1245.42        2974.25           1546         133.00       548.83
 1245.45        2974.50           1549         109.00       444.21
 1245.48        2974.75           1553          71.00       278.56
 1245.51        2975.00           1556          68.00       265.48
 1245.54        2975.25           1559          50.00       187.01
 1245.58        2975.50           1563          58.00       221.88
 1245.61        2975.75           1566          44.00       160.86
 1245.64        2976.00           1569          45.00       165.21
 1245.67        2976.25           1573          51.00       191.37
 1245.70        2976.50           1576          48.00       178.29
 1245.73        2976.75           1579          46.00       169.57
 1245.76        2977.00           1583          58.00       221.88
 1245.79        2977.25           1586          50.00       187.01
 1245.82        2977.50           1590          47.00       173.93
 1245.85        2977.75           1593          51.00       191.37
 1245.88        2978.00           1596          50.00       187.01
 1245.92        2978.25           1600          53.00       200.09
 1245.95        2978.50           1603          49.00       182.65
 1245.98        2978.75           1606          45.00       165.21
 1246.01        2979.00           1610          45.00       165.21
 1246.04        2979.25           1613          46.00       169.57
 1246.07        2979.50           1616          46.00       169.57
 1246.10        2979.75           1620          45.00       165.21
 1246.13        2980.00           1623          44.00       160.86
 1246.16        2980.25           1626          47.00       173.93
 1246.19        2980.50           1630          49.00       182.65
 1246.22        2980.75           1633          38.00       134.70
 1246.25        2981.00           1637          41.00       147.78
 1246.28        2981.25           1640          50.00       187.01
 1246.31        2981.50           1643          46.00       169.57
 1246.34        2981.75           1647          47.00       173.93
 1246.37        2982.00           1650          48.00       178.29
 1246.40        2982.25           1653          39.00       139.06
 1246.44        2982.50           1657          43.00       156.50
 1246.47        2982.75           1660          48.00       178.29
 1246.50        2983.00           1663          40.00       143.42
 1246.53        2983.25           1667          42.00       152.14
 1246.56        2983.50           1670          45.00       165.21
 1246.59        2983.75           1673          42.00       152.14
 1246.62        2984.00           1677          42.00       152.14
HS scan finished at 20:46:50
end
