************************************************************
  HS Scan of (1) Internal mercury lamp
************************************************************
Integration time is 0.2294 seconds per sample
dh030518Manchester 53.47 2.23 2.804185pr1000
************************************************************
Dead Time -------------------------  3E-08 
Number of Cycles Used -------------  4 
Starting Wavelength (Angstroms) ---  2950 
Final Wavelength (Angstoms) -------  2984 
Wavelength Increment (Angstroms) --  .25 
Filter Wheel #1 Position ---------- (1) Ground quartz diffuser (ND=2.32)
Filter Wheel #2 Position ---------- (1) Neutral Density 0.494



************************************************************
HS scan start time = 02:11:19
Dark Count =  7 


Time (GMT)  Wavelength (Ang)  Step Number  Raw Counts  Counts/Second

  131.69        2950.00           1222          55.00       209.24
  131.76        2950.25           1226          51.00       191.81
  131.79        2950.50           1229          57.00       217.96
  131.82        2950.75           1232          58.00       222.32
  131.85        2951.00           1236          58.00       222.32
  131.88        2951.25           1239          58.00       222.32
  131.91        2951.50           1242          52.00       196.17
  131.94        2951.75           1246          60.00       231.04
  131.97        2952.00           1249          64.00       248.48
  132.01        2952.25           1252          63.00       244.12
  132.04        2952.50           1256          59.00       226.68
  132.07        2952.75           1259          54.00       204.88
  132.10        2953.00           1262          52.00       196.17
  132.13        2953.25           1266          54.00       204.88
  132.16        2953.50           1269          58.00       222.32
  132.19        2953.75           1272          60.00       231.04
  132.22        2954.00           1276          53.00       200.52
  132.25        2954.25           1279          58.00       222.32
  132.28        2954.50           1282          60.00       231.04
  132.31        2954.75           1286          67.00       261.55
  132.34        2955.00           1289          56.00       213.60
  132.37        2955.25           1292          55.00       209.24
  132.40        2955.50           1296          62.00       239.76
  132.43        2955.75           1299          55.00       209.24
  132.47        2956.00           1302          52.00       196.17
  132.50        2956.25           1306          58.00       222.32
  132.53        2956.50           1309          63.00       244.12
  132.56        2956.75           1312          67.00       261.55
  132.59        2957.00           1316          57.00       217.96
  132.62        2957.25           1319          54.00       204.88
  132.65        2957.50           1322          59.00       226.68
  132.68        2957.75           1326          64.00       248.48
  132.71        2958.00           1329          58.00       222.32
  132.74        2958.25           1332          51.00       191.81
  132.78        2958.50           1336          58.00       222.32
  132.81        2958.75           1339          59.00       226.68
  132.84        2959.00           1342          68.00       265.91
  132.87        2959.25           1346          64.00       248.48
  132.90        2959.50           1349          69.00       270.27
  132.93        2959.75           1352          67.00       261.55
  132.96        2960.00           1356          90.00       361.82
  132.99        2960.25           1359         118.00       483.88
  133.02        2960.50           1362         142.00       588.50
  133.05        2960.75           1366         195.00       819.55
  133.08        2961.00           1369         231.00       976.49
  133.11        2961.25           1372         277.00      1177.03
  133.15        2961.50           1376         348.00      1486.55
  133.18        2961.75           1379         460.00      1974.83
  133.21        2962.00           1382         971.00      4202.80
  133.24        2962.25           1386        2524.00     10975.72
  133.27        2962.50           1389        3913.00     17035.73
  133.30        2962.75           1392        5311.00     23137.24
  133.33        2963.00           1396        7191.00     31345.94
  133.36        2963.25           1399        8730.00     38068.74
  133.39        2963.50           1402       10288.00     44877.29
  133.42        2963.75           1406       12251.00     53459.69
  133.46        2964.00           1409       13789.00     60187.05
  133.49        2964.25           1412       15373.00     67118.45
  133.52        2964.50           1416       17409.00     76032.00
  133.55        2964.75           1419       18946.00     82764.10
  133.58        2965.00           1422       20358.00     88951.09
  133.61        2965.25           1426       22487.00     98284.14
  133.64        2965.50           1429       23919.00    104564.60
  133.67        2965.75           1432       25368.00    110922.10
  133.70        2966.00           1436       27456.00    120087.50
  133.73        2966.25           1439       28609.00    125150.80
  133.77        2966.50           1442       29967.00    131116.30
  133.80        2966.75           1446       31561.00    138121.30
  133.83        2967.00           1449       32021.00    140143.30
  133.86        2967.25           1452       32105.00    140512.60
  133.89        2967.50           1456       31852.00    139400.40
  133.92        2967.75           1459       32056.00    140297.20
  133.95        2968.00           1462       31778.00    139075.10
  133.98        2968.25           1466       31042.00    135840.20
  134.01        2968.50           1469       29812.00    130435.30
  134.04        2968.75           1472       28516.00    124742.30
  134.07        2969.00           1476       26436.00    115609.50
  134.10        2969.25           1479       25136.00    109904.10
  134.14        2969.50           1482       23483.00    102652.20
  134.17        2969.75           1486       21707.00     94864.18
  134.20        2970.00           1489       20270.00     88565.44
  134.23        2970.25           1492       18794.00     82098.21
  134.26        2970.50           1496       16869.00     73667.43
  134.29        2970.75           1499       15528.00     67796.86
  134.32        2971.00           1502       13958.00     60926.44
  134.35        2971.25           1506       11904.00     51942.26
  134.38        2971.50           1509       10439.00     45537.32
  134.42        2971.75           1513        8583.00     37426.48
  134.45        2972.00           1516        7047.00     30717.05
  134.48        2972.25           1519        5560.00     24224.22
  134.51        2972.50           1523        3602.00     15678.69
  134.54        2972.75           1526        2303.00     10011.73
  134.57        2973.00           1529        1059.00      4586.51
  134.60        2973.25           1533         477.00      2048.95
  134.63        2973.50           1536         356.00      1521.43
  134.66        2973.75           1539         273.00      1159.59
  134.69        2974.00           1543         242.00      1024.44
  134.72        2974.25           1546         189.00       793.39
  134.75        2974.50           1549         138.00       571.06
  134.78        2974.75           1553         104.00       422.85
  134.82        2975.00           1556          82.00       326.94
  134.85        2975.25           1559          65.00       252.84
  134.88        2975.50           1563          64.00       248.48
  134.91        2975.75           1566          64.00       248.48
  134.94        2976.00           1569          56.00       213.60
  134.97        2976.25           1573          59.00       226.68
  135.00        2976.50           1576          61.00       235.40
  135.03        2976.75           1579          50.00       187.45
  135.06        2977.00           1583          51.00       191.81
  135.09        2977.25           1586          60.00       231.04
  135.12        2977.50           1590          52.00       196.17
  135.16        2977.75           1593          49.00       183.09
  135.19        2978.00           1596          56.00       213.60
  135.22        2978.25           1600          53.00       200.52
  135.25        2978.50           1603          52.00       196.17
  135.28        2978.75           1606          64.00       248.48
  135.31        2979.00           1610          53.00       200.52
  135.34        2979.25           1613          48.00       178.73
  135.37        2979.50           1616          51.00       191.81
  135.40        2979.75           1620          56.00       213.60
  135.43        2980.00           1623          60.00       231.04
  135.46        2980.25           1626          61.00       235.40
  135.49        2980.50           1630          49.00       183.09
  135.52        2980.75           1633          53.00       200.52
  135.55        2981.00           1637          59.00       226.68
  135.59        2981.25           1640          55.00       209.24
  135.62        2981.50           1643          59.00       226.68
  135.65        2981.75           1647          49.00       183.09
  135.68        2982.00           1650          52.00       196.17
  135.71        2982.25           1653          50.00       187.45
  135.74        2982.50           1657          50.00       187.45
  135.77        2982.75           1660          45.00       165.65
  135.80        2983.00           1663          50.00       187.45
  135.83        2983.25           1667          53.00       200.52
  135.86        2983.50           1670          50.00       187.45
  135.89        2983.75           1673          52.00       196.17
  135.92        2984.00           1677          46.00       170.01
HS scan finished at 02:16:08
end
************************************************************
  HS Scan of (1) Internal mercury lamp
************************************************************
Integration time is 0.2294 seconds per sample
dh030518Manchester 53.47 2.23 2.804185pr1000
************************************************************
Dead Time -------------------------  3E-08 
Number of Cycles Used -------------  4 
Starting Wavelength (Angstroms) ---  2950 
Final Wavelength (Angstoms) -------  2984 
Wavelength Increment (Angstroms) --  .25 
Filter Wheel #1 Position ---------- (1) Ground quartz diffuser (ND=2.32)
Filter Wheel #2 Position ---------- (1) Neutral Density 0.494



************************************************************
HS scan start time = 20:41:59
Dark Count =  6.8 


Time (GMT)  Wavelength (Ang)  Step Number  Raw Counts  Counts/Second

 1242.36        2950.00           1222          56.00       214.47
 1242.43        2950.25           1226          57.00       218.83
 1242.46        2950.50           1229          59.00       227.55
 1242.49        2950.75           1232          56.00       214.47
 1242.52        2951.00           1236          65.00       253.71
 1242.55        2951.25           1239          65.00       253.71
 1242.58        2951.50           1242          61.00       236.27
 1242.61        2951.75           1246          61.00       236.27
 1242.64        2952.00           1249          67.00       262.43
 1242.67        2952.25           1252          60.00       231.91
 1242.70        2952.50           1256          48.00       179.60
 1242.73        2952.75           1259          56.00       214.47
 1242.77        2953.00           1262          58.00       223.19
 1242.80        2953.25           1266          61.00       236.27
 1242.83        2953.50           1269          48.00       179.60
 1242.86        2953.75           1272          57.00       218.83
 1242.89        2954.00           1276          58.00       223.19
 1242.92        2954.25           1279          61.00       236.27
 1242.95        2954.50           1282          64.00       249.35
 1242.98        2954.75           1286          65.00       253.71
 1243.01        2955.00           1289          59.00       227.55
 1243.04        2955.25           1292          59.00       227.55
 1243.07        2955.50           1296          53.00       201.40
 1243.10        2955.75           1299          58.00       223.19
 1243.13        2956.00           1302          60.00       231.91
 1243.16        2956.25           1306          55.00       210.11
 1243.19        2956.50           1309          54.00       205.76
 1243.22        2956.75           1312          55.00       210.11
 1243.26        2957.00           1316          59.00       227.55
 1243.29        2957.25           1319          60.00       231.91
 1243.32        2957.50           1322          59.00       227.55
 1243.35        2957.75           1326          60.00       231.91
 1243.38        2958.00           1329          56.00       214.47
 1243.41        2958.25           1332          50.00       188.32
 1243.44        2958.50           1336          60.00       231.91
 1243.47        2958.75           1339          63.00       244.99
 1243.50        2959.00           1342          54.00       205.76
 1243.53        2959.25           1346          57.00       218.83
 1243.56        2959.50           1349          58.00       223.19
 1243.59        2959.75           1352          77.00       306.02
 1243.63        2960.00           1356         104.00       423.72
 1243.66        2960.25           1359         132.00       545.78
 1243.69        2960.50           1362         163.00       680.92
 1243.72        2960.75           1366         216.00       911.97
 1243.75        2961.00           1369         253.00      1073.27
 1243.78        2961.25           1372         290.00      1234.57
 1243.81        2961.50           1376         362.00      1548.46
 1243.84        2961.75           1379         499.00      2145.74
 1243.87        2962.00           1382        1030.00      4460.93
 1243.90        2962.25           1386        2703.00     11757.42
 1243.93        2962.50           1389        4125.00     17961.73
 1243.96        2962.75           1392        5551.00     24185.81
 1244.00        2963.00           1396        7211.00     31434.16
 1244.03        2963.25           1399        8790.00     38331.76
 1244.06        2963.50           1402       10343.00     45118.57
 1244.09        2963.75           1406       12271.00     53548.03
 1244.12        2964.00           1409       13740.00     59973.55
 1244.15        2964.25           1412       15427.00     67355.68
 1244.18        2964.50           1416       17355.00     75796.40
 1244.21        2964.75           1419       18824.00     82230.51
 1244.24        2965.00           1422       20339.00     88868.69
 1244.27        2965.25           1426       22389.00     97855.28
 1244.31        2965.50           1429       23660.00    103429.40
 1244.34        2965.75           1432       25175.00    110076.10
 1244.37        2966.00           1436       27194.00    118938.00
 1244.40        2966.25           1439       28482.00    124593.90
 1244.43        2966.50           1442       29733.00    130089.10
 1244.46        2966.75           1446       31356.00    137221.10
 1244.49        2967.00           1449       31635.00    138447.40
 1244.52        2967.25           1452       31656.00    138539.70
 1244.55        2967.50           1456       31795.00    139150.80
 1244.59        2967.75           1459       31776.00    139067.20
 1244.62        2968.00           1462       31634.00    138443.00
 1244.65        2968.25           1466       30769.00    134641.30
 1244.68        2968.50           1469       29399.00    128621.80
 1244.71        2968.75           1472       28107.00    122947.00
 1244.74        2969.00           1476       26304.00    115031.00
 1244.77        2969.25           1479       24982.00    109229.20
 1244.80        2969.50           1482       23438.00    102455.70
 1244.83        2969.75           1486       21345.00     93278.09
 1244.86        2970.00           1489       19795.00     86484.78
 1244.89        2970.25           1492       18492.00     80776.15
 1244.93        2970.50           1496       16451.00     71838.18
 1244.96        2970.75           1499       15044.00     65679.43
 1244.99        2971.00           1502       13555.00     59164.21
 1245.02        2971.25           1506       11653.00     50845.59
 1245.05        2971.50           1509       10069.00     43920.96
 1245.08        2971.75           1513        8093.00     35286.68
 1245.11        2972.00           1516        6778.00     29543.18
 1245.14        2972.25           1519        5271.00     22963.51
 1245.17        2972.50           1523        3434.00     14946.54
 1245.20        2972.75           1526        2004.00      8708.47
 1245.24        2973.00           1529         884.00      3824.33
 1245.27        2973.25           1533         411.00      1762.08
 1245.30        2973.50           1536         317.00      1352.28
 1245.33        2973.75           1539         267.00      1134.30
 1245.36        2974.00           1543         236.00       999.16
 1245.39        2974.25           1546         169.00       707.08
 1245.42        2974.50           1549         142.00       589.37
 1245.45        2974.75           1553          97.00       393.20
 1245.48        2975.00           1556          72.00       284.22
 1245.51        2975.25           1559          69.00       271.14
 1245.54        2975.50           1563          64.00       249.35
 1245.57        2975.75           1566          58.00       223.19
 1245.60        2976.00           1569          56.00       214.47
 1245.64        2976.25           1573          59.00       227.55
 1245.67        2976.50           1576          57.00       218.83
 1245.70        2976.75           1579          63.00       244.99
 1245.73        2977.00           1583          61.00       236.27
 1245.76        2977.25           1586          57.00       218.83
 1245.79        2977.50           1590          59.00       227.55
 1245.82        2977.75           1593          52.00       197.04
 1245.85        2978.00           1596          58.00       223.19
 1245.88        2978.25           1600          54.00       205.76
 1245.91        2978.50           1603          59.00       227.55
 1245.94        2978.75           1606          51.00       192.68
 1245.97        2979.00           1610          54.00       205.76
 1246.00        2979.25           1613          54.00       205.76
 1246.03        2979.50           1616          54.00       205.76
 1246.06        2979.75           1620          51.00       192.68
 1246.10        2980.00           1623          54.00       205.76
 1246.13        2980.25           1626          54.00       205.76
 1246.16        2980.50           1630          47.00       175.24
 1246.19        2980.75           1633          57.00       218.83
 1246.22        2981.00           1637          56.00       214.47
 1246.25        2981.25           1640          56.00       214.47
 1246.28        2981.50           1643          50.00       188.32
 1246.31        2981.75           1647          53.00       201.40
 1246.34        2982.00           1650          53.00       201.40
 1246.37        2982.25           1653          50.00       188.32
 1246.40        2982.50           1657          52.00       197.04
 1246.43        2982.75           1660          51.00       192.68
 1246.46        2983.00           1663          48.00       179.60
 1246.49        2983.25           1667          55.00       210.11
 1246.53        2983.50           1670          63.00       244.99
 1246.56        2983.75           1673          51.00       192.68
 1246.59        2984.00           1677          57.00       218.83
HS scan finished at 20:46:48
end
