************************************************************
  HS Scan of (1) Internal mercury lamp
************************************************************
Integration time is 0.2294 seconds per sample
dh300418Manchester 53.47 2.23 2.804185pr1000
************************************************************
Dead Time -------------------------  3E-08 
Number of Cycles Used -------------  4 
Starting Wavelength (Angstroms) ---  2950 
Final Wavelength (Angstoms) -------  2984 
Wavelength Increment (Angstroms) --  .25 
Filter Wheel #1 Position ---------- (1) Ground quartz diffuser (ND=2.32)
Filter Wheel #2 Position ---------- (1) Neutral Density 0.494



************************************************************
HS scan start time = 01:32:46
Dark Count =  6.3 


Time (GMT)  Wavelength (Ang)  Step Number  Raw Counts  Counts/Second

   93.13        2950.00           1222          67.00       264.61
   93.20        2950.25           1226          74.00       295.12
   93.23        2950.50           1229          62.00       242.81
   93.26        2950.75           1232          61.00       238.45
   93.29        2951.00           1236          65.00       255.89
   93.32        2951.25           1239          54.00       207.94
   93.35        2951.50           1242          56.00       216.65
   93.38        2951.75           1246          61.00       238.45
   93.41        2952.00           1249          64.00       251.53
   93.44        2952.25           1252          66.00       260.25
   93.47        2952.50           1256          63.00       247.17
   93.51        2952.75           1259          56.00       216.65
   93.54        2953.00           1262          59.00       229.73
   93.57        2953.25           1266          58.00       225.37
   93.60        2953.50           1269          60.00       234.09
   93.63        2953.75           1272          56.00       216.65
   93.66        2954.00           1276          60.00       234.09
   93.69        2954.25           1279          67.00       264.61
   93.72        2954.50           1282          58.00       225.37
   93.75        2954.75           1286          58.00       225.37
   93.78        2955.00           1289          57.00       221.01
   93.81        2955.25           1292          62.00       242.81
   93.84        2955.50           1296          56.00       216.65
   93.87        2955.75           1299          57.00       221.01
   93.91        2956.00           1302          60.00       234.09
   93.94        2956.25           1306          60.00       234.09
   93.97        2956.50           1309          59.00       229.73
   94.00        2956.75           1312          55.00       212.29
   94.03        2957.00           1316          53.00       203.58
   94.06        2957.25           1319          56.00       216.65
   94.09        2957.50           1322          64.00       251.53
   94.12        2957.75           1326          71.00       282.04
   94.15        2958.00           1329          70.00       277.68
   94.18        2958.25           1332          65.00       255.89
   94.22        2958.50           1336          67.00       264.61
   94.25        2958.75           1339          59.00       229.73
   94.28        2959.00           1342          53.00       203.58
   94.31        2959.25           1346          55.00       212.29
   94.34        2959.50           1349          69.00       273.32
   94.37        2959.75           1352          80.00       321.28
   94.40        2960.00           1356         102.00       417.18
   94.43        2960.25           1359         139.00       578.48
   94.46        2960.50           1362         178.00       748.49
   94.49        2960.75           1366         242.00      1027.49
   94.52        2961.00           1369         246.00      1044.93
   94.56        2961.25           1372         321.00      1371.90
   94.59        2961.50           1376         394.00      1690.15
   94.62        2961.75           1379         733.00      3168.13
   94.65        2962.00           1382        1600.00      6948.70
   94.68        2962.25           1386        3360.00     14625.86
   94.71        2962.50           1389        4805.00     20931.62
   94.74        2962.75           1392        6242.00     27204.85
   94.77        2963.00           1396        8191.00     35716.98
   94.80        2963.25           1399        9624.00     41978.30
   94.83        2963.50           1402       11012.00     48045.23
   94.87        2963.75           1406       13075.00     57066.67
   94.90        2964.00           1409       14533.00     63445.41
   94.93        2964.25           1412       16108.00     70338.77
   94.96        2964.50           1416       18241.00     79678.90
   94.99        2964.75           1419       19618.00     85711.39
   95.02        2965.00           1422       21142.00     92390.42
   95.05        2965.25           1426       23035.00    100690.40
   95.08        2965.50           1429       24475.00    107006.90
   95.11        2965.75           1432       25917.00    113334.60
   95.15        2966.00           1436       27866.00    121890.90
   95.18        2966.25           1439       29224.00    127855.20
   95.21        2966.50           1442       30448.00    133232.90
   95.24        2966.75           1446       31659.00    138555.10
   95.27        2967.00           1449       32130.00    140625.60
   95.30        2967.25           1452       31971.00    139926.60
   95.33        2967.50           1456       32009.00    140093.70
   95.36        2967.75           1459       31962.00    139887.10
   95.39        2968.00           1462       31566.00    138146.30
   95.42        2968.25           1466       30440.00    133197.70
   95.45        2968.50           1469       29181.00    127666.30
   95.49        2968.75           1472       27610.00    120766.70
   95.52        2969.00           1476       25816.00    112891.30
   95.55        2969.25           1479       24300.00    106239.10
   95.58        2969.50           1482       23025.00    100646.50
   95.61        2969.75           1486       21240.00     92820.00
   95.64        2970.00           1489       19522.00     85290.76
   95.67        2970.25           1492       17938.00     78351.78
   95.70        2970.50           1496       15861.00     69257.53
   95.73        2970.75           1499       14456.00     63108.48
   95.76        2971.00           1502       13018.00     56817.35
   95.79        2971.25           1506       10975.00     47883.47
   95.82        2971.50           1509        9599.00     41869.04
   95.86        2971.75           1513        7696.00     33554.69
   95.89        2972.00           1516        6124.00     26689.63
   95.92        2972.25           1519        4800.00     20909.80
   95.95        2972.50           1523        2912.00     12671.34
   95.98        2972.75           1526        1590.00      6905.09
   96.01        2973.00           1529         656.00      2832.41
   96.04        2973.25           1533         370.00      1585.52
   96.07        2973.50           1536         315.00      1345.74
   96.10        2973.75           1539         265.00      1127.76
   96.13        2974.00           1543         219.00       927.23
   96.16        2974.25           1546         164.00       687.46
   96.20        2974.50           1549         123.00       508.73
   96.23        2974.75           1553          92.00       373.59
   96.26        2975.00           1556          73.00       290.76
   96.29        2975.25           1559          63.00       247.17
   96.32        2975.50           1563          59.00       229.73
   96.35        2975.75           1566          62.00       242.81
   96.38        2976.00           1569          64.00       251.53
   96.41        2976.25           1573          59.00       229.73
   96.44        2976.50           1576          58.00       225.37
   96.47        2976.75           1579          52.00       199.22
   96.50        2977.00           1583          54.00       207.94
   96.53        2977.25           1586          60.00       234.09
   96.57        2977.50           1590          52.00       199.22
   96.60        2977.75           1593          55.00       212.29
   96.63        2978.00           1596          54.00       207.94
   96.66        2978.25           1600          63.00       247.17
   96.69        2978.50           1603          50.00       190.50
   96.72        2978.75           1606          63.00       247.17
   96.75        2979.00           1610          55.00       212.29
   96.78        2979.25           1613          52.00       199.22
   96.81        2979.50           1616          50.00       190.50
   96.84        2979.75           1620          55.00       212.29
   96.87        2980.00           1623          57.00       221.01
   96.90        2980.25           1626          54.00       207.94
   96.94        2980.50           1630          54.00       207.94
   96.97        2980.75           1633          57.00       221.01
   97.00        2981.00           1637          58.00       225.37
   97.03        2981.25           1640          55.00       212.29
   97.06        2981.50           1643          50.00       190.50
   97.09        2981.75           1647          54.00       207.94
   97.12        2982.00           1650          56.00       216.65
   97.15        2982.25           1653          57.00       221.01
   97.18        2982.50           1657          53.00       203.58
   97.21        2982.75           1660          54.00       207.94
   97.24        2983.00           1663          50.00       190.50
   97.27        2983.25           1667          56.00       216.65
   97.31        2983.50           1670          54.00       207.94
   97.34        2983.75           1673          50.00       190.50
   97.37        2984.00           1677          58.00       225.37
HS scan finished at 01:37:35
end
************************************************************
  HS Scan of (1) Internal mercury lamp
************************************************************
Integration time is 0.2294 seconds per sample
dh300418Manchester 53.47 2.23 2.804185pr1000
************************************************************
Dead Time -------------------------  3E-08 
Number of Cycles Used -------------  4 
Starting Wavelength (Angstroms) ---  2950 
Final Wavelength (Angstoms) -------  2984 
Wavelength Increment (Angstroms) --  .25 
Filter Wheel #1 Position ---------- (1) Ground quartz diffuser (ND=2.32)
Filter Wheel #2 Position ---------- (1) Neutral Density 0.494



************************************************************
HS scan start time = 20:42:01
Dark Count =  6.4 


Time (GMT)  Wavelength (Ang)  Step Number  Raw Counts  Counts/Second

 1242.39        2950.00           1222          68.00       268.53
 1242.46        2950.25           1226          56.00       216.22
 1242.49        2950.50           1229          65.00       255.45
 1242.52        2950.75           1232          69.00       272.89
 1242.55        2951.00           1236          53.00       203.14
 1242.58        2951.25           1239          66.00       259.81
 1242.61        2951.50           1242          68.00       268.53
 1242.64        2951.75           1246          64.00       251.09
 1242.67        2952.00           1249          55.00       211.86
 1242.71        2952.25           1252          61.00       238.01
 1242.74        2952.50           1256          58.00       224.94
 1242.77        2952.75           1259          56.00       216.22
 1242.80        2953.00           1262          65.00       255.45
 1242.83        2953.25           1266          64.00       251.09
 1242.86        2953.50           1269          63.00       246.73
 1242.89        2953.75           1272          59.00       229.30
 1242.92        2954.00           1276          69.00       272.89
 1242.95        2954.25           1279          60.00       233.65
 1242.98        2954.50           1282          59.00       229.30
 1243.01        2954.75           1286          63.00       246.73
 1243.04        2955.00           1289          56.00       216.22
 1243.07        2955.25           1292          64.00       251.09
 1243.10        2955.50           1296          61.00       238.01
 1243.13        2955.75           1299          58.00       224.94
 1243.16        2956.00           1302          54.00       207.50
 1243.20        2956.25           1306          61.00       238.01
 1243.23        2956.50           1309          57.00       220.58
 1243.26        2956.75           1312          62.00       242.37
 1243.29        2957.00           1316          51.00       194.42
 1243.32        2957.25           1319          61.00       238.01
 1243.35        2957.50           1322          58.00       224.94
 1243.38        2957.75           1326          60.00       233.65
 1243.41        2958.00           1329          62.00       242.37
 1243.44        2958.25           1332          59.00       229.30
 1243.47        2958.50           1336          58.00       224.94
 1243.50        2958.75           1339          60.00       233.65
 1243.54        2959.00           1342          56.00       216.22
 1243.57        2959.25           1346          64.00       251.09
 1243.60        2959.50           1349          69.00       272.89
 1243.63        2959.75           1352          74.00       294.68
 1243.66        2960.00           1356         108.00       442.90
 1243.69        2960.25           1359         131.00       543.16
 1243.72        2960.50           1362         161.00       673.95
 1243.75        2960.75           1366         210.00       887.56
 1243.78        2961.00           1369         262.00      1114.25
 1243.81        2961.25           1372         299.00      1275.55
 1243.84        2961.50           1376         347.00      1484.81
 1243.87        2961.75           1379         492.00      2116.96
 1243.90        2962.00           1382        1041.00      4510.64
 1243.93        2962.25           1386        2680.00     11658.83
 1243.96        2962.50           1389        4068.00     17714.73
 1244.00        2962.75           1392        5621.00     24493.15
 1244.03        2963.00           1396        7539.00     32868.49
 1244.06        2963.25           1399        9120.00     39775.42
 1244.09        2963.50           1402       10401.00     45373.84
 1244.12        2963.75           1406       12498.00     54542.53
 1244.15        2964.00           1409       13995.00     61090.94
 1244.18        2964.25           1412       15627.00     68232.82
 1244.21        2964.50           1416       17608.00     76906.09
 1244.24        2964.75           1419       19032.00     83143.49
 1244.27        2965.00           1422       20487.00     89519.08
 1244.31        2965.25           1426       22387.00     97848.27
 1244.34        2965.50           1429       23819.00    104128.60
 1244.37        2965.75           1432       25335.00    110779.90
 1244.40        2966.00           1436       27152.00    118755.40
 1244.43        2966.25           1439       28599.00    125109.50
 1244.46        2966.50           1442       29998.00    131255.10
 1244.49        2966.75           1446       31437.00    137578.90
 1244.52        2967.00           1449       31832.00    139315.10
 1244.55        2967.25           1452       32057.00    140304.20
 1244.58        2967.50           1456       32221.00    141025.20
 1244.61        2967.75           1459       32245.00    141130.70
 1244.65        2968.00           1462       31906.00    139640.40
 1244.68        2968.25           1466       31051.00    135882.40
 1244.71        2968.50           1469       29775.00    130275.40
 1244.74        2968.75           1472       28349.00    124011.50
 1244.77        2969.00           1476       26592.00    116296.90
 1244.80        2969.25           1479       25133.00    109893.50
 1244.83        2969.50           1482       23744.00    103799.60
 1244.86        2969.75           1486       21719.00     94919.42
 1244.89        2970.00           1489       20369.00     89001.92
 1244.92        2970.25           1492       18876.00     82460.06
 1244.95        2970.50           1496       16977.00     74142.93
 1244.99        2970.75           1499       15377.00     67138.58
 1245.02        2971.00           1502       13894.00     60649.05
 1245.05        2971.25           1506       11959.00     52185.39
 1245.08        2971.50           1509       10399.00     45365.10
 1245.11        2971.75           1513        8602.00     37512.11
 1245.14        2972.00           1516        6863.00     29916.11
 1245.17        2972.25           1519        5571.00     24274.86
 1245.20        2972.50           1523        3684.00     16039.10
 1245.23        2972.75           1526        2313.00     10057.96
 1245.26        2973.00           1529        1047.00      4536.80
 1245.30        2973.25           1533         427.00      1833.58
 1245.33        2973.50           1536         311.00      1327.86
 1245.36        2973.75           1539         263.00      1118.61
 1245.39        2974.00           1543         197.00       830.88
 1245.42        2974.25           1546         163.00       682.66
 1245.45        2974.50           1549         118.00       486.49
 1245.48        2974.75           1553          97.00       394.95
 1245.51        2975.00           1556          78.00       312.12
 1245.54        2975.25           1559          69.00       272.89
 1245.57        2975.50           1563          62.00       242.37
 1245.60        2975.75           1566          64.00       251.09
 1245.63        2976.00           1569          48.00       181.34
 1245.66        2976.25           1573          71.00       281.61
 1245.69        2976.50           1576          63.00       246.73
 1245.72        2976.75           1579          56.00       216.22
 1245.76        2977.00           1583          65.00       255.45
 1245.79        2977.25           1586          60.00       233.65
 1245.82        2977.50           1590          55.00       211.86
 1245.85        2977.75           1593          66.00       259.81
 1245.88        2978.00           1596          61.00       238.01
 1245.91        2978.25           1600          54.00       207.50
 1245.94        2978.50           1603          50.00       190.06
 1245.97        2978.75           1606          56.00       216.22
 1246.00        2979.00           1610          55.00       211.86
 1246.03        2979.25           1613          58.00       224.94
 1246.06        2979.50           1616          49.00       185.70
 1246.09        2979.75           1620          59.00       229.30
 1246.13        2980.00           1623          53.00       203.14
 1246.16        2980.25           1626          53.00       203.14
 1246.19        2980.50           1630          59.00       229.30
 1246.22        2980.75           1633          56.00       216.22
 1246.25        2981.00           1637          54.00       207.50
 1246.28        2981.25           1640          62.00       242.37
 1246.31        2981.50           1643          68.00       268.53
 1246.34        2981.75           1647          63.00       246.73
 1246.37        2982.00           1650          57.00       220.58
 1246.40        2982.25           1653          53.00       203.14
 1246.43        2982.50           1657          51.00       194.42
 1246.46        2982.75           1660          50.00       190.06
 1246.49        2983.00           1663          47.00       176.98
 1246.52        2983.25           1667          56.00       216.22
 1246.55        2983.50           1670          56.00       216.22
 1246.58        2983.75           1673          47.00       176.98
 1246.61        2984.00           1677          53.00       203.14
HS scan finished at 20:46:50
end
