************************************************************
  HS Scan of (1) Internal mercury lamp
************************************************************
Integration time is 0.2294 seconds per sample
dh060518Manchester 53.47 2.23 2.857833pr1000
************************************************************
Dead Time -------------------------  3E-08 
Number of Cycles Used -------------  4 
Starting Wavelength (Angstroms) ---  2950 
Final Wavelength (Angstoms) -------  2984 
Wavelength Increment (Angstroms) --  .25 
Filter Wheel #1 Position ---------- (1) Ground quartz diffuser (ND=2.32)
Filter Wheel #2 Position ---------- (1) Neutral Density 0.494



************************************************************
HS scan start time = 01:22:02
Dark Count =  6.9 


Time (GMT)  Wavelength (Ang)  Step Number  Raw Counts  Counts/Second

   82.40        2950.00           1222          61.00       235.83
   82.47        2950.25           1226          64.00       248.91
   82.50        2950.50           1229          59.00       227.12
   82.53        2950.75           1232          62.00       240.19
   82.56        2951.00           1236          63.00       244.55
   82.59        2951.25           1239          64.00       248.91
   82.62        2951.50           1242          58.00       222.76
   82.65        2951.75           1246          59.00       227.12
   82.68        2952.00           1249          55.00       209.68
   82.71        2952.25           1252          70.00       275.07
   82.74        2952.50           1256          51.00       192.24
   82.77        2952.75           1259          62.00       240.19
   82.81        2953.00           1262          64.00       248.91
   82.84        2953.25           1266          54.00       205.32
   82.87        2953.50           1269          60.00       231.48
   82.90        2953.75           1272          61.00       235.83
   82.93        2954.00           1276          58.00       222.76
   82.96        2954.25           1279          53.00       200.96
   82.99        2954.50           1282          61.00       235.83
   83.02        2954.75           1286          59.00       227.12
   83.05        2955.00           1289          49.00       183.52
   83.08        2955.25           1292          58.00       222.76
   83.11        2955.50           1296          56.00       214.04
   83.14        2955.75           1299          61.00       235.83
   83.17        2956.00           1302          62.00       240.19
   83.20        2956.25           1306          61.00       235.83
   83.23        2956.50           1309          51.00       192.24
   83.26        2956.75           1312          53.00       200.96
   83.30        2957.00           1316          62.00       240.19
   83.33        2957.25           1319          59.00       227.12
   83.36        2957.50           1322          58.00       222.76
   83.39        2957.75           1326          63.00       244.55
   83.42        2958.00           1329          64.00       248.91
   83.45        2958.25           1332          66.00       257.63
   83.48        2958.50           1336          60.00       231.48
   83.51        2958.75           1339          64.00       248.91
   83.54        2959.00           1342          58.00       222.76
   83.57        2959.25           1346          66.00       257.63
   83.60        2959.50           1349          68.00       266.35
   83.63        2959.75           1352          77.00       305.58
   83.67        2960.00           1356         109.00       445.08
   83.70        2960.25           1359         138.00       571.50
   83.73        2960.50           1362         169.00       706.64
   83.76        2960.75           1366         214.00       902.81
   83.79        2961.00           1369         266.00      1129.51
   83.82        2961.25           1372         304.00      1295.17
   83.85        2961.50           1376         358.00      1530.58
   83.88        2961.75           1379         454.00      1949.11
   83.91        2962.00           1382         794.00      3431.48
   83.94        2962.25           1386        2169.00      9427.69
   83.97        2962.50           1389        3624.00     15775.12
   84.00        2962.75           1392        5016.00     21849.98
   84.03        2963.00           1396        6920.00     30162.85
   84.07        2963.25           1399        8424.00     36732.26
   84.10        2963.50           1402        9891.00     43142.55
   84.13        2963.75           1406       12020.00     52449.95
   84.16        2964.00           1409       13593.00     59330.01
   84.19        2964.25           1412       15026.00     65600.21
   84.22        2964.50           1416       17100.00     74679.33
   84.25        2964.75           1419       18541.00     80990.36
   84.28        2965.00           1422       20130.00     87952.34
   84.31        2965.25           1426       22270.00     97333.05
   84.34        2965.50           1429       23550.00    102946.50
   84.38        2965.75           1432       25208.00    110220.50
   84.41        2966.00           1436       27008.00    118121.00
   84.44        2966.25           1439       28308.00    123829.30
   84.47        2966.50           1442       29685.00    129877.80
   84.50        2966.75           1446       31384.00    137343.70
   84.53        2967.00           1449       31875.00    139502.00
   84.56        2967.25           1452       32030.00    140183.40
   84.59        2967.50           1456       31962.00    139884.40
   84.62        2967.75           1459       32173.00    140812.00
   84.66        2968.00           1462       31883.00    139537.10
   84.69        2968.25           1466       31284.00    136904.20
   84.72        2968.50           1469       30086.00    131639.60
   84.75        2968.75           1472       28751.00    125774.90
   84.78        2969.00           1476       26693.00    116738.10
   84.81        2969.25           1479       25422.00    111159.50
   84.84        2969.50           1482       23625.00    103275.50
   84.87        2969.75           1486       21886.00     95649.41
   84.90        2970.00           1489       20391.00     89096.16
   84.93        2970.25           1492       19017.00     83075.58
   84.97        2970.50           1496       17036.00     74399.09
   85.00        2970.75           1499       15562.00     67946.12
   85.03        2971.00           1502       14090.00     61504.40
   85.06        2971.25           1506       12191.00     53197.74
   85.09        2971.50           1509       10675.00     46569.38
   85.12        2971.75           1513        8871.00     38685.24
   85.15        2972.00           1516        7363.00     32097.59
   85.18        2972.25           1519        5927.00     25826.89
   85.21        2972.50           1523        4058.00     17668.91
   85.24        2972.75           1526        2600.00     11307.67
   85.27        2973.00           1529        1322.00      5733.77
   85.31        2973.25           1533         454.00      1949.11
   85.34        2973.50           1536         324.00      1382.36
   85.37        2973.75           1539         259.00      1098.99
   85.40        2974.00           1543         215.00       907.17
   85.43        2974.25           1546         160.00       667.41
   85.46        2974.50           1549         132.00       545.34
   85.49        2974.75           1553          93.00       375.33
   85.52        2975.00           1556          73.00       288.15
   85.55        2975.25           1559          69.00       270.71
   85.58        2975.50           1563          59.00       227.12
   85.61        2975.75           1566          60.00       231.48
   85.64        2976.00           1569          54.00       205.32
   85.68        2976.25           1573          57.00       218.40
   85.71        2976.50           1576          51.00       192.24
   85.74        2976.75           1579          55.00       209.68
   85.77        2977.00           1583          57.00       218.40
   85.80        2977.25           1586          53.00       200.96
   85.83        2977.50           1590          57.00       218.40
   85.86        2977.75           1593          53.00       200.96
   85.89        2978.00           1596          52.00       196.60
   85.92        2978.25           1600          55.00       209.68
   85.95        2978.50           1603          60.00       231.48
   85.98        2978.75           1606          52.00       196.60
   86.01        2979.00           1610          60.00       231.48
   86.05        2979.25           1613          60.00       231.48
   86.08        2979.50           1616          51.00       192.24
   86.11        2979.75           1620          55.00       209.68
   86.14        2980.00           1623          51.00       192.24
   86.17        2980.25           1626          49.00       183.52
   86.20        2980.50           1630          60.00       231.48
   86.23        2980.75           1633          58.00       222.76
   86.26        2981.00           1637          51.00       192.24
   86.29        2981.25           1640          53.00       200.96
   86.32        2981.50           1643          50.00       187.88
   86.35        2981.75           1647          49.00       183.52
   86.38        2982.00           1650          59.00       227.12
   86.42        2982.25           1653          56.00       214.04
   86.45        2982.50           1657          54.00       205.32
   86.48        2982.75           1660          52.00       196.60
   86.51        2983.00           1663          52.00       196.60
   86.54        2983.25           1667          54.00       205.32
   86.57        2983.50           1670          53.00       200.96
   86.60        2983.75           1673          49.00       183.52
   86.63        2984.00           1677          53.00       200.96
HS scan finished at 01:26:51
end
************************************************************
  HS Scan of (1) Internal mercury lamp
************************************************************
Integration time is 0.2294 seconds per sample
dh060518Manchester 53.47 2.23 3.072425pr1000
************************************************************
Dead Time -------------------------  3E-08 
Number of Cycles Used -------------  4 
Starting Wavelength (Angstroms) ---  2950 
Final Wavelength (Angstoms) -------  2984 
Wavelength Increment (Angstroms) --  .25 
Filter Wheel #1 Position ---------- (1) Ground quartz diffuser (ND=2.32)
Filter Wheel #2 Position ---------- (1) Neutral Density 0.494



************************************************************
HS scan start time = 20:42:04
Dark Count =  6.2 


Time (GMT)  Wavelength (Ang)  Step Number  Raw Counts  Counts/Second

 1242.43        2950.00           1222          56.00       217.09
 1242.49        2950.25           1226          69.00       273.76
 1242.53        2950.50           1229          68.00       269.40
 1242.56        2950.75           1232          55.00       212.73
 1242.59        2951.00           1236          57.00       221.45
 1242.62        2951.25           1239          59.00       230.17
 1242.65        2951.50           1242          64.00       251.96
 1242.68        2951.75           1246          58.00       225.81
 1242.71        2952.00           1249          62.00       243.25
 1242.74        2952.25           1252          62.00       243.25
 1242.78        2952.50           1256          56.00       217.09
 1242.81        2952.75           1259          58.00       225.81
 1242.84        2953.00           1262          61.00       238.89
 1242.87        2953.25           1266          56.00       217.09
 1242.90        2953.50           1269          49.00       186.57
 1242.93        2953.75           1272          59.00       230.17
 1242.96        2954.00           1276          55.00       212.73
 1242.99        2954.25           1279          57.00       221.45
 1243.02        2954.50           1282          59.00       230.17
 1243.05        2954.75           1286          59.00       230.17
 1243.09        2955.00           1289          57.00       221.45
 1243.12        2955.25           1292          57.00       221.45
 1243.15        2955.50           1296          58.00       225.81
 1243.18        2955.75           1299          55.00       212.73
 1243.21        2956.00           1302          59.00       230.17
 1243.24        2956.25           1306          58.00       225.81
 1243.27        2956.50           1309          58.00       225.81
 1243.30        2956.75           1312          56.00       217.09
 1243.33        2957.00           1316          57.00       221.45
 1243.37        2957.25           1319          59.00       230.17
 1243.40        2957.50           1322          57.00       221.45
 1243.43        2957.75           1326          61.00       238.89
 1243.46        2958.00           1329          60.00       234.53
 1243.49        2958.25           1332          53.00       204.01
 1243.52        2958.50           1336          58.00       225.81
 1243.55        2958.75           1339          53.00       204.01
 1243.58        2959.00           1342          60.00       234.53
 1243.61        2959.25           1346          61.00       238.89
 1243.64        2959.50           1349          71.00       282.48
 1243.68        2959.75           1352          85.00       343.51
 1243.71        2960.00           1356          97.00       395.82
 1243.74        2960.25           1359         148.00       618.15
 1243.77        2960.50           1362         186.00       783.80
 1243.80        2960.75           1366         221.00       936.38
 1243.83        2961.00           1369         272.00      1158.72
 1243.86        2961.25           1372         312.00      1333.10
 1243.89        2961.50           1376         414.00      1777.78
 1243.92        2961.75           1379         711.00      3072.65
 1243.95        2962.00           1382        1618.00      7027.64
 1243.98        2962.25           1386        3707.00     16140.33
 1244.02        2962.50           1389        5362.00     23363.36
 1244.05        2962.75           1392        6920.00     30165.91
 1244.08        2963.00           1396        8928.00     38937.35
 1244.11        2963.25           1399       10565.00     46091.59
 1244.14        2963.50           1402       12137.00     52964.65
 1244.17        2963.75           1406       14413.00     62920.75
 1244.20        2964.00           1409       15912.00     69481.21
 1244.23        2964.25           1412       17630.00     77003.32
 1244.26        2964.50           1416       19724.00     86176.30
 1244.30        2964.75           1419       21341.00     93263.19
 1244.33        2965.00           1422       23095.00    100953.90
 1244.36        2965.25           1426       25157.00    109999.70
 1244.39        2965.50           1429       26883.00    117575.30
 1244.42        2965.75           1432       28547.00    124882.00
 1244.45        2966.00           1436       30795.00    134758.20
 1244.48        2966.25           1439       32156.00    140740.30
 1244.51        2966.50           1442       33687.00    147472.30
 1244.54        2966.75           1446       34766.00    152218.40
 1244.58        2967.00           1449       35083.00    153613.00
 1244.61        2967.25           1452       35205.00    154149.80
 1244.64        2967.50           1456       34817.00    152442.70
 1244.67        2967.75           1459       34978.00    153151.00
 1244.70        2968.00           1462       34877.00    152706.70
 1244.73        2968.25           1466       33302.00    145779.10
 1244.76        2968.50           1469       31712.00    138788.50
 1244.79        2968.75           1472       30250.00    132363.30
 1244.82        2969.00           1476       27989.00    122431.40
 1244.85        2969.25           1479       26548.00    116104.70
 1244.89        2969.50           1482       24866.00    108722.90
 1244.92        2969.75           1486       22849.00     99875.09
 1244.95        2970.00           1489       21248.00     92855.52
 1244.98        2970.25           1492       19726.00     86185.06
 1245.01        2970.50           1496       17482.00     76355.18
 1245.04        2970.75           1499       15837.00     69152.91
 1245.07        2971.00           1502       14221.00     62080.65
 1245.10        2971.25           1506       12128.00     52925.30
 1245.13        2971.50           1509       10490.00     45763.75
 1245.17        2971.75           1513        8361.00     36460.08
 1245.20        2972.00           1516        6647.00     28973.74
 1245.23        2972.25           1519        5078.00     22123.66
 1245.26        2972.50           1523        2956.00     12863.73
 1245.29        2972.75           1526        1507.00      6543.57
 1245.32        2973.00           1529         665.00      2872.09
 1245.35        2973.25           1533         406.00      1742.90
 1245.38        2973.50           1536         351.00      1503.12
 1245.41        2973.75           1539         310.00      1324.38
 1245.44        2974.00           1543         248.00      1054.09
 1245.48        2974.25           1546         186.00       783.80
 1245.51        2974.50           1549         145.00       605.07
 1245.54        2974.75           1553         103.00       421.98
 1245.57        2975.00           1556          73.00       291.20
 1245.60        2975.25           1559          72.00       286.84
 1245.63        2975.50           1563          54.00       208.37
 1245.66        2975.75           1566          61.00       238.89
 1245.69        2976.00           1569          52.00       199.65
 1245.72        2976.25           1573          54.00       208.37
 1245.75        2976.50           1576          60.00       234.53
 1245.78        2976.75           1579          62.00       243.25
 1245.82        2977.00           1583          63.00       247.60
 1245.85        2977.25           1586          53.00       204.01
 1245.88        2977.50           1590          54.00       208.37
 1245.91        2977.75           1593          55.00       212.73
 1245.94        2978.00           1596          55.00       212.73
 1245.97        2978.25           1600          60.00       234.53
 1246.00        2978.50           1603          56.00       217.09
 1246.03        2978.75           1606          55.00       212.73
 1246.06        2979.00           1610          52.00       199.65
 1246.09        2979.25           1613          52.00       199.65
 1246.13        2979.50           1616          63.00       247.60
 1246.16        2979.75           1620          57.00       221.45
 1246.19        2980.00           1623          60.00       234.53
 1246.22        2980.25           1626          54.00       208.37
 1246.25        2980.50           1630          64.00       251.96
 1246.28        2980.75           1633          61.00       238.89
 1246.31        2981.00           1637          54.00       208.37
 1246.34        2981.25           1640          55.00       212.73
 1246.37        2981.50           1643          56.00       217.09
 1246.40        2981.75           1647          62.00       243.25
 1246.44        2982.00           1650          62.00       243.25
 1246.47        2982.25           1653          59.00       230.17
 1246.50        2982.50           1657          52.00       199.65
 1246.53        2982.75           1660          49.00       186.57
 1246.56        2983.00           1663          50.00       190.93
 1246.59        2983.25           1667          54.00       208.37
 1246.62        2983.50           1670          47.00       177.86
 1246.65        2983.75           1673          56.00       217.09
 1246.69        2984.00           1677          57.00       221.45
HS scan finished at 20:46:54
end
