************************************************************
  HS Scan of (1) Internal mercury lamp
************************************************************
Integration time is 0.2294 seconds per sample
dh020517Manchester 53.47 2.23 2.804185pr1000
************************************************************
Dead Time -------------------------  3E-08 
Number of Cycles Used -------------  4 
Starting Wavelength (Angstroms) ---  2950 
Final Wavelength (Angstoms) -------  2984 
Wavelength Increment (Angstroms) --  .25 
Filter Wheel #1 Position ---------- (1) Ground quartz diffuser (ND=2.32)
Filter Wheel #2 Position ---------- (1) Neutral Density 0.494



************************************************************
HS scan start time = 02:59:16
Dark Count =  4.4 


Time (GMT)  Wavelength (Ang)  Step Number  Raw Counts  Counts/Second

  179.64        2950.00           1222          40.00       155.19
  179.71        2950.25           1226          49.00       194.42
  179.74        2950.50           1229          46.00       181.34
  179.77        2950.75           1232          49.00       194.42
  179.80        2951.00           1236          45.00       176.98
  179.83        2951.25           1239          43.00       168.27
  179.86        2951.50           1242          46.00       181.34
  179.89        2951.75           1246          44.00       172.63
  179.92        2952.00           1249          47.00       185.70
  179.95        2952.25           1252          47.00       185.70
  179.98        2952.50           1256          46.00       181.34
  180.01        2952.75           1259          40.00       155.19
  180.04        2953.00           1262          50.00       198.78
  180.08        2953.25           1266          42.00       163.91
  180.11        2953.50           1269          40.00       155.19
  180.14        2953.75           1272          50.00       198.78
  180.17        2954.00           1276          47.00       185.70
  180.20        2954.25           1279          49.00       194.42
  180.23        2954.50           1282          47.00       185.70
  180.26        2954.75           1286          48.00       190.06
  180.29        2955.00           1289          49.00       194.42
  180.32        2955.25           1292          46.00       181.34
  180.35        2955.50           1296          42.00       163.91
  180.38        2955.75           1299          53.00       211.86
  180.42        2956.00           1302          44.00       172.63
  180.45        2956.25           1306          41.00       159.55
  180.48        2956.50           1309          42.00       163.91
  180.51        2956.75           1312          50.00       198.78
  180.54        2957.00           1316          42.00       163.91
  180.57        2957.25           1319          43.00       168.27
  180.60        2957.50           1322          47.00       185.70
  180.63        2957.75           1326          49.00       194.42
  180.66        2958.00           1329          48.00       190.06
  180.69        2958.25           1332          50.00       198.78
  180.72        2958.50           1336          43.00       168.27
  180.75        2958.75           1339          48.00       190.06
  180.78        2959.00           1342          47.00       185.70
  180.82        2959.25           1346          51.00       203.14
  180.85        2959.50           1349          61.00       246.73
  180.88        2959.75           1352          71.00       290.33
  180.91        2960.00           1356         101.00       421.10
  180.94        2960.25           1359         139.00       586.76
  180.97        2960.50           1362         184.00       782.93
  181.00        2960.75           1366         236.00      1009.62
  181.03        2961.00           1369         303.00      1301.71
  181.06        2961.25           1372         324.00      1393.26
  181.09        2961.50           1376         448.00      1933.85
  181.12        2961.75           1379         806.00      3494.70
  181.15        2962.00           1382        1625.00      7066.01
  181.18        2962.25           1386        3539.00     15415.15
  181.22        2962.50           1389        5216.00     22733.90
  181.25        2962.75           1392        6844.00     29841.88
  181.28        2963.00           1396        8867.00     38678.68
  181.31        2963.25           1399       10515.00     45880.89
  181.34        2963.50           1402       12354.00     53921.51
  181.37        2963.75           1406       14649.00     63961.33
  181.40        2964.00           1409       16623.00     72601.73
  181.43        2964.25           1412       18598.00     81250.99
  181.47        2964.50           1416       20915.00     91403.74
  181.50        2964.75           1419       22563.00     98628.81
  181.53        2965.00           1422       24306.00    106273.80
  181.56        2965.25           1426       26592.00    116305.70
  181.59        2965.50           1429       28471.00    124556.10
  181.62        2965.75           1432       29980.00    131184.90
  181.65        2966.00           1436       32166.00    140792.20
  181.68        2966.25           1439       33796.00    147959.60
  181.71        2966.50           1442       35019.00    153339.40
  181.74        2966.75           1446       36708.00    160771.80
  181.78        2967.00           1449       36931.00    161753.40
  181.81        2967.25           1452       36823.00    161278.00
  181.84        2967.50           1456       37088.00    162444.50
  181.87        2967.75           1459       36926.00    161731.40
  181.90        2968.00           1462       36487.00    159799.10
  181.93        2968.25           1466       35263.00    154412.90
  181.96        2968.50           1469       33753.00    147770.50
  181.99        2968.75           1472       32205.00    140963.70
  182.02        2969.00           1476       30174.00    132037.30
  182.06        2969.25           1479       28307.00    123835.80
  182.09        2969.50           1482       26829.00    117346.10
  182.12        2969.75           1486       24408.00    106721.30
  182.15        2970.00           1489       22806.00     99694.41
  182.18        2970.25           1492       20950.00     91557.16
  182.21        2970.50           1496       18893.00     82543.30
  182.24        2970.75           1499       17084.00     74620.22
  182.27        2971.00           1502       15404.00     67265.51
  182.30        2971.25           1506       13033.00     56891.26
  182.33        2971.50           1509       11271.00     49185.87
  182.36        2971.75           1513        9038.00     39425.86
  182.40        2972.00           1516        7434.00     32418.61
  182.43        2972.25           1519        5862.00     25554.02
  182.46        2972.50           1523        3733.00     16261.64
  182.49        2972.75           1526        2182.00      9495.29
  182.52        2973.00           1529         972.00      4218.49
  182.55        2973.25           1533         462.00      1994.89
  182.58        2973.50           1536         340.00      1463.01
  182.61        2973.75           1539         306.00      1314.79
  182.64        2974.00           1543         229.00       979.10
  182.67        2974.25           1546         173.00       734.98
  182.71        2974.50           1549         140.00       591.12
  182.74        2974.75           1553          91.00       377.51
  182.77        2975.00           1556          63.00       255.45
  182.80        2975.25           1559          57.00       229.30
  182.83        2975.50           1563          55.00       220.58
  182.86        2975.75           1566          53.00       211.86
  182.89        2976.00           1569          50.00       198.78
  182.92        2976.25           1573          47.00       185.70
  182.95        2976.50           1576          50.00       198.78
  182.99        2976.75           1579          43.00       168.27
  183.02        2977.00           1583          55.00       220.58
  183.05        2977.25           1586          51.00       203.14
  183.08        2977.50           1590          49.00       194.42
  183.11        2977.75           1593          46.00       181.34
  183.14        2978.00           1596          47.00       185.70
  183.17        2978.25           1600          42.00       163.91
  183.20        2978.50           1603          40.00       155.19
  183.23        2978.75           1606          56.00       224.94
  183.26        2979.00           1610          53.00       211.86
  183.29        2979.25           1613          42.00       163.91
  183.32        2979.50           1616          47.00       185.70
  183.36        2979.75           1620          51.00       203.14
  183.39        2980.00           1623          47.00       185.70
  183.42        2980.25           1626          46.00       181.34
  183.45        2980.50           1630          42.00       163.91
  183.48        2980.75           1633          42.00       163.91
  183.51        2981.00           1637          39.00       150.83
  183.54        2981.25           1640          38.00       146.47
  183.57        2981.50           1643          46.00       181.34
  183.60        2981.75           1647          44.00       172.63
  183.63        2982.00           1650          43.00       168.27
  183.66        2982.25           1653          45.00       176.98
  183.69        2982.50           1657          52.00       207.50
  183.72        2982.75           1660          39.00       150.83
  183.76        2983.00           1663          46.00       181.34
  183.79        2983.25           1667          41.00       159.55
  183.82        2983.50           1670          61.00       246.73
  183.85        2983.75           1673          48.00       190.06
  183.88        2984.00           1677          47.00       185.70
HS scan finished at 03:04:06
end
************************************************************
  HS Scan of (1) Internal mercury lamp
************************************************************
Integration time is 0.2294 seconds per sample
dh020517Manchester 53.47 2.23 2.804185pr1000
************************************************************
Dead Time -------------------------  3E-08 
Number of Cycles Used -------------  4 
Starting Wavelength (Angstroms) ---  2950 
Final Wavelength (Angstoms) -------  2984 
Wavelength Increment (Angstroms) --  .25 
Filter Wheel #1 Position ---------- (1) Ground quartz diffuser (ND=2.32)
Filter Wheel #2 Position ---------- (1) Neutral Density 0.494



************************************************************
HS scan start time = 20:43:16
Dark Count =  8.5 


Time (GMT)  Wavelength (Ang)  Step Number  Raw Counts  Counts/Second

 1243.64        2950.00           1222          42.00       146.03
 1243.71        2950.25           1226          47.00       167.83
 1243.74        2950.50           1229          50.00       180.91
 1243.77        2950.75           1232          53.00       193.99
 1243.80        2951.00           1236          45.00       159.11
 1243.83        2951.25           1239          47.00       167.83
 1243.86        2951.50           1242          48.00       172.19
 1243.89        2951.75           1246          46.00       163.47
 1243.92        2952.00           1249          51.00       185.27
 1243.95        2952.25           1252          60.00       224.50
 1243.98        2952.50           1256          44.00       154.75
 1244.02        2952.75           1259          46.00       163.47
 1244.05        2953.00           1262          45.00       159.11
 1244.08        2953.25           1266          43.00       150.39
 1244.11        2953.50           1269          45.00       159.11
 1244.14        2953.75           1272          51.00       185.27
 1244.17        2954.00           1276          44.00       154.75
 1244.20        2954.25           1279          45.00       159.11
 1244.23        2954.50           1282          56.00       207.06
 1244.26        2954.75           1286          46.00       163.47
 1244.29        2955.00           1289          47.00       167.83
 1244.32        2955.25           1292          46.00       163.47
 1244.36        2955.50           1296          48.00       172.19
 1244.39        2955.75           1299          39.00       132.96
 1244.42        2956.00           1302          55.00       202.70
 1244.45        2956.25           1306          45.00       159.11
 1244.48        2956.50           1309          44.00       154.75
 1244.51        2956.75           1312          50.00       180.91
 1244.54        2957.00           1316          45.00       159.11
 1244.57        2957.25           1319          44.00       154.75
 1244.60        2957.50           1322          48.00       172.19
 1244.63        2957.75           1326          45.00       159.11
 1244.67        2958.00           1329          51.00       185.27
 1244.70        2958.25           1332          49.00       176.55
 1244.73        2958.50           1336          43.00       150.39
 1244.76        2958.75           1339          44.00       154.75
 1244.79        2959.00           1342          52.00       189.63
 1244.82        2959.25           1346          61.00       228.86
 1244.85        2959.50           1349          65.00       246.30
 1244.88        2959.75           1352          69.00       263.73
 1244.91        2960.00           1356         105.00       420.67
 1244.94        2960.25           1359         143.00       586.32
 1244.97        2960.50           1362         180.00       747.62
 1245.00        2960.75           1366         230.00       965.59
 1245.04        2961.00           1369         271.00      1144.33
 1245.07        2961.25           1372         319.00      1353.59
 1245.10        2961.50           1376         418.00      1785.19
 1245.13        2961.75           1379         495.00      2120.88
 1245.16        2962.00           1382         872.00      3764.59
 1245.19        2962.25           1386        2255.00      9795.82
 1245.22        2962.50           1389        3744.00     16291.75
 1245.25        2962.75           1392        5310.00     23126.33
 1245.28        2963.00           1396        7489.00     32640.93
 1245.31        2963.25           1399        9198.00     40107.08
 1245.35        2963.50           1402       10779.00     47017.02
 1245.38        2963.75           1406       13007.00     56759.60
 1245.41        2964.00           1409       14961.00     65308.75
 1245.44        2964.25           1412       16668.00     72780.80
 1245.47        2964.50           1416       18816.00     82188.02
 1245.50        2964.75           1419       20449.00     89343.33
 1245.53        2965.00           1422       22070.00     96449.11
 1245.56        2965.25           1426       24429.00    106795.40
 1245.59        2965.50           1429       25906.00    113276.60
 1245.62        2965.75           1432       27565.00    120559.50
 1245.66        2966.00           1436       29948.00    131026.20
 1245.69        2966.25           1439       31645.00    138483.90
 1245.72        2966.50           1442       33370.00    146068.10
 1245.75        2966.75           1446       35099.00    153673.30
 1245.78        2967.00           1449       36123.00    158179.10
 1245.81        2967.25           1452       36320.00    159046.10
 1245.84        2967.50           1456       36435.00    159552.20
 1245.87        2967.75           1459       36588.00    160225.60
 1245.90        2968.00           1462       36453.00    159631.40
 1245.94        2968.25           1466       35975.00    157527.80
 1245.97        2968.50           1469       34748.00    152129.10
 1246.00        2968.75           1472       33324.00    145865.80
 1246.03        2969.00           1476       31091.00    136048.90
 1246.06        2969.25           1479       29400.00    128618.70
 1246.09        2969.50           1482       27867.00    121885.60
 1246.12        2969.75           1486       25448.00    111266.60
 1246.15        2970.00           1489       23977.00    104812.50
 1246.18        2970.25           1492       22213.00     97076.12
 1246.22        2970.50           1496       19955.00     87178.44
 1246.25        2970.75           1499       18460.00     80628.53
 1246.28        2971.00           1502       16738.00     73087.28
 1246.31        2971.25           1506       14446.00     63055.09
 1246.34        2971.50           1509       12791.00     55814.83
 1246.37        2971.75           1513       10402.00     45369.03
 1246.40        2972.00           1516        8802.00     38376.77
 1246.43        2972.25           1519        6993.00     30474.67
 1246.46        2972.50           1523        4727.00     20581.58
 1246.50        2972.75           1526        3255.00     14158.15
 1246.53        2973.00           1529        1729.00      7501.69
 1246.56        2973.25           1533         586.00      2517.63
 1246.59        2973.50           1536         370.00      1575.92
 1246.62        2973.75           1539         304.00      1288.19
 1246.65        2974.00           1543         226.00       948.15
 1246.68        2974.25           1546         179.00       743.26
 1246.71        2974.50           1549         123.00       499.14
 1246.74        2974.75           1553          88.00       346.56
 1246.77        2975.00           1556          65.00       246.30
 1246.81        2975.25           1559          53.00       193.99
 1246.84        2975.50           1563          51.00       185.27
 1246.87        2975.75           1566          47.00       167.83
 1246.90        2976.00           1569          46.00       163.47
 1246.93        2976.25           1573          52.00       189.63
 1246.96        2976.50           1576          51.00       185.27
 1246.99        2976.75           1579          52.00       189.63
 1247.02        2977.00           1583          43.00       150.39
 1247.05        2977.25           1586          46.00       163.47
 1247.08        2977.50           1590          43.00       150.39
 1247.11        2977.75           1593          44.00       154.75
 1247.14        2978.00           1596          47.00       167.83
 1247.17        2978.25           1600          46.00       163.47
 1247.21        2978.50           1603          48.00       172.19
 1247.24        2978.75           1606          49.00       176.55
 1247.27        2979.00           1610          41.00       141.67
 1247.30        2979.25           1613          40.00       137.32
 1247.33        2979.50           1616          53.00       193.99
 1247.36        2979.75           1620          41.00       141.67
 1247.39        2980.00           1623          43.00       150.39
 1247.42        2980.25           1626          40.00       137.32
 1247.45        2980.50           1630          49.00       176.55
 1247.48        2980.75           1633          48.00       172.19
 1247.51        2981.00           1637          47.00       167.83
 1247.54        2981.25           1640          41.00       141.67
 1247.57        2981.50           1643          49.00       176.55
 1247.60        2981.75           1647          53.00       193.99
 1247.64        2982.00           1650          48.00       172.19
 1247.67        2982.25           1653          41.00       141.67
 1247.70        2982.50           1657          44.00       154.75
 1247.73        2982.75           1660          41.00       141.67
 1247.76        2983.00           1663          45.00       159.11
 1247.79        2983.25           1667          48.00       172.19
 1247.82        2983.50           1670          41.00       141.67
 1247.85        2983.75           1673          50.00       180.91
 1247.88        2984.00           1677          49.00       176.55
HS scan finished at 20:48:06
end
