************************************************************
  HS Scan of (1) Internal mercury lamp
************************************************************
Integration time is 0.2294 seconds per sample
dh070518Manchester 53.47 2.23 2.857833pr1000
************************************************************
Dead Time -------------------------  3E-08 
Number of Cycles Used -------------  4 
Starting Wavelength (Angstroms) ---  2950 
Final Wavelength (Angstoms) -------  2984 
Wavelength Increment (Angstroms) --  .25 
Filter Wheel #1 Position ---------- (1) Ground quartz diffuser (ND=2.32)
Filter Wheel #2 Position ---------- (1) Neutral Density 0.494



************************************************************
HS scan start time = 01:33:29
Dark Count =  8.2 


Time (GMT)  Wavelength (Ang)  Step Number  Raw Counts  Counts/Second

   93.86        2950.00           1222          63.00       238.89
   93.92        2950.25           1226          61.00       230.17
   93.95        2950.50           1229          59.00       221.45
   93.98        2950.75           1232          61.00       230.17
   94.02        2951.00           1236          61.00       230.17
   94.05        2951.25           1239          55.00       204.01
   94.08        2951.50           1242          64.00       243.25
   94.11        2951.75           1246          59.00       221.45
   94.14        2952.00           1249          50.00       182.22
   94.17        2952.25           1252          75.00       291.20
   94.20        2952.50           1256          59.00       221.45
   94.23        2952.75           1259          60.00       225.81
   94.26        2953.00           1262          67.00       256.32
   94.29        2953.25           1266          60.00       225.81
   94.32        2953.50           1269          53.00       195.29
   94.35        2953.75           1272          51.00       186.57
   94.39        2954.00           1276          59.00       221.45
   94.42        2954.25           1279          61.00       230.17
   94.45        2954.50           1282          52.00       190.93
   94.48        2954.75           1286          59.00       221.45
   94.51        2955.00           1289          61.00       230.17
   94.54        2955.25           1292          54.00       199.65
   94.57        2955.50           1296          50.00       182.22
   94.60        2955.75           1299          54.00       199.65
   94.63        2956.00           1302          59.00       221.45
   94.66        2956.25           1306          57.00       212.73
   94.69        2956.50           1309          59.00       221.45
   94.72        2956.75           1312          60.00       225.81
   94.75        2957.00           1316          65.00       247.60
   94.78        2957.25           1319          56.00       208.37
   94.82        2957.50           1322          55.00       204.01
   94.85        2957.75           1326          61.00       230.17
   94.88        2958.00           1329          67.00       256.32
   94.91        2958.25           1332          65.00       247.60
   94.94        2958.50           1336          55.00       204.01
   94.97        2958.75           1339          55.00       204.01
   95.00        2959.00           1342          55.00       204.01
   95.03        2959.25           1346          61.00       230.17
   95.06        2959.50           1349          59.00       221.45
   95.09        2959.75           1352          70.00       269.40
   95.12        2960.00           1356          83.00       326.07
   95.15        2960.25           1359         105.00       421.98
   95.18        2960.50           1362         140.00       574.55
   95.21        2960.75           1366         197.00       823.04
   95.24        2961.00           1369         229.00       962.54
   95.28        2961.25           1372         256.00      1080.24
   95.31        2961.50           1376         333.00      1415.93
   95.34        2961.75           1379         417.00      1782.14
   95.37        2962.00           1382         788.00      3399.65
   95.40        2962.25           1386        2169.00      9422.02
   95.43        2962.50           1389        3522.00     15324.39
   95.46        2962.75           1392        5004.00     21791.92
   95.49        2963.00           1396        6875.00     29960.66
   95.52        2963.25           1399        8249.00     35962.06
   95.55        2963.50           1402        9775.00     42629.90
   95.59        2963.75           1406       11744.00     51237.37
   95.62        2964.00           1409       13423.00     58580.63
   95.65        2964.25           1412       15095.00     65896.50
   95.68        2964.50           1416       17071.00     74546.66
   95.71        2964.75           1419       18595.00     81221.21
   95.74        2965.00           1422       20248.00     88463.76
   95.77        2965.25           1426       22076.00     96476.74
   95.80        2965.50           1429       23667.00    103454.00
   95.83        2965.75           1432       25106.00    109767.20
   95.86        2966.00           1436       27086.00    118457.70
   95.89        2966.25           1439       28499.00    124662.40
   95.93        2966.50           1442       29693.00    129907.20
   95.96        2966.75           1446       31376.00    137302.90
   95.99        2967.00           1449       32103.00    140498.50
   96.02        2967.25           1452       32290.00    141320.60
   96.05        2967.50           1456       32050.00    140265.50
   96.08        2967.75           1459       32137.00    140648.00
   96.11        2968.00           1462       32284.00    141294.30
   96.14        2968.25           1466       31322.00    137065.50
   96.17        2968.50           1469       30585.00    133826.50
   96.20        2968.75           1472       29060.00    127126.50
   96.24        2969.00           1476       27113.00    118576.30
   96.27        2969.25           1479       25800.00    112812.70
   96.30        2969.50           1482       24190.00    105748.20
   96.33        2969.75           1486       22266.00     97309.83
   96.36        2970.00           1489       20811.00     90931.25
   96.39        2970.25           1492       19340.00     84485.01
   96.42        2970.50           1496       17445.00     76184.40
   96.45        2970.75           1499       15939.00     69590.65
   96.48        2971.00           1502       14455.00     63095.78
   96.51        2971.25           1506       12395.00     54084.20
   96.54        2971.50           1509       11068.00     48281.74
   96.58        2971.75           1513        9113.00     39736.97
   96.61        2972.00           1516        7760.00     33825.94
   96.64        2972.25           1519        6340.00     27624.45
   96.67        2972.50           1523        4356.00     18963.71
   96.70        2972.75           1526        2909.00     12649.96
   96.73        2973.00           1529        1617.00      7014.55
   96.76        2973.25           1533         554.00      2379.42
   96.79        2973.50           1536         368.00      1568.51
   96.82        2973.75           1539         325.00      1381.05
   96.85        2974.00           1543         270.00      1141.28
   96.88        2974.25           1546         212.00       888.43
   96.91        2974.50           1549         166.00       687.90
   96.95        2974.75           1553         116.00       469.93
   96.98        2975.00           1556         104.00       417.62
   97.01        2975.25           1559          71.00       273.76
   97.04        2975.50           1563          59.00       221.45
   97.07        2975.75           1566          55.00       204.01
   97.10        2976.00           1569          55.00       204.01
   97.13        2976.25           1573          55.00       204.01
   97.16        2976.50           1576          53.00       195.29
   97.19        2976.75           1579          54.00       199.65
   97.22        2977.00           1583          52.00       190.93
   97.25        2977.25           1586          54.00       199.65
   97.28        2977.50           1590          60.00       225.81
   97.31        2977.75           1593          50.00       182.22
   97.34        2978.00           1596          57.00       212.73
   97.38        2978.25           1600          56.00       208.37
   97.41        2978.50           1603          52.00       190.93
   97.44        2978.75           1606          53.00       195.29
   97.47        2979.00           1610          51.00       186.57
   97.50        2979.25           1613          53.00       195.29
   97.53        2979.50           1616          57.00       212.73
   97.56        2979.75           1620          58.00       217.09
   97.59        2980.00           1623          56.00       208.37
   97.62        2980.25           1626          57.00       212.73
   97.66        2980.50           1630          52.00       190.93
   97.69        2980.75           1633          53.00       195.29
   97.72        2981.00           1637          56.00       208.37
   97.75        2981.25           1640          50.00       182.22
   97.78        2981.50           1643          54.00       199.65
   97.81        2981.75           1647          47.00       169.14
   97.84        2982.00           1650          52.00       190.93
   97.87        2982.25           1653          51.00       186.57
   97.90        2982.50           1657          46.00       164.78
   97.93        2982.75           1660          57.00       212.73
   97.97        2983.00           1663          51.00       186.57
   98.00        2983.25           1667          53.00       195.29
   98.03        2983.50           1670          55.00       204.01
   98.06        2983.75           1673          58.00       217.09
   98.09        2984.00           1677          59.00       221.45
HS scan finished at 01:38:18
end
************************************************************
  HS Scan of (1) Internal mercury lamp
************************************************************
Integration time is 0.2294 seconds per sample
dh070518Manchester 53.47 2.23 3.179721pr1000
************************************************************
Dead Time -------------------------  3E-08 
Number of Cycles Used -------------  4 
Starting Wavelength (Angstroms) ---  2950 
Final Wavelength (Angstoms) -------  2984 
Wavelength Increment (Angstroms) --  .25 
Filter Wheel #1 Position ---------- (1) Ground quartz diffuser (ND=2.32)
Filter Wheel #2 Position ---------- (1) Neutral Density 0.494



************************************************************
HS scan start time = 20:43:22
Dark Count =  5.2 


Time (GMT)  Wavelength (Ang)  Step Number  Raw Counts  Counts/Second

 1243.74        2950.00           1222          51.00       199.65
 1243.81        2950.25           1226          59.00       234.53
 1243.84        2950.50           1229          51.00       199.65
 1243.87        2950.75           1232          58.00       230.17
 1243.90        2951.00           1236          57.00       225.81
 1243.93        2951.25           1239          62.00       247.60
 1243.96        2951.50           1242          57.00       225.81
 1243.99        2951.75           1246          62.00       247.60
 1244.02        2952.00           1249          61.00       243.25
 1244.05        2952.25           1252          51.00       199.65
 1244.09        2952.50           1256          60.00       238.89
 1244.12        2952.75           1259          52.00       204.01
 1244.15        2953.00           1262          60.00       238.89
 1244.18        2953.25           1266          60.00       238.89
 1244.21        2953.50           1269          63.00       251.96
 1244.24        2953.75           1272          56.00       221.45
 1244.27        2954.00           1276          54.00       212.73
 1244.30        2954.25           1279          58.00       230.17
 1244.33        2954.50           1282          57.00       225.81
 1244.36        2954.75           1286          56.00       221.45
 1244.39        2955.00           1289          59.00       234.53
 1244.43        2955.25           1292          53.00       208.37
 1244.46        2955.50           1296          59.00       234.53
 1244.49        2955.75           1299          56.00       221.45
 1244.52        2956.00           1302          58.00       230.17
 1244.55        2956.25           1306          56.00       221.45
 1244.58        2956.50           1309          52.00       204.01
 1244.61        2956.75           1312          69.00       278.12
 1244.64        2957.00           1316          53.00       208.37
 1244.67        2957.25           1319          62.00       247.60
 1244.70        2957.50           1322          52.00       204.01
 1244.74        2957.75           1326          60.00       238.89
 1244.77        2958.00           1329          58.00       230.17
 1244.80        2958.25           1332          61.00       243.25
 1244.83        2958.50           1336          64.00       256.32
 1244.86        2958.75           1339          54.00       212.73
 1244.89        2959.00           1342          55.00       217.09
 1244.92        2959.25           1346          73.00       295.56
 1244.95        2959.50           1349          71.00       286.84
 1244.98        2959.75           1352          75.00       304.27
 1245.01        2960.00           1356         105.00       435.05
 1245.04        2960.25           1359         152.00       639.94
 1245.07        2960.50           1362         192.00       814.32
 1245.11        2960.75           1366         244.00      1041.01
 1245.14        2961.00           1369         294.00      1258.98
 1245.17        2961.25           1372         342.00      1468.24
 1245.20        2961.50           1376         377.00      1620.83
 1245.23        2961.75           1379         499.00      2152.71
 1245.26        2962.00           1382         890.00      3857.46
 1245.29        2962.25           1386        2482.00     10800.36
 1245.32        2962.50           1389        4163.00     18134.54
 1245.35        2962.75           1392        5778.00     25183.80
 1245.39        2963.00           1396        8029.00     35014.09
 1245.42        2963.25           1399        9595.00     41856.36
 1245.45        2963.50           1402       11274.00     49195.49
 1245.48        2963.75           1406       13522.00     59026.84
 1245.51        2964.00           1409       15243.00     66557.35
 1245.54        2964.25           1412       16975.00     74139.44
 1245.57        2964.50           1416       19295.00     84300.99
 1245.60        2964.75           1419       21012.00     91825.41
 1245.63        2965.00           1422       22693.00     99195.38
 1245.67        2965.25           1426       24841.00    108617.50
 1245.70        2965.50           1429       26530.00    116030.10
 1245.73        2965.75           1432       28133.00    123068.20
 1245.76        2966.00           1436       30545.00    133664.00
 1245.79        2966.25           1439       32233.00    141083.20
 1245.82        2966.50           1442       33716.00    147604.20
 1245.85        2966.75           1446       35606.00    155918.60
 1245.88        2967.00           1449       36036.00    157810.80
 1245.91        2967.25           1452       36333.00    159117.80
 1245.94        2967.50           1456       36290.00    158928.60
 1245.98        2967.75           1459       36293.00    158941.80
 1246.01        2968.00           1462       36162.00    158365.30
 1246.04        2968.25           1466       35654.00    156129.80
 1246.07        2968.50           1469       34249.00    149948.60
 1246.10        2968.75           1472       32436.00    141975.70
 1246.13        2969.00           1476       30278.00    132490.70
 1246.16        2969.25           1479       28601.00    125123.60
 1246.19        2969.50           1482       27095.00    118510.40
 1246.22        2969.75           1486       24861.00    108705.30
 1246.26        2970.00           1489       23291.00    101817.90
 1246.29        2970.25           1492       21576.00     94297.78
 1246.32        2970.50           1496       19493.00     85168.52
 1246.35        2970.75           1499       17928.00     78312.81
 1246.38        2971.00           1502       16280.00     71096.56
 1246.41        2971.25           1506       13994.00     61091.81
 1246.44        2971.50           1509       12135.00     52960.28
 1246.47        2971.75           1513        9824.00     42857.16
 1246.50        2972.00           1516        8229.00     35887.79
 1246.53        2972.25           1519        6658.00     29026.14
 1246.57        2972.50           1523        4568.00     19902.03
 1246.60        2972.75           1526        3033.00     13204.01
 1246.63        2973.00           1529        1508.00      6552.29
 1246.66        2973.25           1533         512.00      2209.39
 1246.69        2973.50           1536         359.00      1542.36
 1246.72        2973.75           1539         300.00      1285.14
 1246.75        2974.00           1543         231.00       984.34
 1246.78        2974.25           1546         174.00       735.85
 1246.81        2974.50           1549         133.00       557.11
 1246.84        2974.75           1553          95.00       391.46
 1246.88        2975.00           1556          74.00       299.92
 1246.91        2975.25           1559          53.00       208.37
 1246.94        2975.50           1563          53.00       208.37
 1246.97        2975.75           1566          62.00       247.60
 1247.00        2976.00           1569          58.00       230.17
 1247.03        2976.25           1573          62.00       247.60
 1247.06        2976.50           1576          56.00       221.45
 1247.09        2976.75           1579          53.00       208.37
 1247.12        2977.00           1583          55.00       217.09
 1247.16        2977.25           1586          53.00       208.37
 1247.19        2977.50           1590          48.00       186.57
 1247.22        2977.75           1593          55.00       217.09
 1247.25        2978.00           1596          52.00       204.01
 1247.28        2978.25           1600          57.00       225.81
 1247.31        2978.50           1603          56.00       221.45
 1247.34        2978.75           1606          66.00       265.04
 1247.37        2979.00           1610          49.00       190.93
 1247.40        2979.25           1613          49.00       190.93
 1247.43        2979.50           1616          52.00       204.01
 1247.47        2979.75           1620          51.00       199.65
 1247.50        2980.00           1623          51.00       199.65
 1247.53        2980.25           1626          51.00       199.65
 1247.56        2980.50           1630          55.00       217.09
 1247.59        2980.75           1633          54.00       212.73
 1247.62        2981.00           1637          61.00       243.25
 1247.65        2981.25           1640          53.00       208.37
 1247.68        2981.50           1643          51.00       199.65
 1247.71        2981.75           1647          58.00       230.17
 1247.74        2982.00           1650          52.00       204.01
 1247.78        2982.25           1653          49.00       190.93
 1247.81        2982.50           1657          55.00       217.09
 1247.84        2982.75           1660          53.00       208.37
 1247.87        2983.00           1663          51.00       199.65
 1247.90        2983.25           1667          51.00       199.65
 1247.93        2983.50           1670          57.00       225.81
 1247.96        2983.75           1673          58.00       230.17
 1247.99        2984.00           1677          56.00       221.45
HS scan finished at 20:48:13
end
