************************************************************
  HS Scan of (1) Internal mercury lamp
************************************************************
Integration time is 0.2294 seconds per sample
dh020518Manchester 53.47 2.23 2.804185pr1000
************************************************************
Dead Time -------------------------  3E-08 
Number of Cycles Used -------------  4 
Starting Wavelength (Angstroms) ---  2950 
Final Wavelength (Angstoms) -------  2984 
Wavelength Increment (Angstroms) --  .25 
Filter Wheel #1 Position ---------- (1) Ground quartz diffuser (ND=2.32)
Filter Wheel #2 Position ---------- (1) Neutral Density 0.494



************************************************************
HS scan start time = 01:33:45
Dark Count =  7.2 


Time (GMT)  Wavelength (Ang)  Step Number  Raw Counts  Counts/Second

   94.12        2950.00           1222          61.00       234.53
   94.19        2950.25           1226          62.00       238.89
   94.22        2950.50           1229          50.00       186.57
   94.25        2950.75           1232          54.00       204.01
   94.28        2951.00           1236          61.00       234.53
   94.31        2951.25           1239          58.00       221.45
   94.34        2951.50           1242          60.00       230.17
   94.37        2951.75           1246          55.00       208.37
   94.40        2952.00           1249          57.00       217.09
   94.44        2952.25           1252          62.00       238.89
   94.47        2952.50           1256          62.00       238.89
   94.50        2952.75           1259          54.00       204.01
   94.53        2953.00           1262          59.00       225.81
   94.56        2953.25           1266          62.00       238.89
   94.59        2953.50           1269          56.00       212.73
   94.62        2953.75           1272          58.00       221.45
   94.65        2954.00           1276          55.00       208.37
   94.68        2954.25           1279          54.00       204.01
   94.71        2954.50           1282          56.00       212.73
   94.74        2954.75           1286          55.00       208.37
   94.77        2955.00           1289          55.00       208.37
   94.80        2955.25           1292          63.00       243.25
   94.83        2955.50           1296          55.00       208.37
   94.86        2955.75           1299          61.00       234.53
   94.90        2956.00           1302          61.00       234.53
   94.93        2956.25           1306          65.00       251.96
   94.96        2956.50           1309          55.00       208.37
   94.99        2956.75           1312          54.00       204.01
   95.02        2957.00           1316          67.00       260.68
   95.05        2957.25           1319          66.00       256.32
   95.08        2957.50           1322          60.00       230.17
   95.11        2957.75           1326          48.00       177.86
   95.14        2958.00           1329          57.00       217.09
   95.17        2958.25           1332          64.00       247.60
   95.20        2958.50           1336          59.00       225.81
   95.24        2958.75           1339          62.00       238.89
   95.27        2959.00           1342          59.00       225.81
   95.30        2959.25           1346          64.00       247.60
   95.33        2959.50           1349          68.00       265.04
   95.36        2959.75           1352          85.00       339.15
   95.39        2960.00           1356         101.00       408.90
   95.42        2960.25           1359         141.00       583.27
   95.45        2960.50           1362         177.00       740.21
   95.48        2960.75           1366         212.00       892.79
   95.51        2961.00           1369         247.00      1045.37
   95.54        2961.25           1372         290.00      1232.83
   95.57        2961.50           1376         359.00      1533.64
   95.61        2961.75           1379         517.00      2222.47
   95.64        2962.00           1382        1127.00      4882.15
   95.67        2962.25           1386        2723.00     11842.92
   95.70        2962.50           1389        4136.00     18007.98
   95.73        2962.75           1392        5535.00     24114.21
   95.76        2963.00           1396        7390.00     32214.20
   95.79        2963.25           1399        8889.00     38762.58
   95.82        2963.50           1402       10201.00     44496.15
   95.85        2963.75           1406       12321.00     53764.94
   95.89        2964.00           1409       13973.00     60991.19
   95.92        2964.25           1412       15815.00     69052.23
   95.95        2964.50           1416       17864.00     78023.75
   95.98        2964.75           1419       19254.00     84112.59
   96.01        2965.00           1422       20804.00     90904.94
   96.04        2965.25           1426       22775.00     99546.19
   96.07        2965.50           1429       24327.00    106353.60
   96.10        2965.75           1432       25884.00    113185.80
   96.13        2966.00           1436       27899.00    122031.80
   96.16        2966.25           1439       29046.00    127069.40
   96.20        2966.50           1442       30551.00    133681.50
   96.23        2966.75           1446       31941.00    139790.80
   96.26        2967.00           1449       32275.00    141259.10
   96.29        2967.25           1452       32340.00    141544.90
   96.32        2967.50           1456       32530.00    142380.20
   96.35        2967.75           1459       32430.00    141940.50
   96.38        2968.00           1462       32081.00    140406.20
   96.41        2968.25           1466       31251.00    136757.90
   96.44        2968.50           1469       30036.00    131418.60
   96.48        2968.75           1472       28814.00    126050.30
   96.51        2969.00           1476       26839.00    117377.70
   96.54        2969.25           1479       25305.00    110644.80
   96.57        2969.50           1482       23882.00    104401.50
   96.60        2969.75           1486       21828.00     95393.81
   96.63        2970.00           1489       20328.00     88818.75
   96.66        2970.25           1492       19100.00     83437.90
   96.69        2970.50           1496       17142.00     74861.94
   96.72        2970.75           1499       15449.00     67450.21
   96.75        2971.00           1502       13878.00     60575.55
   96.79        2971.25           1506       11964.00     52203.76
   96.82        2971.50           1509       10466.00     45654.47
   96.85        2971.75           1513        8452.00     36853.28
   96.88        2972.00           1516        7117.00     31021.89
   96.91        2972.25           1519        5523.00     24061.83
   96.94        2972.50           1523        3702.00     16114.15
   96.97        2972.75           1526        2270.00      9866.91
   97.00        2973.00           1529         987.00      4271.69
   97.03        2973.25           1533         442.00      1895.49
   97.06        2973.50           1536         327.00      1394.13
   97.09        2973.75           1539         284.00      1206.67
   97.12        2974.00           1543         252.00      1067.17
   97.16        2974.25           1546         175.00       731.49
   97.19        2974.50           1549         132.00       544.04
   97.22        2974.75           1553          95.00       382.74
   97.25        2975.00           1556          76.00       299.92
   97.28        2975.25           1559          83.00       330.43
   97.31        2975.50           1563          54.00       204.01
   97.34        2975.75           1566          55.00       208.37
   97.37        2976.00           1569          54.00       204.01
   97.40        2976.25           1573          60.00       230.17
   97.43        2976.50           1576          57.00       217.09
   97.46        2976.75           1579          56.00       212.73
   97.49        2977.00           1583          56.00       212.73
   97.52        2977.25           1586          60.00       230.17
   97.55        2977.50           1590          55.00       208.37
   97.58        2977.75           1593          66.00       256.32
   97.61        2978.00           1596          51.00       190.93
   97.65        2978.25           1600          52.00       195.29
   97.68        2978.50           1603          63.00       243.25
   97.71        2978.75           1606          57.00       217.09
   97.74        2979.00           1610          48.00       177.86
   97.77        2979.25           1613          55.00       208.37
   97.80        2979.50           1616          56.00       212.73
   97.83        2979.75           1620          54.00       204.01
   97.86        2980.00           1623          57.00       217.09
   97.89        2980.25           1626          56.00       212.73
   97.92        2980.50           1630          46.00       169.14
   97.95        2980.75           1633          50.00       186.57
   97.98        2981.00           1637          55.00       208.37
   98.01        2981.25           1640          49.00       182.22
   98.05        2981.50           1643          55.00       208.37
   98.08        2981.75           1647          43.00       156.06
   98.11        2982.00           1650          56.00       212.73
   98.14        2982.25           1653          56.00       212.73
   98.17        2982.50           1657          57.00       217.09
   98.20        2982.75           1660          48.00       177.86
   98.23        2983.00           1663          50.00       186.57
   98.26        2983.25           1667          50.00       186.57
   98.29        2983.50           1670          47.00       173.50
   98.32        2983.75           1673          50.00       186.57
   98.35        2984.00           1677          53.00       199.65
HS scan finished at 01:38:34
end
************************************************************
  HS Scan of (1) Internal mercury lamp
************************************************************
Integration time is 0.2294 seconds per sample
dh020518Manchester 53.47 2.23 2.804185pr1000
************************************************************
Dead Time -------------------------  3E-08 
Number of Cycles Used -------------  4 
Starting Wavelength (Angstroms) ---  2950 
Final Wavelength (Angstoms) -------  2984 
Wavelength Increment (Angstroms) --  .25 
Filter Wheel #1 Position ---------- (1) Ground quartz diffuser (ND=2.32)
Filter Wheel #2 Position ---------- (1) Neutral Density 0.494



************************************************************
HS scan start time = 20:42:02
Dark Count =  4.9 


Time (GMT)  Wavelength (Ang)  Step Number  Raw Counts  Counts/Second

 1242.41        2950.00           1222          58.00       231.48
 1242.48        2950.25           1226          64.00       257.63
 1242.51        2950.50           1229          63.00       253.27
 1242.54        2950.75           1232          58.00       231.48
 1242.57        2951.00           1236          55.00       218.40
 1242.60        2951.25           1239          65.00       261.99
 1242.63        2951.50           1242          65.00       261.99
 1242.66        2951.75           1246          61.00       244.55
 1242.69        2952.00           1249          60.00       240.19
 1242.72        2952.25           1252          67.00       270.71
 1242.76        2952.50           1256          68.00       275.07
 1242.79        2952.75           1259          66.00       266.35
 1242.82        2953.00           1262          61.00       244.55
 1242.85        2953.25           1266          61.00       244.55
 1242.88        2953.50           1269          65.00       261.99
 1242.91        2953.75           1272          54.00       214.04
 1242.94        2954.00           1276          47.00       183.52
 1242.97        2954.25           1279          59.00       235.83
 1243.00        2954.50           1282          62.00       248.91
 1243.03        2954.75           1286          62.00       248.91
 1243.06        2955.00           1289          55.00       218.40
 1243.09        2955.25           1292          65.00       261.99
 1243.12        2955.50           1296          60.00       240.19
 1243.15        2955.75           1299          59.00       235.83
 1243.18        2956.00           1302          65.00       261.99
 1243.22        2956.25           1306          64.00       257.63
 1243.25        2956.50           1309          67.00       270.71
 1243.28        2956.75           1312          58.00       231.48
 1243.31        2957.00           1316          56.00       222.76
 1243.34        2957.25           1319          64.00       257.63
 1243.37        2957.50           1322          58.00       231.48
 1243.40        2957.75           1326          56.00       222.76
 1243.43        2958.00           1329          61.00       244.55
 1243.46        2958.25           1332          58.00       231.48
 1243.49        2958.50           1336          66.00       266.35
 1243.52        2958.75           1339          58.00       231.48
 1243.55        2959.00           1342          55.00       218.40
 1243.58        2959.25           1346          65.00       261.99
 1243.61        2959.50           1349          59.00       235.83
 1243.64        2959.75           1352          88.00       362.25
 1243.68        2960.00           1356         107.00       445.08
 1243.71        2960.25           1359         136.00       571.50
 1243.74        2960.50           1362         164.00       693.56
 1243.77        2960.75           1366         225.00       959.49
 1243.80        2961.00           1369         286.00      1225.42
 1243.83        2961.25           1372         282.00      1207.98
 1243.86        2961.50           1376         376.00      1617.78
 1243.89        2961.75           1379         492.00      2123.50
 1243.92        2962.00           1382        1039.00      4508.46
 1243.95        2962.25           1386        2590.00     11272.77
 1243.99        2962.50           1389        4037.00     17586.00
 1244.02        2962.75           1392        5500.00     23971.46
 1244.05        2963.00           1396        7331.00     31966.57
 1244.08        2963.25           1399        8909.00     38860.01
 1244.11        2963.50           1402       10482.00     45734.46
 1244.14        2963.75           1406       12384.00     54050.52
 1244.17        2964.00           1409       13908.00     60716.86
 1244.20        2964.25           1412       15363.00     67083.87
 1244.23        2964.50           1416       17412.00     76054.33
 1244.27        2964.75           1419       18819.00     82216.93
 1244.30        2965.00           1422       20287.00     88649.13
 1244.33        2965.25           1426       22189.00     96986.66
 1244.36        2965.50           1429       23711.00    103661.50
 1244.39        2965.75           1432       25163.00    110031.80
 1244.42        2966.00           1436       27575.00    120619.20
 1244.45        2966.25           1439       28645.00    125318.10
 1244.48        2966.50           1442       29943.00    131020.10
 1244.51        2966.75           1446       31621.00    138394.20
 1244.55        2967.00           1449       31841.00    139361.30
 1244.58        2967.25           1452       31951.00    139844.90
 1244.61        2967.50           1456       31934.00    139770.10
 1244.64        2967.75           1459       31805.00    139203.10
 1244.67        2968.00           1462       31587.00    138244.80
 1244.70        2968.25           1466       30957.00    135475.80
 1244.73        2968.50           1469       29604.00    129530.70
 1244.76        2968.75           1472       28231.00    123499.90
 1244.79        2969.00           1476       26197.00    114569.70
 1244.83        2969.25           1479       24927.00    108996.20
 1244.86        2969.50           1482       23379.00    102205.20
 1244.89        2969.75           1486       21504.00     93983.44
 1244.92        2970.00           1489       20041.00     87571.09
 1244.95        2970.25           1492       18715.00     81761.33
 1244.98        2970.50           1496       16672.00     72814.07
 1245.01        2970.75           1499       15221.00     66462.38
 1245.04        2971.00           1502       13801.00     60248.73
 1245.07        2971.25           1506       11793.00     51466.07
 1245.11        2971.50           1509       10135.00     44217.73
 1245.14        2971.75           1513        8373.00     36518.19
 1245.17        2972.00           1516        6862.00     29918.30
 1245.20        2972.25           1519        5251.00     22884.50
 1245.23        2972.50           1523        3310.00     14413.82
 1245.26        2972.75           1526        1940.00      8437.62
 1245.29        2973.00           1529         833.00      3610.24
 1245.32        2973.25           1533         407.00      1752.93
 1245.35        2973.50           1536         302.00      1295.17
 1245.38        2973.75           1539         263.00      1125.15
 1245.41        2974.00           1543         207.00       881.02
 1245.44        2974.25           1546         154.00       649.97
 1245.48        2974.50           1549         116.00       484.31
 1245.51        2974.75           1553          92.00       379.69
 1245.54        2975.00           1556          70.00       283.79
 1245.57        2975.25           1559          67.00       270.71
 1245.60        2975.50           1563          66.00       266.35
 1245.63        2975.75           1566          54.00       214.04
 1245.66        2976.00           1569          52.00       205.32
 1245.69        2976.25           1573          57.00       227.12
 1245.72        2976.50           1576          56.00       222.76
 1245.75        2976.75           1579          51.00       200.96
 1245.78        2977.00           1583          56.00       222.76
 1245.81        2977.25           1586          59.00       235.83
 1245.84        2977.50           1590          58.00       231.48
 1245.87        2977.75           1593          58.00       231.48
 1245.90        2978.00           1596          59.00       235.83
 1245.94        2978.25           1600          56.00       222.76
 1245.97        2978.50           1603          49.00       192.24
 1246.00        2978.75           1606          50.00       196.60
 1246.03        2979.00           1610          57.00       227.12
 1246.06        2979.25           1613          63.00       253.27
 1246.09        2979.50           1616          59.00       235.83
 1246.12        2979.75           1620          57.00       227.12
 1246.15        2980.00           1623          52.00       205.32
 1246.18        2980.25           1626          57.00       227.12
 1246.21        2980.50           1630          60.00       240.19
 1246.24        2980.75           1633          49.00       192.24
 1246.27        2981.00           1637          60.00       240.19
 1246.30        2981.25           1640          53.00       209.68
 1246.33        2981.50           1643          56.00       222.76
 1246.37        2981.75           1647          62.00       248.91
 1246.40        2982.00           1650          54.00       214.04
 1246.43        2982.25           1653          52.00       205.32
 1246.46        2982.50           1657          48.00       187.88
 1246.49        2982.75           1660          52.00       205.32
 1246.52        2983.00           1663          46.00       179.16
 1246.55        2983.25           1667          52.00       205.32
 1246.58        2983.50           1670          50.00       196.60
 1246.61        2983.75           1673          56.00       222.76
 1246.64        2984.00           1677          56.00       222.76
HS scan finished at 20:46:52
end
