************************************************************
  HS Scan of (1) Internal mercury lamp
************************************************************
Integration time is 0.2294 seconds per sample
dh080518Manchester 53.47 2.23 2.965129pr1000
************************************************************
Dead Time -------------------------  3E-08 
Number of Cycles Used -------------  4 
Starting Wavelength (Angstroms) ---  2950 
Final Wavelength (Angstoms) -------  2984 
Wavelength Increment (Angstroms) --  .25 
Filter Wheel #1 Position ---------- (1) Ground quartz diffuser (ND=2.32)
Filter Wheel #2 Position ---------- (1) Neutral Density 0.494



************************************************************
HS scan start time = 01:33:43
Dark Count =  4.5 


Time (GMT)  Wavelength (Ang)  Step Number  Raw Counts  Counts/Second

   94.09        2950.00           1222          64.00       259.37
   94.16        2950.25           1226          59.00       237.58
   94.19        2950.50           1229          53.00       211.42
   94.22        2950.75           1232          52.00       207.06
   94.25        2951.00           1236          58.00       233.22
   94.29        2951.25           1239          55.00       220.14
   94.32        2951.50           1242          54.00       215.78
   94.35        2951.75           1246          64.00       259.37
   94.38        2952.00           1249          60.00       241.94
   94.41        2952.25           1252          60.00       241.94
   94.44        2952.50           1256          59.00       237.58
   94.47        2952.75           1259          59.00       237.58
   94.50        2953.00           1262          65.00       263.73
   94.53        2953.25           1266          62.00       250.66
   94.56        2953.50           1269          57.00       228.86
   94.60        2953.75           1272          58.00       233.22
   94.63        2954.00           1276          60.00       241.94
   94.66        2954.25           1279          57.00       228.86
   94.69        2954.50           1282          59.00       237.58
   94.72        2954.75           1286          50.00       198.34
   94.75        2955.00           1289          63.00       255.02
   94.78        2955.25           1292          55.00       220.14
   94.81        2955.50           1296          55.00       220.14
   94.84        2955.75           1299          63.00       255.02
   94.87        2956.00           1302          63.00       255.02
   94.91        2956.25           1306          57.00       228.86
   94.94        2956.50           1309          56.00       224.50
   94.97        2956.75           1312          59.00       237.58
   95.00        2957.00           1316          54.00       215.78
   95.03        2957.25           1319          59.00       237.58
   95.06        2957.50           1322          55.00       220.14
   95.09        2957.75           1326          56.00       224.50
   95.12        2958.00           1329          58.00       233.22
   95.15        2958.25           1332          63.00       255.02
   95.18        2958.50           1336          62.00       250.66
   95.22        2958.75           1339          56.00       224.50
   95.25        2959.00           1342          63.00       255.02
   95.28        2959.25           1346          65.00       263.73
   95.31        2959.50           1349          60.00       241.94
   95.34        2959.75           1352          79.00       324.76
   95.37        2960.00           1356         102.00       425.03
   95.40        2960.25           1359         130.00       547.09
   95.43        2960.50           1362         175.00       743.26
   95.46        2960.75           1366         242.00      1035.34
   95.50        2961.00           1369         265.00      1135.61
   95.53        2961.25           1372         339.00      1458.22
   95.56        2961.50           1376         445.00      1920.34
   95.59        2961.75           1379         875.00      3795.11
   95.62        2962.00           1382        1992.00      8666.16
   95.65        2962.25           1386        3988.00     17373.92
   95.68        2962.50           1389        5473.00     23855.34
   95.71        2962.75           1392        7076.00     30854.61
   95.74        2963.00           1396        9023.00     39359.88
   95.78        2963.25           1399       10491.00     45775.55
   95.81        2963.50           1402       12011.00     52421.09
   95.84        2963.75           1406       14088.00     61506.15
   95.87        2964.00           1409       15812.00     69050.91
   95.90        2964.25           1412       17319.00     75648.82
   95.93        2964.50           1416       19377.00     84663.32
   95.96        2964.75           1419       21029.00     91903.00
   95.99        2965.00           1422       22700.00     99229.13
   96.02        2965.25           1426       24820.00    108528.50
   96.06        2965.50           1429       26411.00    115510.80
   96.09        2965.75           1432       28104.00    122943.90
   96.12        2966.00           1436       29984.00    131202.00
   96.15        2966.25           1439       31447.00    137631.20
   96.18        2966.50           1442       32737.00    143302.20
   96.21        2966.75           1446       33622.00    147193.90
   96.24        2967.00           1449       33553.00    146890.40
   96.27        2967.25           1452       33532.00    146798.10
   96.30        2967.50           1456       33541.00    146837.70
   96.33        2967.75           1459       33470.00    146525.40
   96.37        2968.00           1462       33224.00    145443.60
   96.40        2968.25           1466       31470.00    137732.30
   96.43        2968.50           1469       30237.00    132313.60
   96.46        2968.75           1472       28683.00    125486.80
   96.49        2969.00           1476       26589.00    116292.10
   96.52        2969.25           1479       25237.00    110358.20
   96.55        2969.50           1482       23714.00    103676.40
   96.58        2969.75           1486       21608.00     94441.14
   96.61        2970.00           1489       20259.00     88528.18
   96.65        2970.25           1492       18514.00     80882.60
   96.68        2970.50           1496       16507.00     72093.43
   96.71        2970.75           1499       14896.00     65041.78
   96.74        2971.00           1502       13189.00     57573.20
   96.77        2971.25           1506       11083.00     48363.50
   96.80        2971.50           1509        9490.00     41400.56
   96.83        2971.75           1513        7566.00     32994.72
   96.86        2972.00           1516        6021.00     26247.78
   96.89        2972.25           1519        4553.00     19839.62
   96.93        2972.50           1523        2591.00     11278.88
   96.96        2972.75           1526        1314.00      5709.35
   96.99        2973.00           1529         626.00      2709.46
   97.02        2973.25           1533         379.00      1632.60
   97.05        2973.50           1536         314.00      1349.23
   97.08        2973.75           1539         262.00      1122.53
   97.11        2974.00           1543         222.00       948.15
   97.14        2974.25           1546         179.00       760.70
   97.17        2974.50           1549         139.00       586.32
   97.21        2974.75           1553          94.00       390.15
   97.24        2975.00           1556          73.00       298.61
   97.27        2975.25           1559          68.00       276.81
   97.30        2975.50           1563          60.00       241.94
   97.33        2975.75           1566          57.00       228.86
   97.36        2976.00           1569          54.00       215.78
   97.39        2976.25           1573          55.00       220.14
   97.42        2976.50           1576          56.00       224.50
   97.45        2976.75           1579          52.00       207.06
   97.48        2977.00           1583          59.00       237.58
   97.52        2977.25           1586          60.00       241.94
   97.55        2977.50           1590          59.00       237.58
   97.58        2977.75           1593          50.00       198.34
   97.61        2978.00           1596          54.00       215.78
   97.64        2978.25           1600          51.00       202.70
   97.67        2978.50           1603          57.00       228.86
   97.70        2978.75           1606          60.00       241.94
   97.73        2979.00           1610          51.00       202.70
   97.76        2979.25           1613          55.00       220.14
   97.79        2979.50           1616          49.00       193.99
   97.83        2979.75           1620          56.00       224.50
   97.86        2980.00           1623          55.00       220.14
   97.89        2980.25           1626          53.00       211.42
   97.92        2980.50           1630          53.00       211.42
   97.95        2980.75           1633          57.00       228.86
   97.98        2981.00           1637          54.00       215.78
   98.01        2981.25           1640          52.00       207.06
   98.04        2981.50           1643          57.00       228.86
   98.07        2981.75           1647          55.00       220.14
   98.10        2982.00           1650          58.00       233.22
   98.14        2982.25           1653          57.00       228.86
   98.17        2982.50           1657          50.00       198.34
   98.20        2982.75           1660          56.00       224.50
   98.23        2983.00           1663          49.00       193.99
   98.26        2983.25           1667          54.00       215.78
   98.29        2983.50           1670          50.00       198.34
   98.32        2983.75           1673          51.00       202.70
   98.35        2984.00           1677          55.00       220.14
HS scan finished at 01:38:34
end
************************************************************
  HS Scan of (1) Internal mercury lamp
************************************************************
Integration time is 0.2294 seconds per sample
dh080518Manchester 53.47 2.23 2.804185pr1000
************************************************************
Dead Time -------------------------  3E-08 
Number of Cycles Used -------------  4 
Starting Wavelength (Angstroms) ---  2950 
Final Wavelength (Angstoms) -------  2984 
Wavelength Increment (Angstroms) --  .25 
Filter Wheel #1 Position ---------- (1) Ground quartz diffuser (ND=2.32)
Filter Wheel #2 Position ---------- (1) Neutral Density 0.494



************************************************************
HS scan start time = 20:42:06
Dark Count =  4.9 


Time (GMT)  Wavelength (Ang)  Step Number  Raw Counts  Counts/Second

 1242.47        2950.00           1222          51.00       200.96
 1242.54        2950.25           1226          57.00       227.12
 1242.57        2950.50           1229          59.00       235.83
 1242.60        2950.75           1232          75.00       305.58
 1242.63        2951.00           1236          69.00       279.43
 1242.66        2951.25           1239          52.00       205.32
 1242.69        2951.50           1242          61.00       244.55
 1242.72        2951.75           1246          57.00       227.12
 1242.75        2952.00           1249          61.00       244.55
 1242.78        2952.25           1252          56.00       222.76
 1242.82        2952.50           1256          57.00       227.12
 1242.85        2952.75           1259          61.00       244.55
 1242.88        2953.00           1262          61.00       244.55
 1242.91        2953.25           1266          56.00       222.76
 1242.94        2953.50           1269          63.00       253.27
 1242.97        2953.75           1272          67.00       270.71
 1243.00        2954.00           1276          65.00       261.99
 1243.03        2954.25           1279          68.00       275.07
 1243.06        2954.50           1282          63.00       253.27
 1243.09        2954.75           1286          58.00       231.48
 1243.13        2955.00           1289          56.00       222.76
 1243.16        2955.25           1292          61.00       244.55
 1243.19        2955.50           1296          61.00       244.55
 1243.22        2955.75           1299          67.00       270.71
 1243.25        2956.00           1302          55.00       218.40
 1243.28        2956.25           1306          57.00       227.12
 1243.31        2956.50           1309          66.00       266.35
 1243.34        2956.75           1312          61.00       244.55
 1243.37        2957.00           1316          57.00       227.12
 1243.40        2957.25           1319          64.00       257.63
 1243.44        2957.50           1322          51.00       200.96
 1243.47        2957.75           1326          60.00       240.19
 1243.50        2958.00           1329          63.00       253.27
 1243.53        2958.25           1332          58.00       231.48
 1243.56        2958.50           1336          57.00       227.12
 1243.59        2958.75           1339          58.00       231.48
 1243.62        2959.00           1342          52.00       205.32
 1243.65        2959.25           1346          74.00       301.22
 1243.68        2959.50           1349          69.00       279.43
 1243.71        2959.75           1352          88.00       362.25
 1243.74        2960.00           1356         118.00       493.03
 1243.77        2960.25           1359         143.00       602.02
 1243.81        2960.50           1362         177.00       750.23
 1243.84        2960.75           1366         237.00      1011.80
 1243.87        2961.00           1369         258.00      1103.35
 1243.90        2961.25           1372         296.00      1269.01
 1243.93        2961.50           1376         374.00      1609.06
 1243.96        2961.75           1379         443.00      1909.87
 1243.99        2962.00           1382         923.00      4002.66
 1244.02        2962.25           1386        2460.00     10705.71
 1244.05        2962.50           1389        3827.00     16669.63
 1244.08        2962.75           1392        5152.00     22452.35
 1244.12        2963.00           1396        7022.00     30617.04
 1244.15        2963.25           1399        8432.00     36775.95
 1244.18        2963.50           1402        9894.00     43164.40
 1244.21        2963.75           1406       11797.00     51483.55
 1244.24        2964.00           1409       13374.00     58380.71
 1244.27        2964.25           1412       14824.00     64724.95
 1244.30        2964.50           1416       16920.00     73899.93
 1244.33        2964.75           1419       18460.00     80644.31
 1244.36        2965.00           1422       19848.00     86725.35
 1244.40        2965.25           1426       21817.00     95355.64
 1244.43        2965.50           1429       23348.00    102069.30
 1244.46        2965.75           1432       24710.00    108044.10
 1244.49        2966.00           1436       26549.00    116114.80
 1244.52        2966.25           1439       27983.00    122410.80
 1244.55        2966.50           1442       29258.00    128010.70
 1244.58        2966.75           1446       31113.00    136161.40
 1244.61        2967.00           1449       31736.00    138899.70
 1244.64        2967.25           1452       31841.00    139361.30
 1244.68        2967.50           1456       31730.00    138873.40
 1244.71        2967.75           1459       31772.00    139058.00
 1244.74        2968.00           1462       31591.00    138262.40
 1244.77        2968.25           1466       31137.00    136266.90
 1244.80        2968.50           1469       29836.00    130550.00
 1244.83        2968.75           1472       28367.00    124097.20
 1244.86        2969.00           1476       26569.00    116202.60
 1244.89        2969.25           1479       25106.00    109781.60
 1244.92        2969.50           1482       23540.00    102911.40
 1244.96        2969.75           1486       21681.00     94759.41
 1244.99        2970.00           1489       20126.00     87943.58
 1245.02        2970.25           1492       18648.00     81467.83
 1245.05        2970.50           1496       16783.00     73300.07
 1245.08        2970.75           1499       15331.00     66943.81
 1245.11        2971.00           1502       13871.00     60554.98
 1245.14        2971.25           1506       11884.00     51863.98
 1245.17        2971.50           1509       10415.00     45441.60
 1245.21        2971.75           1513        8529.00     37199.73
 1245.24        2972.00           1516        7140.00     31132.38
 1245.27        2972.25           1519        5562.00     24242.13
 1245.30        2972.50           1523        3689.00     16067.46
 1245.33        2972.75           1526        2326.00     10121.21
 1245.36        2973.00           1529        1039.00      4508.46
 1245.39        2973.25           1533         444.00      1914.23
 1245.42        2973.50           1536         308.00      1321.33
 1245.45        2973.75           1539         257.00      1098.99
 1245.48        2974.00           1543         201.00       854.86
 1245.51        2974.25           1546         154.00       649.97
 1245.55        2974.50           1549         115.00       479.95
 1245.58        2974.75           1553          91.00       375.33
 1245.61        2975.00           1556          75.00       305.58
 1245.64        2975.25           1559          54.00       214.04
 1245.67        2975.50           1563          56.00       222.76
 1245.70        2975.75           1566          57.00       227.12
 1245.73        2976.00           1569          55.00       218.40
 1245.76        2976.25           1573          62.00       248.91
 1245.80        2976.50           1576          54.00       214.04
 1245.83        2976.75           1579          49.00       192.24
 1245.86        2977.00           1583          56.00       222.76
 1245.89        2977.25           1586          65.00       261.99
 1245.92        2977.50           1590          56.00       222.76
 1245.95        2977.75           1593          54.00       214.04
 1245.98        2978.00           1596          53.00       209.68
 1246.01        2978.25           1600          61.00       244.55
 1246.04        2978.50           1603          49.00       192.24
 1246.07        2978.75           1606          58.00       231.48
 1246.10        2979.00           1610          57.00       227.12
 1246.14        2979.25           1613          50.00       196.60
 1246.17        2979.50           1616          54.00       214.04
 1246.20        2979.75           1620          53.00       209.68
 1246.23        2980.00           1623          59.00       235.83
 1246.26        2980.25           1626          49.00       192.24
 1246.29        2980.50           1630          57.00       227.12
 1246.32        2980.75           1633          54.00       214.04
 1246.35        2981.00           1637          56.00       222.76
 1246.38        2981.25           1640          58.00       231.48
 1246.41        2981.50           1643          57.00       227.12
 1246.45        2981.75           1647          51.00       200.96
 1246.48        2982.00           1650          56.00       222.76
 1246.51        2982.25           1653          47.00       183.52
 1246.54        2982.50           1657          59.00       235.83
 1246.57        2982.75           1660          58.00       231.48
 1246.60        2983.00           1663          48.00       187.88
 1246.63        2983.25           1667          50.00       196.60
 1246.66        2983.50           1670          49.00       192.24
 1246.69        2983.75           1673          50.00       196.60
 1246.72        2984.00           1677          50.00       196.60
HS scan finished at 20:46:56
end
