************************************************************
  HS Scan of (1) Internal mercury lamp
************************************************************
Integration time is 0.2294 seconds per sample
dh010518Manchester 53.47 2.23 2.804185pr1000
************************************************************
Dead Time -------------------------  3E-08 
Number of Cycles Used -------------  4 
Starting Wavelength (Angstroms) ---  2950 
Final Wavelength (Angstoms) -------  2984 
Wavelength Increment (Angstroms) --  .25 
Filter Wheel #1 Position ---------- (1) Ground quartz diffuser (ND=2.32)
Filter Wheel #2 Position ---------- (1) Neutral Density 0.494



************************************************************
HS scan start time = 01:34:00
Dark Count =  4.9 


Time (GMT)  Wavelength (Ang)  Step Number  Raw Counts  Counts/Second

   94.36        2950.00           1222          57.00       227.12
   94.43        2950.25           1226          63.00       253.27
   94.46        2950.50           1229          60.00       240.19
   94.49        2950.75           1232          57.00       227.12
   94.52        2951.00           1236          64.00       257.63
   94.55        2951.25           1239          57.00       227.12
   94.58        2951.50           1242          54.00       214.04
   94.62        2951.75           1246          62.00       248.91
   94.65        2952.00           1249          58.00       231.48
   94.68        2952.25           1252          59.00       235.83
   94.71        2952.50           1256          56.00       222.76
   94.74        2952.75           1259          68.00       275.07
   94.77        2953.00           1262          64.00       257.63
   94.80        2953.25           1266          59.00       235.83
   94.83        2953.50           1269          60.00       240.19
   94.86        2953.75           1272          63.00       253.27
   94.90        2954.00           1276          60.00       240.19
   94.93        2954.25           1279          57.00       227.12
   94.96        2954.50           1282          65.00       261.99
   94.99        2954.75           1286          61.00       244.55
   95.02        2955.00           1289          61.00       244.55
   95.05        2955.25           1292          67.00       270.71
   95.08        2955.50           1296          59.00       235.83
   95.11        2955.75           1299          60.00       240.19
   95.14        2956.00           1302          54.00       214.04
   95.17        2956.25           1306          63.00       253.27
   95.20        2956.50           1309          54.00       214.04
   95.23        2956.75           1312          61.00       244.55
   95.26        2957.00           1316          60.00       240.19
   95.30        2957.25           1319          58.00       231.48
   95.33        2957.50           1322          61.00       244.55
   95.36        2957.75           1326          59.00       235.83
   95.39        2958.00           1329          54.00       214.04
   95.42        2958.25           1332          50.00       196.60
   95.45        2958.50           1336          59.00       235.83
   95.48        2958.75           1339          66.00       266.35
   95.51        2959.00           1342          53.00       209.68
   95.54        2959.25           1346          62.00       248.91
   95.57        2959.50           1349          62.00       248.91
   95.60        2959.75           1352          77.00       314.30
   95.63        2960.00           1356          88.00       362.25
   95.66        2960.25           1359         109.00       453.80
   95.69        2960.50           1362         148.00       623.81
   95.73        2960.75           1366         204.00       867.94
   95.76        2961.00           1369         222.00       946.41
   95.79        2961.25           1372         285.00      1221.06
   95.82        2961.50           1376         352.00      1513.15
   95.85        2961.75           1379         510.00      2201.98
   95.88        2962.00           1382        1147.00      4979.38
   95.91        2962.25           1386        2693.00     11722.08
   95.94        2962.50           1389        4051.00     17647.09
   95.97        2962.75           1392        5492.00     23936.54
   96.00        2963.00           1396        7464.00     32547.46
   96.03        2963.25           1399        8909.00     38860.01
   96.06        2963.50           1402       10482.00     45734.46
   96.09        2963.75           1406       12471.00     54431.01
   96.12        2964.00           1409       14202.00     62003.19
   96.15        2964.25           1412       15713.00     68615.82
   96.18        2964.50           1416       17889.00     78143.30
   96.22        2964.75           1419       19229.00     84013.13
   96.25        2965.00           1422       20861.00     91164.86
   96.28        2965.25           1426       22868.00     99964.12
   96.31        2965.50           1429       24321.00    106337.40
   96.34        2965.75           1432       26067.00    113999.10
   96.37        2966.00           1436       27856.00    121853.10
   96.40        2966.25           1439       29228.00    127878.90
   96.43        2966.50           1442       30650.00    134126.70
   96.46        2966.75           1446       32019.00    140143.80
   96.49        2967.00           1449       32358.00    141634.10
   96.52        2967.25           1452       32421.00    141911.10
   96.55        2967.50           1456       32385.00    141752.80
   96.58        2967.75           1459       32404.00    141836.30
   96.61        2968.00           1462       32202.00    140948.30
   96.65        2968.25           1466       31033.00    135809.80
   96.68        2968.50           1469       29969.00    131134.30
   96.71        2968.75           1472       28751.00    125783.70
   96.74        2969.00           1476       26643.00    116527.40
   96.77        2969.25           1479       25248.00    110404.70
   96.80        2969.50           1482       23797.00    104038.70
   96.83        2969.75           1486       21669.00     94706.81
   96.86        2970.00           1489       20357.00     88955.91
   96.89        2970.25           1492       19039.00     83180.72
   96.92        2970.50           1496       17065.00     74534.83
   96.95        2970.75           1499       15539.00     67854.21
   96.99        2971.00           1502       13995.00     61097.50
   97.02        2971.25           1506       11861.00     51763.41
   97.05        2971.50           1509       10481.00     45730.09
   97.08        2971.75           1513        8545.00     37269.63
   97.11        2972.00           1516        7123.00     31058.13
   97.14        2972.25           1519        5725.00     24953.72
   97.17        2972.50           1523        3813.00     16608.54
   97.20        2972.75           1526        2349.00     10221.53
   97.23        2973.00           1529        1146.00      4975.02
   97.26        2973.25           1533         493.00      2127.86
   97.29        2973.50           1536         352.00      1513.15
   97.33        2973.75           1539         293.00      1255.93
   97.36        2974.00           1543         261.00      1116.43
   97.39        2974.25           1546         189.00       802.55
   97.42        2974.50           1549         163.00       689.20
   97.45        2974.75           1553         106.00       440.72
   97.48        2975.00           1556          80.00       327.38
   97.51        2975.25           1559          64.00       257.63
   97.54        2975.50           1563          58.00       231.48
   97.57        2975.75           1566          61.00       244.55
   97.60        2976.00           1569          61.00       244.55
   97.64        2976.25           1573          52.00       205.32
   97.67        2976.50           1576          59.00       235.83
   97.70        2976.75           1579          61.00       244.55
   97.73        2977.00           1583          54.00       214.04
   97.76        2977.25           1586          52.00       205.32
   97.79        2977.50           1590          61.00       244.55
   97.82        2977.75           1593          53.00       209.68
   97.85        2978.00           1596          59.00       235.83
   97.88        2978.25           1600          55.00       218.40
   97.91        2978.50           1603          50.00       196.60
   97.94        2978.75           1606          59.00       235.83
   97.97        2979.00           1610          55.00       218.40
   98.00        2979.25           1613          51.00       200.96
   98.04        2979.50           1616          56.00       222.76
   98.07        2979.75           1620          53.00       209.68
   98.10        2980.00           1623          56.00       222.76
   98.13        2980.25           1626          57.00       227.12
   98.16        2980.50           1630          52.00       205.32
   98.19        2980.75           1633          54.00       214.04
   98.22        2981.00           1637          60.00       240.19
   98.25        2981.25           1640          51.00       200.96
   98.28        2981.50           1643          52.00       205.32
   98.31        2981.75           1647          55.00       218.40
   98.34        2982.00           1650          51.00       200.96
   98.37        2982.25           1653          53.00       209.68
   98.40        2982.50           1657          58.00       231.48
   98.43        2982.75           1660          51.00       200.96
   98.47        2983.00           1663          62.00       248.91
   98.50        2983.25           1667          55.00       218.40
   98.53        2983.50           1670          57.00       227.12
   98.56        2983.75           1673          58.00       231.48
   98.59        2984.00           1677          57.00       227.12
HS scan finished at 01:38:48
end
************************************************************
  HS Scan of (1) Internal mercury lamp
************************************************************
Integration time is 0.2294 seconds per sample
dh010518Manchester 53.47 2.23 2.804185pr1000
************************************************************
Dead Time -------------------------  3E-08 
Number of Cycles Used -------------  4 
Starting Wavelength (Angstroms) ---  2950 
Final Wavelength (Angstoms) -------  2984 
Wavelength Increment (Angstroms) --  .25 
Filter Wheel #1 Position ---------- (1) Ground quartz diffuser (ND=2.32)
Filter Wheel #2 Position ---------- (1) Neutral Density 0.494



************************************************************
HS scan start time = 20:42:00
Dark Count =  6.1 


Time (GMT)  Wavelength (Ang)  Step Number  Raw Counts  Counts/Second

 1242.36        2950.00           1222          68.00       269.84
 1242.43        2950.25           1226          59.00       230.60
 1242.46        2950.50           1229          55.00       213.17
 1242.49        2950.75           1232          68.00       269.84
 1242.52        2951.00           1236          60.00       234.96
 1242.55        2951.25           1239          58.00       226.24
 1242.58        2951.50           1242          66.00       261.12
 1242.61        2951.75           1246          60.00       234.96
 1242.64        2952.00           1249          58.00       226.24
 1242.67        2952.25           1252          55.00       213.17
 1242.70        2952.50           1256          57.00       221.88
 1242.73        2952.75           1259          61.00       239.32
 1242.77        2953.00           1262          60.00       234.96
 1242.80        2953.25           1266          64.00       252.40
 1242.83        2953.50           1269          65.00       256.76
 1242.86        2953.75           1272          59.00       230.60
 1242.89        2954.00           1276          60.00       234.96
 1242.92        2954.25           1279          63.00       248.04
 1242.95        2954.50           1282          60.00       234.96
 1242.98        2954.75           1286          61.00       239.32
 1243.01        2955.00           1289          61.00       239.32
 1243.04        2955.25           1292          64.00       252.40
 1243.07        2955.50           1296          60.00       234.96
 1243.10        2955.75           1299          55.00       213.17
 1243.13        2956.00           1302          58.00       226.24
 1243.16        2956.25           1306          59.00       230.60
 1243.20        2956.50           1309          65.00       256.76
 1243.23        2956.75           1312          65.00       256.76
 1243.26        2957.00           1316          63.00       248.04
 1243.29        2957.25           1319          62.00       243.68
 1243.32        2957.50           1322          55.00       213.17
 1243.35        2957.75           1326          63.00       248.04
 1243.38        2958.00           1329          57.00       221.88
 1243.41        2958.25           1332          56.00       217.53
 1243.44        2958.50           1336          62.00       243.68
 1243.48        2958.75           1339          61.00       239.32
 1243.51        2959.00           1342          52.00       200.09
 1243.54        2959.25           1346          52.00       200.09
 1243.57        2959.50           1349          68.00       269.84
 1243.60        2959.75           1352          79.00       317.79
 1243.63        2960.00           1356          98.00       400.62
 1243.66        2960.25           1359         117.00       483.44
 1243.69        2960.50           1362         162.00       679.61
 1243.72        2960.75           1366         199.00       840.91
 1243.75        2961.00           1369         253.00      1076.32
 1243.78        2961.25           1372         302.00      1289.94
 1243.81        2961.50           1376         378.00      1621.26
 1243.85        2961.75           1379         538.00      2318.82
 1243.88        2962.00           1382        1092.00      4734.33
 1243.91        2962.25           1386        2737.00     11908.79
 1243.94        2962.50           1389        4219.00     18374.99
 1243.97        2962.75           1392        5634.00     24551.21
 1244.00        2963.00           1396        7414.00     32323.84
 1244.03        2963.25           1399        8925.00     38924.68
 1244.06        2963.50           1402       10470.00     45676.77
 1244.09        2963.75           1406       12480.00     54465.13
 1244.12        2964.00           1409       13943.00     60864.74
 1244.15        2964.25           1412       15540.00     67853.33
 1244.19        2964.50           1416       17477.00     76333.72
 1244.22        2964.75           1419       19046.00     83206.15
 1244.25        2965.00           1422       20430.00     89270.59
 1244.28        2965.25           1426       22580.00     98695.89
 1244.31        2965.50           1429       23972.00    104801.10
 1244.34        2965.75           1432       25525.00    111615.10
 1244.37        2966.00           1436       27553.00    120517.30
 1244.40        2966.25           1439       29099.00    127307.00
 1244.43        2966.50           1442       30247.00    132350.50
 1244.46        2966.75           1446       31921.00    139707.70
 1244.50        2967.00           1449       32084.00    140424.20
 1244.53        2967.25           1452       32251.00    141158.40
 1244.56        2967.50           1456       32139.00    140666.00
 1244.59        2967.75           1459       32102.00    140503.40
 1244.62        2968.00           1462       32126.00    140608.90
 1244.65        2968.25           1466       31132.00    136239.70
 1244.68        2968.50           1469       29727.00    130065.80
 1244.71        2968.75           1472       28308.00    123832.80
 1244.74        2969.00           1476       26547.00    116100.70
 1244.77        2969.25           1479       24912.00    108925.10
 1244.81        2969.50           1482       23529.00    102857.90
 1244.84        2969.75           1486       21613.00     94456.03
 1244.87        2970.00           1489       20115.00     87890.11
 1244.90        2970.25           1492       18762.00     81961.98
 1244.93        2970.50           1496       16841.00     73548.78
 1244.96        2970.75           1499       15430.00     67371.87
 1244.99        2971.00           1502       13908.00     60711.61
 1245.02        2971.25           1506       11878.00     51832.50
 1245.05        2971.50           1509       10455.00     45611.19
 1245.09        2971.75           1513        8398.00     36622.17
 1245.12        2972.00           1516        6939.00     30249.32
 1245.15        2972.25           1519        5297.00     23080.06
 1245.18        2972.50           1523        3478.00     15141.58
 1245.21        2972.75           1526        2042.00      8877.26
 1245.24        2973.00           1529         914.00      3958.19
 1245.27        2973.25           1533         392.00      1682.30
 1245.30        2973.50           1536         294.00      1255.06
 1245.33        2973.75           1539         259.00      1102.48
 1245.36        2974.00           1543         213.00       901.94
 1245.39        2974.25           1546         171.00       718.85
 1245.42        2974.50           1549         135.00       561.91
 1245.45        2974.75           1553          96.00       391.90
 1245.48        2975.00           1556          71.00       282.91
 1245.52        2975.25           1559          61.00       239.32
 1245.55        2975.50           1563          53.00       204.45
 1245.58        2975.75           1566          57.00       221.88
 1245.61        2976.00           1569          59.00       230.60
 1245.64        2976.25           1573          58.00       226.24
 1245.67        2976.50           1576          63.00       248.04
 1245.70        2976.75           1579          56.00       217.53
 1245.73        2977.00           1583          67.00       265.48
 1245.76        2977.25           1586          54.00       208.81
 1245.79        2977.50           1590          58.00       226.24
 1245.82        2977.75           1593          55.00       213.17
 1245.85        2978.00           1596          61.00       239.32
 1245.88        2978.25           1600          64.00       252.40
 1245.91        2978.50           1603          55.00       213.17
 1245.94        2978.75           1606          56.00       217.53
 1245.97        2979.00           1610          62.00       243.68
 1246.01        2979.25           1613          50.00       191.37
 1246.04        2979.50           1616          58.00       226.24
 1246.07        2979.75           1620          56.00       217.53
 1246.10        2980.00           1623          52.00       200.09
 1246.13        2980.25           1626          55.00       213.17
 1246.16        2980.50           1630          52.00       200.09
 1246.19        2980.75           1633          59.00       230.60
 1246.22        2981.00           1637          55.00       213.17
 1246.25        2981.25           1640          54.00       208.81
 1246.28        2981.50           1643          60.00       234.96
 1246.31        2981.75           1647          52.00       200.09
 1246.34        2982.00           1650          54.00       208.81
 1246.37        2982.25           1653          47.00       178.29
 1246.41        2982.50           1657          57.00       221.88
 1246.44        2982.75           1660          50.00       191.37
 1246.47        2983.00           1663          51.00       195.73
 1246.50        2983.25           1667          51.00       195.73
 1246.53        2983.50           1670          52.00       200.09
 1246.56        2983.75           1673          52.00       200.09
 1246.59        2984.00           1677          52.00       200.09
HS scan finished at 20:46:48
end
