************************************************************
  HS Scan of (1) Internal mercury lamp
************************************************************
Integration time is 0.2294 seconds per sample
dh040518Manchester 53.47 2.23 2.804185pr1000
************************************************************
Dead Time -------------------------  3E-08 
Number of Cycles Used -------------  4 
Starting Wavelength (Angstroms) ---  2950 
Final Wavelength (Angstoms) -------  2984 
Wavelength Increment (Angstroms) --  .25 
Filter Wheel #1 Position ---------- (1) Ground quartz diffuser (ND=2.32)
Filter Wheel #2 Position ---------- (1) Neutral Density 0.494



************************************************************
HS scan start time = 01:29:03
Dark Count =  5.8 


Time (GMT)  Wavelength (Ang)  Step Number  Raw Counts  Counts/Second

   89.42        2950.00           1222          52.00       201.40
   89.49        2950.25           1226          60.00       236.27
   89.52        2950.50           1229          70.00       279.86
   89.55        2950.75           1232          58.00       227.55
   89.58        2951.00           1236          50.00       192.68
   89.61        2951.25           1239          58.00       227.55
   89.64        2951.50           1242          59.00       231.91
   89.67        2951.75           1246          60.00       236.27
   89.70        2952.00           1249          49.00       188.32
   89.73        2952.25           1252          56.00       218.83
   89.76        2952.50           1256          54.00       210.11
   89.79        2952.75           1259          62.00       244.99
   89.82        2953.00           1262          61.00       240.63
   89.85        2953.25           1266          60.00       236.27
   89.88        2953.50           1269          53.00       205.76
   89.92        2953.75           1272          60.00       236.27
   89.95        2954.00           1276          54.00       210.11
   89.98        2954.25           1279          54.00       210.11
   90.01        2954.50           1282          51.00       197.04
   90.04        2954.75           1286          53.00       205.76
   90.07        2955.00           1289          60.00       236.27
   90.10        2955.25           1292          58.00       227.55
   90.13        2955.50           1296          58.00       227.55
   90.16        2955.75           1299          61.00       240.63
   90.19        2956.00           1302          62.00       244.99
   90.22        2956.25           1306          52.00       201.40
   90.25        2956.50           1309          58.00       227.55
   90.28        2956.75           1312          64.00       253.71
   90.31        2957.00           1316          58.00       227.55
   90.34        2957.25           1319          60.00       236.27
   90.38        2957.50           1322          52.00       201.40
   90.41        2957.75           1326          60.00       236.27
   90.44        2958.00           1329          52.00       201.40
   90.47        2958.25           1332          55.00       214.47
   90.50        2958.50           1336          51.00       197.04
   90.53        2958.75           1339          62.00       244.99
   90.56        2959.00           1342          57.00       223.19
   90.59        2959.25           1346          59.00       231.91
   90.62        2959.50           1349          61.00       240.63
   90.65        2959.75           1352          72.00       288.58
   90.68        2960.00           1356          96.00       393.20
   90.71        2960.25           1359         126.00       523.98
   90.75        2960.50           1362         153.00       641.69
   90.78        2960.75           1366         206.00       872.73
   90.81        2961.00           1369         236.00      1003.52
   90.84        2961.25           1372         271.00      1156.10
   90.87        2961.50           1376         352.00      1509.22
   90.90        2961.75           1379         487.00      2097.78
   90.93        2962.00           1382         892.00      3863.57
   90.96        2962.25           1386        2316.00     10073.66
   90.99        2962.50           1389        3780.00     16460.61
   91.02        2962.75           1392        5108.00     22256.36
   91.05        2963.00           1396        6953.00     30311.77
   91.09        2963.25           1399        8351.00     36418.15
   91.12        2963.50           1402        9837.00     42911.36
   91.15        2963.75           1406       11814.00     51553.96
   91.18        2964.00           1409       13230.00     57746.86
   91.21        2964.25           1412       14870.00     64922.32
   91.24        2964.50           1416       16996.00     74228.75
   91.27        2964.75           1419       18391.00     80338.12
   91.30        2965.00           1422       19998.00     87378.71
   91.33        2965.25           1426       21974.00     96040.05
   91.36        2965.50           1429       23481.00    102648.70
   91.40        2965.75           1432       24944.00    109066.80
   91.43        2966.00           1436       27172.00    118845.80
   91.46        2966.25           1439       28362.00    124071.20
   91.49        2966.50           1442       29649.00    129724.50
   91.52        2966.75           1446       31119.00    136183.90
   91.55        2967.00           1449       31714.00    138799.10
   91.58        2967.25           1452       31835.00    139331.00
   91.61        2967.50           1456       31902.00    139625.50
   91.64        2967.75           1459       31843.00    139366.10
   91.67        2968.00           1462       31728.00    138860.60
   91.71        2968.25           1466       30949.00    135436.70
   91.74        2968.50           1469       29770.00    130256.00
   91.77        2968.75           1472       28539.00    124848.60
   91.80        2969.00           1476       26646.00    116536.60
   91.83        2969.25           1479       25420.00    111155.60
   91.86        2969.50           1482       23984.00    104855.00
   91.89        2969.75           1486       21992.00     96118.96
   91.92        2970.00           1489       20578.00     89920.53
   91.95        2970.25           1492       19228.00     84004.81
   91.99        2970.50           1496       17221.00     75213.99
   92.02        2970.75           1499       15635.00     68270.46
   92.05        2971.00           1502       14188.00     61938.01
   92.08        2971.25           1506       12280.00     53591.76
   92.11        2971.50           1509       10740.00     46858.33
   92.14        2971.75           1513        8845.00     38576.45
   92.17        2972.00           1516        7482.00     32622.15
   92.20        2972.25           1519        6100.00     26587.03
   92.23        2972.50           1523        4194.00     18267.20
   92.26        2972.75           1526        2815.00     12250.36
   92.29        2973.00           1529        1531.00      6649.98
   92.33        2973.25           1533         530.00      2285.25
   92.36        2973.50           1536         344.00      1474.35
   92.39        2973.75           1539         283.00      1208.41
   92.42        2974.00           1543         235.00       999.16
   92.45        2974.25           1546         173.00       728.87
   92.48        2974.50           1549         126.00       523.98
   92.51        2974.75           1553          92.00       375.77
   92.54        2975.00           1556          71.00       284.22
   92.57        2975.25           1559          61.00       240.63
   92.60        2975.50           1563          49.00       188.32
   92.63        2975.75           1566          55.00       214.47
   92.66        2976.00           1569          62.00       244.99
   92.69        2976.25           1573          62.00       244.99
   92.72        2976.50           1576          56.00       218.83
   92.76        2976.75           1579          54.00       210.11
   92.79        2977.00           1583          61.00       240.63
   92.82        2977.25           1586          54.00       210.11
   92.85        2977.50           1590          59.00       231.91
   92.88        2977.75           1593          57.00       223.19
   92.91        2978.00           1596          55.00       214.47
   92.94        2978.25           1600          52.00       201.40
   92.97        2978.50           1603          56.00       218.83
   93.00        2978.75           1606          58.00       227.55
   93.03        2979.00           1610          55.00       214.47
   93.06        2979.25           1613          81.00       327.81
   93.09        2979.50           1616          61.00       240.63
   93.12        2979.75           1620          50.00       192.68
   93.16        2980.00           1623          50.00       192.68
   93.19        2980.25           1626          55.00       214.47
   93.22        2980.50           1630          50.00       192.68
   93.25        2980.75           1633          60.00       236.27
   93.28        2981.00           1637          57.00       223.19
   93.31        2981.25           1640          53.00       205.76
   93.34        2981.50           1643          53.00       205.76
   93.37        2981.75           1647          59.00       231.91
   93.40        2982.00           1650          57.00       223.19
   93.43        2982.25           1653          60.00       236.27
   93.46        2982.50           1657          52.00       201.40
   93.50        2982.75           1660          57.00       223.19
   93.53        2983.00           1663          48.00       183.96
   93.56        2983.25           1667          54.00       210.11
   93.59        2983.50           1670          61.00       240.63
   93.62        2983.75           1673          52.00       201.40
   93.65        2984.00           1677          54.00       210.11
HS scan finished at 01:33:52
end
************************************************************
  HS Scan of (1) Internal mercury lamp
************************************************************
Integration time is 0.2294 seconds per sample
dh040518Manchester 53.47 2.23 2.911481pr1000
************************************************************
Dead Time -------------------------  3E-08 
Number of Cycles Used -------------  4 
Starting Wavelength (Angstroms) ---  2950 
Final Wavelength (Angstoms) -------  2984 
Wavelength Increment (Angstroms) --  .25 
Filter Wheel #1 Position ---------- (1) Ground quartz diffuser (ND=2.32)
Filter Wheel #2 Position ---------- (1) Neutral Density 0.494



************************************************************
HS scan start time = 20:42:03
Dark Count =  6.2 


Time (GMT)  Wavelength (Ang)  Step Number  Raw Counts  Counts/Second

 1242.42        2950.00           1222          57.00       221.45
 1242.49        2950.25           1226          57.00       221.45
 1242.52        2950.50           1229          62.00       243.25
 1242.55        2950.75           1232          59.00       230.17
 1242.58        2951.00           1236          60.00       234.53
 1242.61        2951.25           1239          56.00       217.09
 1242.64        2951.50           1242          61.00       238.89
 1242.67        2951.75           1246          65.00       256.32
 1242.70        2952.00           1249          57.00       221.45
 1242.73        2952.25           1252          69.00       273.76
 1242.76        2952.50           1256          62.00       243.25
 1242.79        2952.75           1259          60.00       234.53
 1242.83        2953.00           1262          55.00       212.73
 1242.86        2953.25           1266          61.00       238.89
 1242.89        2953.50           1269          52.00       199.65
 1242.92        2953.75           1272          50.00       190.93
 1242.95        2954.00           1276          58.00       225.81
 1242.98        2954.25           1279          59.00       230.17
 1243.01        2954.50           1282          56.00       217.09
 1243.04        2954.75           1286          64.00       251.96
 1243.07        2955.00           1289          52.00       199.65
 1243.10        2955.25           1292          63.00       247.60
 1243.13        2955.50           1296          57.00       221.45
 1243.16        2955.75           1299          66.00       260.68
 1243.19        2956.00           1302          56.00       217.09
 1243.22        2956.25           1306          63.00       247.60
 1243.26        2956.50           1309          61.00       238.89
 1243.29        2956.75           1312          61.00       238.89
 1243.32        2957.00           1316          51.00       195.29
 1243.35        2957.25           1319          60.00       234.53
 1243.38        2957.50           1322          54.00       208.37
 1243.41        2957.75           1326          63.00       247.60
 1243.44        2958.00           1329          53.00       204.01
 1243.47        2958.25           1332          64.00       251.96
 1243.50        2958.50           1336          65.00       256.32
 1243.53        2958.75           1339          67.00       265.04
 1243.56        2959.00           1342          56.00       217.09
 1243.59        2959.25           1346          59.00       230.17
 1243.62        2959.50           1349          67.00       265.04
 1243.65        2959.75           1352          78.00       312.99
 1243.69        2960.00           1356         104.00       426.34
 1243.72        2960.25           1359         134.00       557.11
 1243.75        2960.50           1362         156.00       653.02
 1243.78        2960.75           1366         224.00       949.46
 1243.81        2961.00           1369         245.00      1041.01
 1243.84        2961.25           1372         270.00      1150.00
 1243.87        2961.50           1376         389.00      1668.78
 1243.90        2961.75           1379         608.00      2623.57
 1243.93        2962.00           1382        1313.00      5697.57
 1243.96        2962.25           1386        3034.00     13204.01
 1243.99        2962.50           1389        4472.00     19478.69
 1244.02        2962.75           1392        5887.00     25655.31
 1244.05        2963.00           1396        7801.00     34013.77
 1244.09        2963.25           1399        9322.00     40658.98
 1244.12        2963.50           1402       10975.00     47883.91
 1244.15        2963.75           1406       13139.00     57347.05
 1244.18        2964.00           1409       14788.00     64561.72
 1244.21        2964.25           1412       16340.00     71354.85
 1244.24        2964.50           1416       18335.00     80091.09
 1244.27        2964.75           1419       19953.00     87179.77
 1244.30        2965.00           1422       21292.00     93048.40
 1244.33        2965.25           1426       23553.00    102962.70
 1244.36        2965.50           1429       25067.00    109604.80
 1244.39        2965.75           1432       26380.00    115367.20
 1244.42        2966.00           1436       28636.00    125272.90
 1244.45        2966.25           1439       29998.00    131256.00
 1244.48        2966.50           1442       31432.00    137557.80
 1244.52        2966.75           1446       32571.00    142564.90
 1244.55        2967.00           1449       32778.00    143475.00
 1244.58        2967.25           1452       32856.00    143818.00
 1244.61        2967.50           1456       32861.00    143839.90
 1244.64        2967.75           1459       33048.00    144662.20
 1244.67        2968.00           1462       32687.00    143074.90
 1244.70        2968.25           1466       31514.00    137918.20
 1244.73        2968.50           1469       30082.00    131625.10
 1244.77        2968.75           1472       28755.00    125795.60
 1244.80        2969.00           1476       26856.00    117456.80
 1244.83        2969.25           1479       25319.00    110710.60
 1244.86        2969.50           1482       23902.00    104493.60
 1244.89        2969.75           1486       21792.00     95240.34
 1244.92        2970.00           1489       20251.00     88485.68
 1244.95        2970.25           1492       18891.00     82526.65
 1244.98        2970.50           1496       16820.00     73456.38
 1245.01        2970.75           1499       15406.00     67266.38
 1245.05        2971.00           1502       13858.00     60492.42
 1245.08        2971.25           1506       11962.00     52199.38
 1245.11        2971.50           1509       10191.00     44456.81
 1245.14        2971.75           1513        8462.00     36901.34
 1245.17        2972.00           1516        7030.00     30646.30
 1245.20        2972.25           1519        5498.00     23957.06
 1245.23        2972.50           1523        3485.00     15171.68
 1245.26        2972.75           1526        2018.00      8772.14
 1245.29        2973.00           1529         856.00      3704.86
 1245.32        2973.25           1533         425.00      1825.73
 1245.35        2973.50           1536         323.00      1381.05
 1245.38        2973.75           1539         303.00      1293.86
 1245.41        2974.00           1543         250.00      1062.81
 1245.44        2974.25           1546         191.00       805.60
 1245.47        2974.50           1549         169.00       709.69
 1245.51        2974.75           1553         118.00       487.37
 1245.54        2975.00           1556          93.00       378.38
 1245.57        2975.25           1559          64.00       251.96
 1245.60        2975.50           1563          67.00       265.04
 1245.63        2975.75           1566          63.00       247.60
 1245.66        2976.00           1569          53.00       204.01
 1245.69        2976.25           1573          59.00       230.17
 1245.72        2976.50           1576          61.00       238.89
 1245.75        2976.75           1579          44.00       164.78
 1245.78        2977.00           1583          60.00       234.53
 1245.81        2977.25           1586          61.00       238.89
 1245.84        2977.50           1590          61.00       238.89
 1245.87        2977.75           1593          60.00       234.53
 1245.91        2978.00           1596          54.00       208.37
 1245.94        2978.25           1600          52.00       199.65
 1245.97        2978.50           1603          62.00       243.25
 1246.00        2978.75           1606          52.00       199.65
 1246.03        2979.00           1610          49.00       186.57
 1246.06        2979.25           1613          56.00       217.09
 1246.09        2979.50           1616          59.00       230.17
 1246.12        2979.75           1620          55.00       212.73
 1246.15        2980.00           1623          53.00       204.01
 1246.18        2980.25           1626          54.00       208.37
 1246.21        2980.50           1630          62.00       243.25
 1246.24        2980.75           1633          55.00       212.73
 1246.27        2981.00           1637          50.00       190.93
 1246.30        2981.25           1640          54.00       208.37
 1246.33        2981.50           1643          52.00       199.65
 1246.36        2981.75           1647          49.00       186.57
 1246.39        2982.00           1650          54.00       208.37
 1246.43        2982.25           1653          54.00       208.37
 1246.46        2982.50           1657          59.00       230.17
 1246.49        2982.75           1660          49.00       186.57
 1246.52        2983.00           1663          55.00       212.73
 1246.55        2983.25           1667          54.00       208.37
 1246.58        2983.50           1670          47.00       177.86
 1246.61        2983.75           1673          52.00       199.65
 1246.64        2984.00           1677          51.00       195.29
HS scan finished at 20:46:51
end
