************************************************************
  HS Scan of (1) Internal mercury lamp
************************************************************
Integration time is 0.2294 seconds per sample
dh180518Manchester 53.47 2.23 2.804185pr1000
************************************************************
Dead Time -------------------------  3E-08 
Number of Cycles Used -------------  4 
Starting Wavelength (Angstroms) ---  2950 
Final Wavelength (Angstoms) -------  2984 
Wavelength Increment (Angstroms) --  .25 
Filter Wheel #1 Position ---------- (1) Ground quartz diffuser (ND=2.32)
Filter Wheel #2 Position ---------- (1) Neutral Density 0.494



************************************************************
HS scan start time = 01:28:44
Dark Count =  6.2 


Time (GMT)  Wavelength (Ang)  Step Number  Raw Counts  Counts/Second

   89.11        2950.00           1222          69.00       273.76
   89.17        2950.25           1226          56.00       217.09
   89.20        2950.50           1229          60.00       234.53
   89.24        2950.75           1232          55.00       212.73
   89.27        2951.00           1236          60.00       234.53
   89.30        2951.25           1239          57.00       221.45
   89.33        2951.50           1242          55.00       212.73
   89.36        2951.75           1246          54.00       208.37
   89.39        2952.00           1249          59.00       230.17
   89.42        2952.25           1252          62.00       243.25
   89.45        2952.50           1256          56.00       217.09
   89.48        2952.75           1259          58.00       225.81
   89.51        2953.00           1262          58.00       225.81
   89.54        2953.25           1266          56.00       217.09
   89.57        2953.50           1269          58.00       225.81
   89.60        2953.75           1272          58.00       225.81
   89.64        2954.00           1276          57.00       221.45
   89.67        2954.25           1279          57.00       221.45
   89.70        2954.50           1282          56.00       217.09
   89.73        2954.75           1286          55.00       212.73
   89.76        2955.00           1289          55.00       212.73
   89.79        2955.25           1292          58.00       225.81
   89.82        2955.50           1296          59.00       230.17
   89.85        2955.75           1299          63.00       247.60
   89.88        2956.00           1302          54.00       208.37
   89.91        2956.25           1306          49.00       186.57
   89.95        2956.50           1309          57.00       221.45
   89.98        2956.75           1312          55.00       212.73
   90.01        2957.00           1316          58.00       225.81
   90.04        2957.25           1319          57.00       221.45
   90.07        2957.50           1322          50.00       190.93
   90.10        2957.75           1326          57.00       221.45
   90.13        2958.00           1329          55.00       212.73
   90.16        2958.25           1332          60.00       234.53
   90.19        2958.50           1336          57.00       221.45
   90.22        2958.75           1339          56.00       217.09
   90.25        2959.00           1342          55.00       212.73
   90.28        2959.25           1346          58.00       225.81
   90.31        2959.50           1349          68.00       269.40
   90.35        2959.75           1352          76.00       304.27
   90.38        2960.00           1356         112.00       461.21
   90.41        2960.25           1359         129.00       535.32
   90.44        2960.50           1362         149.00       622.51
   90.47        2960.75           1366         196.00       827.40
   90.50        2961.00           1369         239.00      1014.85
   90.53        2961.25           1372         294.00      1254.62
   90.56        2961.50           1376         331.00      1415.93
   90.59        2961.75           1379         430.00      1847.53
   90.62        2962.00           1382         831.00      3595.85
   90.65        2962.25           1386        2315.00     10067.56
   90.69        2962.50           1389        3560.00     15498.92
   90.72        2962.75           1392        4913.00     21403.45
   90.75        2963.00           1396        6866.00     29930.09
   90.78        2963.25           1399        8306.00     36219.81
   90.81        2963.50           1402        9682.00     42232.20
   90.84        2963.75           1406       11565.00     50463.44
   90.87        2964.00           1409       13039.00     56909.64
   90.90        2964.25           1412       14645.00     63935.94
   90.93        2964.50           1416       16586.00     72431.85
   90.96        2964.75           1419       18095.00     79039.87
   91.00        2965.00           1422       19488.00     85142.22
   91.03        2965.25           1426       21695.00     94815.09
   91.06        2965.50           1429       23105.00    100997.80
   91.09        2965.75           1432       24473.00    106998.50
   91.12        2966.00           1436       26341.00    115196.00
   91.15        2966.25           1439       27632.00    120863.80
   91.18        2966.50           1442       28892.00    126397.30
   91.21        2966.75           1446       30627.00    134019.90
   91.24        2967.00           1449       31272.00    136854.50
   91.28        2967.25           1452       31408.00    137452.30
   91.31        2967.50           1456       31356.00    137223.70
   91.34        2967.75           1459       31233.00    136683.10
   91.37        2968.00           1462       31275.00    136867.70
   91.40        2968.25           1466       30486.00    133400.30
   91.43        2968.50           1469       29642.00    129692.00
   91.46        2968.75           1472       28218.00    123437.10
   91.49        2969.00           1476       26192.00    114542.00
   91.52        2969.25           1479       24899.00    108867.60
   91.55        2969.50           1482       23453.00    102524.10
   91.59        2969.75           1486       21549.00     94175.02
   91.62        2970.00           1489       20445.00     89335.88
   91.65        2970.25           1492       18684.00     81619.84
   91.68        2970.50           1496       16899.00     73802.29
   91.71        2970.75           1499       15264.00     66644.90
   91.74        2971.00           1502       13816.00     60308.67
   91.77        2971.25           1506       12023.00     52466.13
   91.80        2971.50           1509       10601.00     46248.96
   91.83        2971.75           1513        8608.00     37539.20
   91.86        2972.00           1516        7252.00     31615.85
   91.90        2972.25           1519        5805.00     25297.31
   91.93        2972.50           1523        3978.00     17322.86
   91.96        2972.75           1526        2570.00     11179.86
   91.99        2973.00           1529        1371.00      5950.50
   92.02        2973.25           1533         491.00      2113.47
   92.05        2973.50           1536         336.00      1437.73
   92.08        2973.75           1539         287.00      1224.11
   92.11        2974.00           1543         231.00       979.98
   92.14        2974.25           1546         180.00       757.65
   92.17        2974.50           1549         136.00       565.83
   92.20        2974.75           1553         107.00       439.41
   92.23        2975.00           1556          86.00       347.87
   92.27        2975.25           1559          70.00       278.12
   92.30        2975.50           1563          60.00       234.53
   92.33        2975.75           1566          56.00       217.09
   92.36        2976.00           1569          58.00       225.81
   92.39        2976.25           1573          55.00       212.73
   92.42        2976.50           1576          55.00       212.73
   92.45        2976.75           1579          55.00       212.73
   92.48        2977.00           1583          53.00       204.01
   92.52        2977.25           1586          66.00       260.68
   92.55        2977.50           1590          54.00       208.37
   92.58        2977.75           1593          59.00       230.17
   92.61        2978.00           1596          56.00       217.09
   92.64        2978.25           1600          53.00       204.01
   92.67        2978.50           1603          60.00       234.53
   92.70        2978.75           1606          47.00       177.86
   92.73        2979.00           1610          56.00       217.09
   92.76        2979.25           1613          58.00       225.81
   92.79        2979.50           1616          58.00       225.81
   92.82        2979.75           1620          52.00       199.65
   92.86        2980.00           1623          58.00       225.81
   92.89        2980.25           1626          54.00       208.37
   92.92        2980.50           1630          53.00       204.01
   92.95        2980.75           1633          53.00       204.01
   92.98        2981.00           1637          48.00       182.22
   93.01        2981.25           1640          53.00       204.01
   93.04        2981.50           1643          57.00       221.45
   93.07        2981.75           1647          56.00       217.09
   93.10        2982.00           1650          49.00       186.57
   93.13        2982.25           1653          64.00       251.96
   93.16        2982.50           1657          53.00       204.01
   93.19        2982.75           1660          48.00       182.22
   93.23        2983.00           1663          51.00       195.29
   93.26        2983.25           1667          54.00       208.37
   93.29        2983.50           1670          50.00       190.93
   93.32        2983.75           1673          43.00       160.42
   93.35        2984.00           1677          55.00       212.73
HS scan finished at 01:33:34
end
************************************************************
  HS Scan of (1) Internal mercury lamp
************************************************************
Integration time is 0.2294 seconds per sample
dh180518Manchester 53.47 2.23 2.857833pr1000
************************************************************
Dead Time -------------------------  3E-08 
Number of Cycles Used -------------  4 
Starting Wavelength (Angstroms) ---  2950 
Final Wavelength (Angstoms) -------  2984 
Wavelength Increment (Angstroms) --  .25 
Filter Wheel #1 Position ---------- (1) Ground quartz diffuser (ND=2.32)
Filter Wheel #2 Position ---------- (1) Neutral Density 0.494



************************************************************
HS scan start time = 21:12:04
Dark Count =  7 


Time (GMT)  Wavelength (Ang)  Step Number  Raw Counts  Counts/Second

 1272.43        2950.00           1222          48.00       178.73
 1272.50        2950.25           1226          56.00       213.60
 1272.53        2950.50           1229          56.00       213.60
 1272.56        2950.75           1232          52.00       196.17
 1272.59        2951.00           1236          58.00       222.32
 1272.62        2951.25           1239          67.00       261.55
 1272.65        2951.50           1242          59.00       226.68
 1272.68        2951.75           1246          64.00       248.48
 1272.71        2952.00           1249          65.00       252.84
 1272.74        2952.25           1252          58.00       222.32
 1272.77        2952.50           1256          61.00       235.40
 1272.80        2952.75           1259          57.00       217.96
 1272.83        2953.00           1262          51.00       191.81
 1272.87        2953.25           1266          55.00       209.24
 1272.90        2953.50           1269          56.00       213.60
 1272.93        2953.75           1272          57.00       217.96
 1272.96        2954.00           1276          59.00       226.68
 1272.99        2954.25           1279          56.00       213.60
 1273.02        2954.50           1282          59.00       226.68
 1273.05        2954.75           1286          68.00       265.91
 1273.08        2955.00           1289          59.00       226.68
 1273.11        2955.25           1292          49.00       183.09
 1273.14        2955.50           1296          68.00       265.91
 1273.17        2955.75           1299          56.00       213.60
 1273.20        2956.00           1302          54.00       204.88
 1273.23        2956.25           1306          60.00       231.04
 1273.27        2956.50           1309          56.00       213.60
 1273.30        2956.75           1312          55.00       209.24
 1273.33        2957.00           1316          54.00       204.88
 1273.36        2957.25           1319          56.00       213.60
 1273.39        2957.50           1322          57.00       217.96
 1273.42        2957.75           1326          56.00       213.60
 1273.45        2958.00           1329          56.00       213.60
 1273.48        2958.25           1332          51.00       191.81
 1273.51        2958.50           1336          52.00       196.17
 1273.54        2958.75           1339          67.00       261.55
 1273.57        2959.00           1342          60.00       231.04
 1273.60        2959.25           1346          61.00       235.40
 1273.63        2959.50           1349          65.00       252.84
 1273.66        2959.75           1352          94.00       379.25
 1273.70        2960.00           1356         123.00       505.67
 1273.73        2960.25           1359         155.00       645.17
 1273.76        2960.50           1362         192.00       806.47
 1273.79        2960.75           1366         258.00      1094.19
 1273.82        2961.00           1369         279.00      1185.74
 1273.85        2961.25           1372         326.00      1390.64
 1273.88        2961.50           1376         414.00      1774.29
 1273.91        2961.75           1379         638.00      2750.88
 1273.94        2962.00           1382        1393.00      6042.94
 1273.97        2962.25           1386        3209.00     13964.00
 1274.01        2962.50           1389        4484.00     19527.57
 1274.04        2962.75           1392        5869.00     25573.23
 1274.07        2963.00           1396        7704.00     33586.57
 1274.10        2963.25           1399        9064.00     39528.10
 1274.13        2963.50           1402       10644.00     46433.42
 1274.16        2963.75           1406       12504.00     54566.15
 1274.19        2964.00           1409       14016.00     61180.20
 1274.22        2964.25           1412       15715.00     68615.38
 1274.25        2964.50           1416       17757.00     77556.00
 1274.28        2964.75           1419       19284.00     84244.91
 1274.32        2965.00           1422       20667.00     90305.35
 1274.35        2965.25           1426       22712.00     99270.80
 1274.38        2965.50           1429       24242.00    105981.60
 1274.41        2965.75           1432       25627.00    112058.70
 1274.44        2966.00           1436       27462.00    120113.80
 1274.47        2966.25           1439       28691.00    125510.90
 1274.50        2966.50           1442       29895.00    130800.00
 1274.53        2966.75           1446       31191.00    136495.00
 1274.56        2967.00           1449       31504.00    137870.70
 1274.59        2967.25           1452       31275.00    136864.20
 1274.62        2967.50           1456       31441.00    137593.80
 1274.65        2967.75           1459       31349.00    137189.50
 1274.69        2968.00           1462       31060.00    135919.30
 1274.72        2968.25           1466       29788.00    130329.90
 1274.75        2968.50           1469       28546.00    124874.10
 1274.78        2968.75           1472       27225.00    119073.20
 1274.81        2969.00           1476       25534.00    111650.60
 1274.84        2969.25           1479       24053.00    105152.50
 1274.87        2969.50           1482       22676.00     99112.92
 1274.90        2969.75           1486       20743.00     90638.46
 1274.93        2970.00           1489       19246.00     84078.42
 1274.97        2970.25           1492       17670.00     77174.99
 1275.00        2970.50           1496       15863.00     69263.22
 1275.03        2970.75           1499       14416.00     62930.38
 1275.06        2971.00           1502       12937.00     56459.99
 1275.09        2971.25           1506       11039.00     48160.21
 1275.12        2971.50           1509        9592.00     41835.39
 1275.15        2971.75           1513        7818.00     34084.53
 1275.18        2972.00           1516        6282.00     27376.44
 1275.21        2972.25           1519        4810.00     20950.39
 1275.25        2972.50           1523        3075.00     13379.39
 1275.28        2972.75           1526        1779.00      7726.29
 1275.31        2973.00           1529         748.00      3230.48
 1275.34        2973.25           1533         400.00      1713.25
 1275.37        2973.50           1536         298.00      1268.57
 1275.40        2973.75           1539         251.00      1063.68
 1275.43        2974.00           1543         196.00       823.91
 1275.46        2974.25           1546         155.00       645.17
 1275.49        2974.50           1549         116.00       475.16
 1275.53        2974.75           1553          74.00       292.07
 1275.56        2975.00           1556          75.00       296.43
 1275.59        2975.25           1559          78.00       309.51
 1275.62        2975.50           1563          51.00       191.81
 1275.65        2975.75           1566          63.00       244.12
 1275.68        2976.00           1569          60.00       231.04
 1275.71        2976.25           1573          63.00       244.12
 1275.74        2976.50           1576          53.00       200.52
 1275.77        2976.75           1579          62.00       239.76
 1275.80        2977.00           1583          56.00       213.60
 1275.83        2977.25           1586          59.00       226.68
 1275.86        2977.50           1590          49.00       183.09
 1275.90        2977.75           1593          50.00       187.45
 1275.93        2978.00           1596          59.00       226.68
 1275.96        2978.25           1600          59.00       226.68
 1275.99        2978.50           1603          51.00       191.81
 1276.02        2978.75           1606          63.00       244.12
 1276.05        2979.00           1610          54.00       204.88
 1276.08        2979.25           1613          51.00       191.81
 1276.11        2979.50           1616          49.00       183.09
 1276.14        2979.75           1620          59.00       226.68
 1276.17        2980.00           1623          55.00       209.24
 1276.20        2980.25           1626          59.00       226.68
 1276.24        2980.50           1630          50.00       187.45
 1276.27        2980.75           1633          59.00       226.68
 1276.30        2981.00           1637          51.00       191.81
 1276.33        2981.25           1640          44.00       161.29
 1276.36        2981.50           1643          47.00       174.37
 1276.39        2981.75           1647          52.00       196.17
 1276.42        2982.00           1650          56.00       213.60
 1276.45        2982.25           1653          50.00       187.45
 1276.48        2982.50           1657          40.00       143.85
 1276.52        2982.75           1660          57.00       217.96
 1276.55        2983.00           1663          52.00       196.17
 1276.58        2983.25           1667          53.00       200.52
 1276.61        2983.50           1670          51.00       191.81
 1276.64        2983.75           1673          55.00       209.24
 1276.67        2984.00           1677          57.00       217.96
HS scan finished at 21:16:53
end
