************************************************************
  HS Scan of (1) Internal mercury lamp
************************************************************
Integration time is 0.2294 seconds per sample
dh150517Manchester 53.47 2.23 2.804185pr1000
************************************************************
Dead Time -------------------------  3E-08 
Number of Cycles Used -------------  4 
Starting Wavelength (Angstroms) ---  2950 
Final Wavelength (Angstoms) -------  2984 
Wavelength Increment (Angstroms) --  .25 
Filter Wheel #1 Position ---------- (1) Ground quartz diffuser (ND=2.32)
Filter Wheel #2 Position ---------- (1) Neutral Density 0.494



************************************************************
HS scan start time = 01:32:27
Dark Count =  6.5 


Time (GMT)  Wavelength (Ang)  Step Number  Raw Counts  Counts/Second

   92.83        2950.00           1222          40.00       146.03
   92.89        2950.25           1226          41.00       150.39
   92.92        2950.50           1229          50.00       189.63
   92.95        2950.75           1232          42.00       154.75
   92.99        2951.00           1236          44.00       163.47
   93.02        2951.25           1239          46.00       172.19
   93.05        2951.50           1242          44.00       163.47
   93.08        2951.75           1246          42.00       154.75
   93.11        2952.00           1249          47.00       176.55
   93.14        2952.25           1252          46.00       172.19
   93.17        2952.50           1256          54.00       207.06
   93.20        2952.75           1259          46.00       172.19
   93.23        2953.00           1262          38.00       137.32
   93.26        2953.25           1266          42.00       154.75
   93.29        2953.50           1269          40.00       146.03
   93.32        2953.75           1272          47.00       176.55
   93.35        2954.00           1276          43.00       159.11
   93.39        2954.25           1279          56.00       215.78
   93.42        2954.50           1282          40.00       146.03
   93.45        2954.75           1286          46.00       172.19
   93.48        2955.00           1289          45.00       167.83
   93.51        2955.25           1292          44.00       163.47
   93.54        2955.50           1296          47.00       176.55
   93.57        2955.75           1299          44.00       163.47
   93.60        2956.00           1302          41.00       150.39
   93.63        2956.25           1306          45.00       167.83
   93.66        2956.50           1309          45.00       167.83
   93.69        2956.75           1312          40.00       146.03
   93.72        2957.00           1316          40.00       146.03
   93.75        2957.25           1319          50.00       189.63
   93.78        2957.50           1322          50.00       189.63
   93.81        2957.75           1326          44.00       163.47
   93.84        2958.00           1329          52.00       198.34
   93.87        2958.25           1332          43.00       159.11
   93.90        2958.50           1336          48.00       180.91
   93.93        2958.75           1339          41.00       150.39
   93.96        2959.00           1342          53.00       202.70
   94.00        2959.25           1346          51.00       193.99
   94.03        2959.50           1349          64.00       250.66
   94.06        2959.75           1352          72.00       285.53
   94.09        2960.00           1356         103.00       420.67
   94.12        2960.25           1359         138.00       573.24
   94.15        2960.50           1362         185.00       778.14
   94.18        2960.75           1366         237.00      1004.83
   94.21        2961.00           1369         291.00      1240.24
   94.24        2961.25           1372         339.00      1449.50
   94.27        2961.50           1376         468.00      2011.89
   94.30        2961.75           1379         877.00      3795.11
   94.33        2962.00           1382        1842.00      8003.23
   94.36        2962.25           1386        3888.00     16928.82
   94.39        2962.50           1389        5556.00     24208.95
   94.43        2962.75           1392        7304.00     31841.65
   94.46        2963.00           1396        9344.00     40753.81
   94.49        2963.25           1399       11137.00     48590.84
   94.52        2963.50           1402       12735.00     55578.64
   94.55        2963.75           1406       14961.00     65317.49
   94.58        2964.00           1409       16759.00     73188.00
   94.61        2964.25           1412       18619.00     81333.78
   94.64        2964.50           1416       21071.00     92078.33
   94.67        2964.75           1419       22671.00     99093.19
   94.71        2965.00           1422       24389.00    106628.70
   94.74        2965.25           1426       26713.00    116827.70
   94.77        2965.50           1429       28378.00    124138.40
   94.80        2965.75           1432       30222.00    132238.90
   94.83        2966.00           1436       32460.00    142075.50
   94.86        2966.25           1439       33854.00    148205.40
   94.89        2966.50           1442       35517.00    155521.20
   94.92        2966.75           1446       36736.00    160885.80
   94.95        2967.00           1449       36819.00    161251.20
   94.99        2967.25           1452       36890.00    161563.70
   95.02        2967.50           1456       36878.00    161510.90
   95.05        2967.75           1459       36727.00    160846.20
   95.08        2968.00           1462       36397.00    159393.80
   95.11        2968.25           1466       35096.00    153668.90
   95.14        2968.50           1469       33537.00    146811.30
   95.17        2968.75           1472       31927.00    139732.30
   95.20        2969.00           1476       29672.00    129822.40
   95.23        2969.25           1479       27914.00    122100.80
   95.27        2969.50           1482       26438.00    115620.50
   95.30        2969.75           1486       24079.00    105268.70
   95.33        2970.00           1489       22347.00     97672.44
   95.36        2970.25           1492       20823.00     90991.28
   95.39        2970.50           1496       18724.00     81793.75
   95.42        2970.75           1499       16776.00     73262.41
   95.45        2971.00           1502       15156.00     66170.90
   95.48        2971.25           1506       12763.00     55701.11
   95.51        2971.50           1509       11130.00     48560.23
   95.55        2971.75           1513        8682.00     37861.20
   95.58        2972.00           1516        7106.00     30976.90
   95.61        2972.25           1519        5535.00     24117.27
   95.64        2972.50           1523        3314.00     14424.29
   95.67        2972.75           1526        1846.00      8020.68
   95.70        2973.00           1529         865.00      3742.79
   95.73        2973.25           1533         450.00      1933.42
   95.76        2973.50           1536         343.00      1466.93
   95.79        2973.75           1539         297.00      1266.40
   95.82        2974.00           1543         250.00      1061.50
   95.85        2974.25           1546         183.00       769.42
   95.88        2974.50           1549         136.00       564.53
   95.91        2974.75           1553          83.00       333.48
   95.95        2975.00           1556          65.00       255.02
   95.98        2975.25           1559          50.00       189.63
   96.01        2975.50           1563          52.00       198.34
   96.04        2975.75           1566          46.00       172.19
   96.07        2976.00           1569          44.00       163.47
   96.10        2976.25           1573          49.00       185.27
   96.13        2976.50           1576          49.00       185.27
   96.16        2976.75           1579          51.00       193.99
   96.19        2977.00           1583          50.00       189.63
   96.22        2977.25           1586          46.00       172.19
   96.25        2977.50           1590          50.00       189.63
   96.28        2977.75           1593          43.00       159.11
   96.31        2978.00           1596          44.00       163.47
   96.34        2978.25           1600          43.00       159.11
   96.38        2978.50           1603          59.00       228.86
   96.41        2978.75           1606          41.00       150.39
   96.44        2979.00           1610          41.00       150.39
   96.47        2979.25           1613          39.00       141.67
   96.50        2979.50           1616          40.00       146.03
   96.53        2979.75           1620          41.00       150.39
   96.56        2980.00           1623          39.00       141.67
   96.59        2980.25           1626          46.00       172.19
   96.62        2980.50           1630          44.00       163.47
   96.65        2980.75           1633          47.00       176.55
   96.68        2981.00           1637          44.00       163.47
   96.72        2981.25           1640          40.00       146.03
   96.75        2981.50           1643          46.00       172.19
   96.78        2981.75           1647          47.00       176.55
   96.81        2982.00           1650          45.00       167.83
   96.84        2982.25           1653          45.00       167.83
   96.87        2982.50           1657          48.00       180.91
   96.90        2982.75           1660          43.00       159.11
   96.93        2983.00           1663          44.00       163.47
   96.96        2983.25           1667          42.00       154.75
   96.99        2983.50           1670          48.00       180.91
   97.03        2983.75           1673          40.00       146.03
   97.06        2984.00           1677          45.00       167.83
HS scan finished at 01:37:16
end
************************************************************
  HS Scan of (1) Internal mercury lamp
************************************************************
Integration time is 0.2294 seconds per sample
dh150517Manchester 53.47 2.23 2.857833pr1000
************************************************************
Dead Time -------------------------  3E-08 
Number of Cycles Used -------------  4 
Starting Wavelength (Angstroms) ---  2950 
Final Wavelength (Angstoms) -------  2984 
Wavelength Increment (Angstroms) --  .25 
Filter Wheel #1 Position ---------- (1) Ground quartz diffuser (ND=2.32)
Filter Wheel #2 Position ---------- (1) Neutral Density 0.494



************************************************************
HS scan start time = 21:11:59
Dark Count =  8.3 


Time (GMT)  Wavelength (Ang)  Step Number  Raw Counts  Counts/Second

 1272.36        2950.00           1222          44.00       155.62
 1272.42        2950.25           1226          44.00       155.62
 1272.45        2950.50           1229          49.00       177.42
 1272.48        2950.75           1232          41.00       142.55
 1272.52        2951.00           1236          52.00       190.50
 1272.55        2951.25           1239          45.00       159.98
 1272.58        2951.50           1242          47.00       168.70
 1272.61        2951.75           1246          49.00       177.42
 1272.64        2952.00           1249          52.00       190.50
 1272.67        2952.25           1252          43.00       151.26
 1272.70        2952.50           1256          46.00       164.34
 1272.73        2952.75           1259          46.00       164.34
 1272.76        2953.00           1262          46.00       164.34
 1272.79        2953.25           1266          40.00       138.19
 1272.82        2953.50           1269          51.00       186.14
 1272.85        2953.75           1272          40.00       138.19
 1272.89        2954.00           1276          40.00       138.19
 1272.92        2954.25           1279          51.00       186.14
 1272.95        2954.50           1282          42.00       146.91
 1272.98        2954.75           1286          48.00       173.06
 1273.01        2955.00           1289          45.00       159.98
 1273.04        2955.25           1292          45.00       159.98
 1273.07        2955.50           1296          47.00       168.70
 1273.10        2955.75           1299          46.00       164.34
 1273.13        2956.00           1302          52.00       190.50
 1273.16        2956.25           1306          39.00       133.83
 1273.19        2956.50           1309          44.00       155.62
 1273.23        2956.75           1312          47.00       168.70
 1273.26        2957.00           1316          47.00       168.70
 1273.29        2957.25           1319          46.00       164.34
 1273.32        2957.50           1322          42.00       146.91
 1273.35        2957.75           1326          44.00       155.62
 1273.38        2958.00           1329          44.00       155.62
 1273.41        2958.25           1332          48.00       173.06
 1273.44        2958.50           1336          52.00       190.50
 1273.47        2958.75           1339          43.00       151.26
 1273.50        2959.00           1342          42.00       146.91
 1273.53        2959.25           1346          47.00       168.70
 1273.56        2959.50           1349          55.00       203.58
 1273.60        2959.75           1352          66.00       251.53
 1273.63        2960.00           1356          95.00       377.95
 1273.66        2960.25           1359         137.00       561.04
 1273.69        2960.50           1362         178.00       739.77
 1273.72        2960.75           1366         249.00      1049.29
 1273.75        2961.00           1369         275.00      1162.64
 1273.78        2961.25           1372         304.00      1289.06
 1273.81        2961.50           1376         421.00      1799.14
 1273.84        2961.75           1379         544.00      2335.39
 1273.87        2962.00           1382        1033.00      4467.47
 1273.90        2962.25           1386        2567.00     11157.61
 1273.94        2962.50           1389        4191.00     18243.20
 1273.97        2962.75           1392        5877.00     25602.49
 1274.00        2963.00           1396        8065.00     35157.81
 1274.03        2963.25           1399        9781.00     42655.69
 1274.06        2963.50           1402       11567.00     50463.00
 1274.09        2963.75           1406       13966.00     60955.75
 1274.12        2964.00           1409       15521.00     67760.53
 1274.15        2964.25           1412       17187.00     75054.16
 1274.18        2964.50           1416       19782.00     86421.24
 1274.21        2964.75           1419       21610.00     94433.24
 1274.25        2965.00           1422       23508.00    102756.10
 1274.28        2965.25           1426       25742.00    112557.70
 1274.31        2965.50           1429       27540.00    120450.60
 1274.34        2965.75           1432       29132.00    127442.30
 1274.37        2966.00           1436       31149.00    136304.70
 1274.40        2966.25           1439       32792.00    143527.30
 1274.43        2966.50           1442       34301.00    150163.60
 1274.46        2966.75           1446       36340.00    159135.00
 1274.49        2967.00           1449       36833.00    161304.90
 1274.52        2967.25           1452       36978.00    161943.10
 1274.55        2967.50           1456       37255.00    163162.40
 1274.58        2967.75           1459       37022.00    162136.80
 1274.62        2968.00           1462       36973.00    161921.10
 1274.65        2968.25           1466       36039.00    157810.30
 1274.68        2968.50           1469       35155.00    153920.50
 1274.71        2968.75           1472       33460.00    146464.70
 1274.74        2969.00           1476       31100.00    136089.40
 1274.77        2969.25           1479       29377.00    128518.50
 1274.80        2969.50           1482       27743.00    121342.00
 1274.83        2969.75           1486       25726.00    112487.50
 1274.87        2970.00           1489       23688.00    103545.70
 1274.90        2970.25           1492       21955.00     95945.78
 1274.93        2970.50           1496       19790.00     86456.30
 1274.96        2970.75           1499       18085.00     78986.86
 1274.99        2971.00           1502       16374.00     71494.50
 1275.02        2971.25           1506       14197.00     61966.45
 1275.05        2971.50           1509       12482.00     54464.25
 1275.08        2971.75           1513       10283.00     44849.76
 1275.11        2972.00           1516        8698.00     37923.25
 1275.15        2972.25           1519        6986.00     30444.97
 1275.18        2972.50           1523        4715.00     20530.08
 1275.21        2972.75           1526        3166.00     13770.73
 1275.24        2973.00           1529        1784.00      7742.43
 1275.27        2973.25           1533         606.00      2605.70
 1275.30        2973.50           1536         380.00      1620.39
 1275.33        2973.75           1539         316.00      1341.38
 1275.36        2974.00           1543         266.00      1123.40
 1275.39        2974.25           1546         190.00       792.09
 1275.43        2974.50           1549         140.00       574.12
 1275.46        2974.75           1553         103.00       412.82
 1275.49        2975.00           1556          75.00       290.76
 1275.52        2975.25           1559          53.00       194.86
 1275.55        2975.50           1563          41.00       142.55
 1275.58        2975.75           1566          54.00       199.22
 1275.61        2976.00           1569          47.00       168.70
 1275.64        2976.25           1573          51.00       186.14
 1275.67        2976.50           1576          42.00       146.91
 1275.70        2976.75           1579          50.00       181.78
 1275.74        2977.00           1583          42.00       146.91
 1275.77        2977.25           1586          38.00       129.47
 1275.80        2977.50           1590          51.00       186.14
 1275.83        2977.75           1593          40.00       138.19
 1275.86        2978.00           1596          52.00       190.50
 1275.89        2978.25           1600          45.00       159.98
 1275.92        2978.50           1603          43.00       151.26
 1275.95        2978.75           1606          48.00       173.06
 1275.98        2979.00           1610          43.00       151.26
 1276.01        2979.25           1613          47.00       168.70
 1276.04        2979.50           1616          47.00       168.70
 1276.07        2979.75           1620          49.00       177.42
 1276.10        2980.00           1623          53.00       194.86
 1276.13        2980.25           1626          47.00       168.70
 1276.16        2980.50           1630          39.00       133.83
 1276.20        2980.75           1633          42.00       146.91
 1276.23        2981.00           1637          41.00       142.55
 1276.26        2981.25           1640          41.00       142.55
 1276.29        2981.50           1643          46.00       164.34
 1276.32        2981.75           1647          46.00       164.34
 1276.35        2982.00           1650          41.00       142.55
 1276.38        2982.25           1653          46.00       164.34
 1276.41        2982.50           1657          47.00       168.70
 1276.44        2982.75           1660          40.00       138.19
 1276.47        2983.00           1663          52.00       190.50
 1276.50        2983.25           1667          42.00       146.91
 1276.53        2983.50           1670          41.00       142.55
 1276.57        2983.75           1673          38.00       129.47
 1276.60        2984.00           1677          44.00       155.62
HS scan finished at 21:16:49
end
