************************************************************
  HS Scan of (1) Internal mercury lamp
************************************************************
Integration time is 0.2294 seconds per sample
dh160518Manchester 53.47 2.23 2.804185pr1000
************************************************************
Dead Time -------------------------  3E-08 
Number of Cycles Used -------------  4 
Starting Wavelength (Angstroms) ---  2950 
Final Wavelength (Angstoms) -------  2984 
Wavelength Increment (Angstroms) --  .25 
Filter Wheel #1 Position ---------- (1) Ground quartz diffuser (ND=2.32)
Filter Wheel #2 Position ---------- (1) Neutral Density 0.494



************************************************************
HS scan start time = 01:33:11
Dark Count =  7 


Time (GMT)  Wavelength (Ang)  Step Number  Raw Counts  Counts/Second

   93.56        2950.00           1222          59.00       226.68
   93.62        2950.25           1226          60.00       231.04
   93.65        2950.50           1229          59.00       226.68
   93.68        2950.75           1232          60.00       231.04
   93.72        2951.00           1236          52.00       196.17
   93.75        2951.25           1239          47.00       174.37
   93.78        2951.50           1242          56.00       213.60
   93.81        2951.75           1246          57.00       217.96
   93.84        2952.00           1249          58.00       222.32
   93.87        2952.25           1252          56.00       213.60
   93.90        2952.50           1256          52.00       196.17
   93.93        2952.75           1259          52.00       196.17
   93.96        2953.00           1262          57.00       217.96
   93.99        2953.25           1266          58.00       222.32
   94.02        2953.50           1269          52.00       196.17
   94.05        2953.75           1272          55.00       209.24
   94.08        2954.00           1276          57.00       217.96
   94.12        2954.25           1279          54.00       204.88
   94.15        2954.50           1282          49.00       183.09
   94.18        2954.75           1286          59.00       226.68
   94.21        2955.00           1289          54.00       204.88
   94.24        2955.25           1292          53.00       200.52
   94.27        2955.50           1296          57.00       217.96
   94.30        2955.75           1299          51.00       191.81
   94.33        2956.00           1302          63.00       244.12
   94.36        2956.25           1306          57.00       217.96
   94.39        2956.50           1309          64.00       248.48
   94.42        2956.75           1312          51.00       191.81
   94.45        2957.00           1316          55.00       209.24
   94.49        2957.25           1319          62.00       239.76
   94.52        2957.50           1322          53.00       200.52
   94.55        2957.75           1326          62.00       239.76
   94.58        2958.00           1329          52.00       196.17
   94.61        2958.25           1332          66.00       257.19
   94.64        2958.50           1336          57.00       217.96
   94.67        2958.75           1339          55.00       209.24
   94.70        2959.00           1342          74.00       292.07
   94.73        2959.25           1346          52.00       196.17
   94.77        2959.50           1349          62.00       239.76
   94.80        2959.75           1352          79.00       313.87
   94.83        2960.00           1356          91.00       366.18
   94.86        2960.25           1359         116.00       475.16
   94.89        2960.50           1362         159.00       662.61
   94.92        2960.75           1366         208.00       876.22
   94.95        2961.00           1369         233.00       985.21
   94.98        2961.25           1372         279.00      1185.74
   95.01        2961.50           1376         370.00      1582.46
   95.04        2961.75           1379         445.00      1909.44
   95.08        2962.00           1382         881.00      3810.37
   95.11        2962.25           1386        2326.00     10112.05
   95.14        2962.50           1389        3606.00     15696.14
   95.17        2962.75           1392        5138.00     22382.07
   95.20        2963.00           1396        7015.00     30577.30
   95.23        2963.25           1399        8539.00     37234.25
   95.26        2963.50           1402        9960.00     43443.68
   95.29        2963.75           1406       11968.00     52222.12
   95.32        2964.00           1409       13416.00     58555.26
   95.36        2964.25           1412       15094.00     65897.36
   95.39        2964.50           1416       16887.00     73746.24
   95.42        2964.75           1419       18428.00     80494.94
   95.45        2965.00           1422       19900.00     86944.01
   95.48        2965.25           1426       21764.00     95114.08
   95.51        2965.50           1429       23169.00    101275.00
   95.54        2965.75           1432       24809.00    108469.20
   95.57        2966.00           1436       26853.00    117440.10
   95.60        2966.25           1439       28093.00    122884.60
   95.63        2966.50           1442       29446.00    128827.40
   95.67        2966.75           1446       31050.00    135875.30
   95.70        2967.00           1449       31533.00    137998.20
   95.73        2967.25           1452       31455.00    137655.40
   95.76        2967.50           1456       31539.00    138024.60
   95.79        2967.75           1459       31747.00    138938.90
   95.82        2968.00           1462       31464.00    137694.90
   95.85        2968.25           1466       30822.00    134873.30
   95.88        2968.50           1469       29758.00    130198.10
   95.91        2968.75           1472       28294.00    123767.30
   95.94        2969.00           1476       26318.00    115091.60
   95.97        2969.25           1479       24926.00    108982.60
   96.00        2969.50           1482       23221.00    101503.00
   96.04        2969.75           1486       21544.00     94149.59
   96.07        2970.00           1489       20032.00     87522.44
   96.10        2970.25           1492       18489.00     80762.13
   96.13        2970.50           1496       16602.00     72498.41
   96.16        2970.75           1499       15286.00     66737.68
   96.19        2971.00           1502       13792.00     60200.17
   96.22        2971.25           1506       12151.00     53022.38
   96.25        2971.50           1509       10689.00     46630.14
   96.28        2971.75           1513        8621.00     37592.51
   96.32        2972.00           1516        7221.00     31476.96
   96.35        2972.25           1519        5712.00     24887.80
   96.38        2972.50           1523        3813.00     16599.37
   96.41        2972.75           1526        2497.00     10857.94
   96.44        2973.00           1529        1286.00      5576.35
   96.47        2973.25           1533         474.00      2035.87
   96.50        2973.50           1536         339.00      1447.32
   96.53        2973.75           1539         283.00      1203.18
   96.56        2974.00           1543         231.00       976.49
   96.59        2974.25           1546         170.00       710.56
   96.62        2974.50           1549         146.00       605.94
   96.65        2974.75           1553         108.00       440.28
   96.69        2975.00           1556          79.00       313.87
   96.72        2975.25           1559          62.00       239.76
   96.75        2975.50           1563          59.00       226.68
   96.78        2975.75           1566          54.00       204.88
   96.81        2976.00           1569          54.00       204.88
   96.84        2976.25           1573          54.00       204.88
   96.87        2976.50           1576          53.00       200.52
   96.90        2976.75           1579          49.00       183.09
   96.93        2977.00           1583          56.00       213.60
   96.96        2977.25           1586          57.00       217.96
   96.99        2977.50           1590          60.00       231.04
   97.02        2977.75           1593          53.00       200.52
   97.06        2978.00           1596          53.00       200.52
   97.09        2978.25           1600          55.00       209.24
   97.12        2978.50           1603          49.00       183.09
   97.15        2978.75           1606          50.00       187.45
   97.18        2979.00           1610          59.00       226.68
   97.21        2979.25           1613          52.00       196.17
   97.24        2979.50           1616          56.00       213.60
   97.27        2979.75           1620          48.00       178.73
   97.30        2980.00           1623          55.00       209.24
   97.33        2980.25           1626          46.00       170.01
   97.36        2980.50           1630          54.00       204.88
   97.39        2980.75           1633          50.00       187.45
   97.42        2981.00           1637          48.00       178.73
   97.46        2981.25           1640          49.00       183.09
   97.49        2981.50           1643          50.00       187.45
   97.52        2981.75           1647          48.00       178.73
   97.55        2982.00           1650          46.00       170.01
   97.58        2982.25           1653          56.00       213.60
   97.61        2982.50           1657          56.00       213.60
   97.64        2982.75           1660          45.00       165.65
   97.67        2983.00           1663          50.00       187.45
   97.70        2983.25           1667          48.00       178.73
   97.73        2983.50           1670          57.00       217.96
   97.76        2983.75           1673          52.00       196.17
   97.80        2984.00           1677          53.00       200.52
HS scan finished at 01:38:01
end
************************************************************
  HS Scan of (1) Internal mercury lamp
************************************************************
Integration time is 0.2294 seconds per sample
dh160518Manchester 53.47 2.23 2.804185pr1000
************************************************************
Dead Time -------------------------  3E-08 
Number of Cycles Used -------------  4 
Starting Wavelength (Angstroms) ---  2950 
Final Wavelength (Angstoms) -------  2984 
Wavelength Increment (Angstroms) --  .25 
Filter Wheel #1 Position ---------- (1) Ground quartz diffuser (ND=2.32)
Filter Wheel #2 Position ---------- (1) Neutral Density 0.494



************************************************************
HS scan start time = 21:12:03
Dark Count =  7.6 


Time (GMT)  Wavelength (Ang)  Step Number  Raw Counts  Counts/Second

 1272.42        2950.00           1222          54.00       202.27
 1272.48        2950.25           1226          56.00       210.99
 1272.51        2950.50           1229          55.00       206.63
 1272.54        2950.75           1232          58.00       219.71
 1272.57        2951.00           1236          64.00       245.86
 1272.61        2951.25           1239          65.00       250.22
 1272.64        2951.50           1242          54.00       202.27
 1272.67        2951.75           1246          58.00       219.71
 1272.70        2952.00           1249          61.00       232.78
 1272.73        2952.25           1252          67.00       258.94
 1272.76        2952.50           1256          57.00       215.35
 1272.79        2952.75           1259          66.00       254.58
 1272.82        2953.00           1262          51.00       189.19
 1272.85        2953.25           1266          60.00       228.42
 1272.88        2953.50           1269          63.00       241.50
 1272.92        2953.75           1272          59.00       224.06
 1272.95        2954.00           1276          64.00       245.86
 1272.98        2954.25           1279          65.00       250.22
 1273.01        2954.50           1282          51.00       189.19
 1273.04        2954.75           1286          63.00       241.50
 1273.07        2955.00           1289          50.00       184.83
 1273.10        2955.25           1292          56.00       210.99
 1273.13        2955.50           1296          60.00       228.42
 1273.16        2955.75           1299          55.00       206.63
 1273.19        2956.00           1302          57.00       215.35
 1273.22        2956.25           1306          60.00       228.42
 1273.25        2956.50           1309          60.00       228.42
 1273.28        2956.75           1312          58.00       219.71
 1273.32        2957.00           1316          50.00       184.83
 1273.35        2957.25           1319          61.00       232.78
 1273.38        2957.50           1322          48.00       176.11
 1273.41        2957.75           1326          53.00       197.91
 1273.44        2958.00           1329          60.00       228.42
 1273.47        2958.25           1332          59.00       224.06
 1273.50        2958.50           1336          52.00       193.55
 1273.53        2958.75           1339          54.00       202.27
 1273.56        2959.00           1342          61.00       232.78
 1273.59        2959.25           1346          62.00       237.14
 1273.62        2959.50           1349          69.00       267.66
 1273.65        2959.75           1352          73.00       285.09
 1273.68        2960.00           1356         100.00       402.79
 1273.72        2960.25           1359         128.00       524.86
 1273.75        2960.50           1362         164.00       681.79
 1273.78        2960.75           1366         195.00       816.93
 1273.81        2961.00           1369         250.00      1056.70
 1273.84        2961.25           1372         285.00      1209.29
 1273.87        2961.50           1376         355.00      1514.45
 1273.90        2961.75           1379         516.00      2216.36
 1273.93        2962.00           1382        1147.00      4967.61
 1273.96        2962.25           1386        2856.00     12421.37
 1273.99        2962.50           1389        4193.00     18254.98
 1274.03        2962.75           1392        5486.00     23898.56
 1274.06        2963.00           1396        7365.00     32103.27
 1274.09        2963.25           1399        8813.00     38428.76
 1274.12        2963.50           1402       10301.00     44931.49
 1274.15        2963.75           1406       12210.00     53277.77
 1274.18        2964.00           1409       13688.00     59742.55
 1274.21        2964.25           1412       15245.00     66555.60
 1274.24        2964.50           1416       17303.00     75565.19
 1274.27        2964.75           1419       18717.00     81758.27
 1274.31        2965.00           1422       20199.00     88251.66
 1274.34        2965.25           1426       22244.00     97215.99
 1274.37        2965.50           1429       23608.00    103197.80
 1274.40        2965.75           1432       25008.00    109339.80
 1274.43        2966.00           1436       26848.00    117415.50
 1274.46        2966.25           1439       28129.00    123040.10
 1274.49        2966.50           1442       29384.00    128552.40
 1274.52        2966.75           1446       30964.00    135494.70
 1274.55        2967.00           1449       31299.00    136967.10
 1274.59        2967.25           1452       31257.00    136782.50
 1274.62        2967.50           1456       31351.00    137195.60
 1274.65        2967.75           1459       31304.00    136989.00
 1274.68        2968.00           1462       31141.00    136272.60
 1274.71        2968.25           1466       30187.00    132080.30
 1274.74        2968.50           1469       28674.00    125433.60
 1274.77        2968.75           1472       27432.00    119979.50
 1274.80        2969.00           1476       25635.00    112091.20
 1274.83        2969.25           1479       24074.00    105242.00
 1274.87        2969.50           1482       22837.00     99816.32
 1274.90        2969.75           1486       20839.00     91056.59
 1274.93        2970.00           1489       19407.00     84781.19
 1274.96        2970.25           1492       18294.00     79905.36
 1274.99        2970.50           1496       16385.00     71545.73
 1275.02        2970.75           1499       14789.00     64559.97
 1275.05        2971.00           1502       13337.00     58207.05
 1275.08        2971.25           1506       11316.00     49368.62
 1275.11        2971.50           1509        9844.00     42934.08
 1275.14        2971.75           1513        8006.00     34903.14
 1275.18        2972.00           1516        6654.00     28998.19
 1275.21        2972.25           1519        5291.00     23047.32
 1275.24        2972.50           1523        3440.00     14969.23
 1275.27        2972.75           1526        2147.00      9328.68
 1275.30        2973.00           1529         979.00      4235.06
 1275.33        2973.25           1533         411.00      1758.59
 1275.36        2973.50           1536         305.00      1296.48
 1275.39        2973.75           1539         262.00      1109.02
 1275.42        2974.00           1543         221.00       930.28
 1275.45        2974.25           1546         177.00       738.46
 1275.49        2974.50           1549         134.00       551.01
 1275.52        2974.75           1553          96.00       385.36
 1275.55        2975.00           1556          82.00       324.33
 1275.58        2975.25           1559          67.00       258.94
 1275.61        2975.50           1563          60.00       228.42
 1275.64        2975.75           1566          60.00       228.42
 1275.67        2976.00           1569          62.00       237.14
 1275.70        2976.25           1573          54.00       202.27
 1275.73        2976.50           1576          52.00       193.55
 1275.76        2976.75           1579          47.00       171.75
 1275.79        2977.00           1583          52.00       193.55
 1275.83        2977.25           1586          50.00       184.83
 1275.86        2977.50           1590          47.00       171.75
 1275.89        2977.75           1593          52.00       193.55
 1275.92        2978.00           1596          53.00       197.91
 1275.95        2978.25           1600          52.00       193.55
 1275.98        2978.50           1603          62.00       237.14
 1276.01        2978.75           1606          56.00       210.99
 1276.04        2979.00           1610          56.00       210.99
 1276.07        2979.25           1613          53.00       197.91
 1276.10        2979.50           1616          54.00       202.27
 1276.13        2979.75           1620          51.00       189.19
 1276.17        2980.00           1623          52.00       193.55
 1276.20        2980.25           1626          48.00       176.11
 1276.23        2980.50           1630          54.00       202.27
 1276.26        2980.75           1633          60.00       228.42
 1276.29        2981.00           1637          60.00       228.42
 1276.32        2981.25           1640          58.00       219.71
 1276.35        2981.50           1643          58.00       219.71
 1276.38        2981.75           1647          56.00       210.99
 1276.41        2982.00           1650          52.00       193.55
 1276.44        2982.25           1653          52.00       193.55
 1276.47        2982.50           1657          46.00       167.39
 1276.50        2982.75           1660          50.00       184.83
 1276.53        2983.00           1663          50.00       184.83
 1276.57        2983.25           1667          57.00       215.35
 1276.60        2983.50           1670          46.00       167.39
 1276.63        2983.75           1673          52.00       193.55
 1276.66        2984.00           1677          57.00       215.35
HS scan finished at 21:16:52
end
