************************************************************
  HS Scan of (1) Internal mercury lamp
************************************************************
Integration time is 0.2294 seconds per sample
dh100517Manchester 53.47 2.23 2.804185pr1000
************************************************************
Dead Time -------------------------  3E-08 
Number of Cycles Used -------------  4 
Starting Wavelength (Angstroms) ---  2950 
Final Wavelength (Angstoms) -------  2984 
Wavelength Increment (Angstroms) --  .25 
Filter Wheel #1 Position ---------- (1) Ground quartz diffuser (ND=2.32)
Filter Wheel #2 Position ---------- (1) Neutral Density 0.494



************************************************************
HS scan start time = 02:10:04
Dark Count =  9.600001 


Time (GMT)  Wavelength (Ang)  Step Number  Raw Counts  Counts/Second

  130.44        2950.00           1222          44.00       149.96
  130.51        2950.25           1226          40.00       132.52
  130.54        2950.50           1229          48.00       167.39
  130.57        2950.75           1232          45.00       154.32
  130.60        2951.00           1236          48.00       167.39
  130.63        2951.25           1239          47.00       163.03
  130.66        2951.50           1242          48.00       167.39
  130.69        2951.75           1246          40.00       132.52
  130.72        2952.00           1249          51.00       180.47
  130.75        2952.25           1252          46.00       158.68
  130.78        2952.50           1256          44.00       149.96
  130.82        2952.75           1259          53.00       189.19
  130.85        2953.00           1262          44.00       149.96
  130.88        2953.25           1266          48.00       167.39
  130.91        2953.50           1269          50.00       176.11
  130.94        2953.75           1272          46.00       158.68
  130.97        2954.00           1276          40.00       132.52
  131.00        2954.25           1279          59.00       215.35
  131.03        2954.50           1282          41.00       136.88
  131.06        2954.75           1286          54.00       193.55
  131.09        2955.00           1289          49.00       171.75
  131.13        2955.25           1292          47.00       163.03
  131.16        2955.50           1296          53.00       189.19
  131.19        2955.75           1299          52.00       184.83
  131.22        2956.00           1302          48.00       167.39
  131.25        2956.25           1306          45.00       154.32
  131.28        2956.50           1309          46.00       158.68
  131.31        2956.75           1312          46.00       158.68
  131.34        2957.00           1316          50.00       176.11
  131.37        2957.25           1319          48.00       167.39
  131.40        2957.50           1322          39.00       128.16
  131.43        2957.75           1326          45.00       154.32
  131.46        2958.00           1329          50.00       176.11
  131.50        2958.25           1332          44.00       149.96
  131.53        2958.50           1336          44.00       149.96
  131.56        2958.75           1339          47.00       163.03
  131.59        2959.00           1342          47.00       163.03
  131.62        2959.25           1346          57.00       206.63
  131.65        2959.50           1349          60.00       219.71
  131.68        2959.75           1352          85.00       328.69
  131.71        2960.00           1356         124.00       498.70
  131.74        2960.25           1359         141.00       572.81
  131.77        2960.50           1362         181.00       747.18
  131.80        2960.75           1366         253.00      1061.06
  131.83        2961.00           1369         302.00      1274.68
  131.86        2961.25           1372         342.00      1449.06
  131.89        2961.50           1376         465.00      1985.30
  131.93        2961.75           1379         796.00      3428.43
  131.96        2962.00           1382        1670.00      7239.59
  131.99        2962.25           1386        3625.00     15767.70
  132.02        2962.50           1389        5261.00     22907.63
  132.05        2962.75           1392        6840.00     29801.70
  132.08        2963.00           1396        8961.00     39066.68
  132.11        2963.25           1399       10566.00     46081.10
  132.14        2963.50           1402       12432.00     54239.89
  132.17        2963.75           1406       14788.00     64546.84
  132.21        2964.00           1409       16496.00     72022.94
  132.24        2964.25           1412       18589.00     81188.80
  132.27        2964.50           1416       20975.00     91643.94
  132.30        2964.75           1419       22743.00     99395.33
  132.33        2965.00           1422       24327.00    106343.10
  132.36        2965.25           1426       26858.00    117450.60
  132.39        2965.50           1429       28486.00    124599.10
  132.42        2965.75           1432       30077.00    131588.20
  132.45        2966.00           1436       32357.00    141609.00
  132.49        2966.25           1439       33660.00    147338.60
  132.52        2966.50           1442       35334.00    154702.40
  132.55        2966.75           1446       36827.00    161272.70
  132.58        2967.00           1449       36995.00    162012.20
  132.61        2967.25           1452       37104.00    162492.00
  132.64        2967.50           1456       37066.00    162324.70
  132.67        2967.75           1459       36968.00    161893.40
  132.70        2968.00           1462       36461.00    159661.80
  132.73        2968.25           1466       35276.00    154447.20
  132.76        2968.50           1469       33701.00    147518.90
  132.80        2968.75           1472       32194.00    140892.40
  132.83        2969.00           1476       30124.00    131794.70
  132.86        2969.25           1479       28407.00    124252.20
  132.89        2969.50           1482       26900.00    117635.00
  132.92        2969.75           1486       24585.00    107475.00
  132.95        2970.00           1489       22758.00     99461.12
  132.98        2970.25           1492       20858.00     91131.11
  133.01        2970.50           1496       18844.00     82305.86
  133.04        2970.75           1499       17115.00     74733.19
  133.07        2971.00           1502       15260.00     66612.50
  133.11        2971.25           1506       13093.00     57130.97
  133.14        2971.50           1509       11172.00     48730.30
  133.17        2971.75           1513        9070.00     39542.96
  133.20        2972.00           1516        7448.00     32457.05
  133.23        2972.25           1519        5817.00     25334.85
  133.26        2972.50           1523        3715.00     16160.41
  133.29        2972.75           1526        2156.00      9359.21
  133.32        2973.00           1529         958.00      4134.78
  133.35        2973.25           1533         433.00      1845.79
  133.38        2973.50           1536         309.00      1305.20
  133.41        2973.75           1539         260.00      1091.58
  133.45        2974.00           1543         218.00       908.48
  133.48        2974.25           1546         146.00       594.61
  133.51        2974.50           1549         110.00       437.67
  133.54        2974.75           1553          71.00       267.66
  133.57        2975.00           1556          66.00       245.86
  133.60        2975.25           1559          50.00       176.11
  133.63        2975.50           1563          46.00       158.68
  133.66        2975.75           1566          52.00       184.83
  133.69        2976.00           1569          51.00       180.47
  133.72        2976.25           1573          48.00       167.39
  133.75        2976.50           1576          52.00       184.83
  133.79        2976.75           1579          49.00       171.75
  133.82        2977.00           1583          36.00       115.08
  133.85        2977.25           1586          50.00       176.11
  133.88        2977.50           1590          47.00       163.03
  133.91        2977.75           1593          47.00       163.03
  133.94        2978.00           1596          51.00       180.47
  133.97        2978.25           1600          48.00       167.39
  134.00        2978.50           1603          47.00       163.03
  134.03        2978.75           1606          41.00       136.88
  134.06        2979.00           1610          48.00       167.39
  134.09        2979.25           1613          46.00       158.68
  134.12        2979.50           1616          48.00       167.39
  134.16        2979.75           1620          53.00       189.19
  134.19        2980.00           1623          45.00       154.32
  134.22        2980.25           1626          47.00       163.03
  134.25        2980.50           1630          52.00       184.83
  134.28        2980.75           1633          41.00       136.88
  134.31        2981.00           1637          44.00       149.96
  134.34        2981.25           1640          46.00       158.68
  134.37        2981.50           1643          49.00       171.75
  134.40        2981.75           1647          40.00       132.52
  134.43        2982.00           1650          43.00       145.60
  134.46        2982.25           1653          53.00       189.19
  134.50        2982.50           1657          43.00       145.60
  134.53        2982.75           1660          42.00       141.24
  134.56        2983.00           1663          46.00       158.68
  134.59        2983.25           1667          49.00       171.75
  134.62        2983.50           1670          43.00       145.60
  134.65        2983.75           1673          48.00       167.39
  134.68        2984.00           1677          46.00       158.68
HS scan finished at 02:14:54
end
************************************************************
  HS Scan of (1) Internal mercury lamp
************************************************************
Integration time is 0.2294 seconds per sample
dh100517Manchester 53.47 2.23 2.857833pr1000
************************************************************
Dead Time -------------------------  3E-08 
Number of Cycles Used -------------  4 
Starting Wavelength (Angstroms) ---  2950 
Final Wavelength (Angstoms) -------  2984 
Wavelength Increment (Angstroms) --  .25 
Filter Wheel #1 Position ---------- (1) Ground quartz diffuser (ND=2.32)
Filter Wheel #2 Position ---------- (1) Neutral Density 0.494



************************************************************
HS scan start time = 20:42:00
Dark Count =  6.5 


Time (GMT)  Wavelength (Ang)  Step Number  Raw Counts  Counts/Second

 1242.36        2950.00           1222          50.00       189.63
 1242.43        2950.25           1226          42.00       154.75
 1242.46        2950.50           1229          40.00       146.03
 1242.49        2950.75           1232          49.00       185.27
 1242.52        2951.00           1236          42.00       154.75
 1242.56        2951.25           1239          48.00       180.91
 1242.59        2951.50           1242          50.00       189.63
 1242.62        2951.75           1246          38.00       137.32
 1242.65        2952.00           1249          50.00       189.63
 1242.68        2952.25           1252          43.00       159.11
 1242.71        2952.50           1256          60.00       233.22
 1242.74        2952.75           1259          45.00       167.83
 1242.77        2953.00           1262          41.00       150.39
 1242.80        2953.25           1266          65.00       255.02
 1242.83        2953.50           1269          53.00       202.70
 1242.87        2953.75           1272          49.00       185.27
 1242.90        2954.00           1276          39.00       141.67
 1242.93        2954.25           1279          47.00       176.55
 1242.96        2954.50           1282          54.00       207.06
 1242.99        2954.75           1286          50.00       189.63
 1243.02        2955.00           1289          54.00       207.06
 1243.05        2955.25           1292          36.00       128.60
 1243.08        2955.50           1296          49.00       185.27
 1243.11        2955.75           1299          45.00       167.83
 1243.14        2956.00           1302          44.00       163.47
 1243.17        2956.25           1306          48.00       180.91
 1243.20        2956.50           1309          42.00       154.75
 1243.23        2956.75           1312          51.00       193.99
 1243.26        2957.00           1316          39.00       141.67
 1243.30        2957.25           1319          51.00       193.99
 1243.33        2957.50           1322          47.00       176.55
 1243.36        2957.75           1326          48.00       180.91
 1243.39        2958.00           1329          45.00       167.83
 1243.42        2958.25           1332          45.00       167.83
 1243.45        2958.50           1336          41.00       150.39
 1243.48        2958.75           1339          67.00       263.73
 1243.51        2959.00           1342          54.00       207.06
 1243.54        2959.25           1346          57.00       220.14
 1243.57        2959.50           1349          58.00       224.50
 1243.60        2959.75           1352          83.00       333.48
 1243.64        2960.00           1356         107.00       438.11
 1243.67        2960.25           1359         147.00       612.48
 1243.70        2960.50           1362         201.00       847.89
 1243.73        2960.75           1366         257.00      1092.01
 1243.76        2961.00           1369         306.00      1305.63
 1243.79        2961.25           1372         342.00      1462.58
 1243.82        2961.50           1376         411.00      1763.39
 1243.85        2961.75           1379         622.00      2683.30
 1243.88        2962.00           1382        1254.00      5438.99
 1243.91        2962.25           1386        2985.00     12988.93
 1243.94        2962.50           1389        4667.00     20328.44
 1243.97        2962.75           1392        6208.00     27055.52
 1244.01        2963.00           1396        8468.00     36926.24
 1244.04        2963.25           1399       10044.00     43813.00
 1244.07        2963.50           1402       11550.00     50396.54
 1244.10        2963.75           1406       14017.00     61186.75
 1244.13        2964.00           1409       15773.00     68871.45
 1244.16        2964.25           1412       17519.00     76515.90
 1244.19        2964.50           1416       20020.00     87472.06
 1244.22        2964.75           1419       21532.00     94099.18
 1244.25        2965.00           1422       23210.00    101457.00
 1244.28        2965.25           1426       25446.00    111266.60
 1244.31        2965.50           1429       27096.00    118509.10
 1244.34        2965.75           1432       28963.00    126707.90
 1244.38        2966.00           1436       30995.00    135635.80
 1244.41        2966.25           1439       32666.00    142981.20
 1244.44        2966.50           1442       34181.00    149643.70
 1244.47        2966.75           1446       36126.00    158201.10
 1244.50        2967.00           1449       36662.00    160560.10
 1244.53        2967.25           1452       37045.00    162246.00
 1244.56        2967.50           1456       36699.00    160723.00
 1244.59        2967.75           1459       36813.00    161224.80
 1244.62        2968.00           1462       36709.00    160767.00
 1244.66        2968.25           1466       35792.00    156731.30
 1244.69        2968.50           1469       34741.00    152107.10
 1244.72        2968.75           1472       33142.00    145074.20
 1244.75        2969.00           1476       31147.00    136303.80
 1244.78        2969.25           1479       29301.00    128192.60
 1244.81        2969.50           1482       27503.00    120296.00
 1244.84        2969.75           1486       25049.00    109524.50
 1244.87        2970.00           1489       23337.00    102014.00
 1244.91        2970.25           1492       21823.00     95374.94
 1244.94        2970.50           1496       19611.00     85679.85
 1244.97        2970.75           1499       17938.00     78350.91
 1245.00        2971.00           1502       16163.00     70578.68
 1245.03        2971.25           1506       13996.00     61094.88
 1245.06        2971.50           1509       12260.00     53501.24
 1245.09        2971.75           1513        9940.00     43358.46
 1245.12        2972.00           1516        8288.00     36139.86
 1245.15        2972.25           1519        6514.00     28391.65
 1245.18        2972.50           1523        4428.00     19285.35
 1245.21        2972.75           1526        2750.00     11963.75
 1245.25        2973.00           1529        1397.00      6062.57
 1245.28        2973.25           1533         522.00      2247.32
 1245.31        2973.50           1536         332.00      1418.98
 1245.34        2973.75           1539         285.00      1214.08
 1245.37        2974.00           1543         230.00       974.31
 1245.40        2974.25           1546         164.00       686.59
 1245.43        2974.50           1549         118.00       486.06
 1245.46        2974.75           1553          77.00       307.33
 1245.49        2975.00           1556          70.00       276.81
 1245.52        2975.25           1559          52.00       198.34
 1245.56        2975.50           1563          47.00       176.55
 1245.59        2975.75           1566          43.00       159.11
 1245.62        2976.00           1569          46.00       172.19
 1245.65        2976.25           1573          44.00       163.47
 1245.68        2976.50           1576          44.00       163.47
 1245.71        2976.75           1579          48.00       180.91
 1245.74        2977.00           1583          47.00       176.55
 1245.77        2977.25           1586          45.00       167.83
 1245.80        2977.50           1590          41.00       150.39
 1245.83        2977.75           1593          47.00       176.55
 1245.86        2978.00           1596          49.00       185.27
 1245.89        2978.25           1600          40.00       146.03
 1245.92        2978.50           1603          53.00       202.70
 1245.95        2978.75           1606          54.00       207.06
 1245.98        2979.00           1610          48.00       180.91
 1246.01        2979.25           1613          43.00       159.11
 1246.05        2979.50           1616          46.00       172.19
 1246.08        2979.75           1620          45.00       167.83
 1246.11        2980.00           1623          47.00       176.55
 1246.14        2980.25           1626          42.00       154.75
 1246.17        2980.50           1630          48.00       180.91
 1246.20        2980.75           1633          42.00       154.75
 1246.23        2981.00           1637          48.00       180.91
 1246.26        2981.25           1640          49.00       185.27
 1246.29        2981.50           1643          44.00       163.47
 1246.32        2981.75           1647          43.00       159.11
 1246.35        2982.00           1650          42.00       154.75
 1246.39        2982.25           1653          45.00       167.83
 1246.42        2982.50           1657          43.00       159.11
 1246.46        2982.75           1660          43.00       159.11
 1246.49        2983.00           1663          42.00       154.75
 1246.53        2983.25           1667          46.00       172.19
 1246.56        2983.50           1670          40.00       146.03
 1246.59        2983.75           1673          47.00       176.55
 1246.62        2984.00           1677          40.00       146.03
HS scan finished at 20:46:50
end
