************************************************************
  HS Scan of (1) Internal mercury lamp
************************************************************
Integration time is 0.2294 seconds per sample
dh150518Manchester 53.47 2.23 2.804185pr1000
************************************************************
Dead Time -------------------------  3E-08 
Number of Cycles Used -------------  4 
Starting Wavelength (Angstroms) ---  2950 
Final Wavelength (Angstoms) -------  2984 
Wavelength Increment (Angstroms) --  .25 
Filter Wheel #1 Position ---------- (1) Ground quartz diffuser (ND=2.32)
Filter Wheel #2 Position ---------- (1) Neutral Density 0.494



************************************************************
HS scan start time = 01:33:22
Dark Count =  6.4 


Time (GMT)  Wavelength (Ang)  Step Number  Raw Counts  Counts/Second

   93.73        2950.00           1222          55.00       211.86
   93.79        2950.25           1226          49.00       185.70
   93.83        2950.50           1229          61.00       238.01
   93.86        2950.75           1232          59.00       229.30
   93.89        2951.00           1236          55.00       211.86
   93.92        2951.25           1239          62.00       242.37
   93.95        2951.50           1242          67.00       264.17
   93.98        2951.75           1246          64.00       251.09
   94.01        2952.00           1249          65.00       255.45
   94.04        2952.25           1252          62.00       242.37
   94.07        2952.50           1256          60.00       233.65
   94.10        2952.75           1259          57.00       220.58
   94.13        2953.00           1262          63.00       246.73
   94.16        2953.25           1266          61.00       238.01
   94.20        2953.50           1269          60.00       233.65
   94.23        2953.75           1272          60.00       233.65
   94.26        2954.00           1276          57.00       220.58
   94.29        2954.25           1279          55.00       211.86
   94.32        2954.50           1282          53.00       203.14
   94.35        2954.75           1286          59.00       229.30
   94.38        2955.00           1289          59.00       229.30
   94.41        2955.25           1292          51.00       194.42
   94.44        2955.50           1296          58.00       224.94
   94.47        2955.75           1299          59.00       229.30
   94.50        2956.00           1302          57.00       220.58
   94.53        2956.25           1306          61.00       238.01
   94.57        2956.50           1309          63.00       246.73
   94.60        2956.75           1312          57.00       220.58
   94.63        2957.00           1316          54.00       207.50
   94.66        2957.25           1319          54.00       207.50
   94.69        2957.50           1322          60.00       233.65
   94.72        2957.75           1326          57.00       220.58
   94.75        2958.00           1329          55.00       211.86
   94.78        2958.25           1332          57.00       220.58
   94.81        2958.50           1336          60.00       233.65
   94.84        2958.75           1339          65.00       255.45
   94.87        2959.00           1342          58.00       224.94
   94.90        2959.25           1346          56.00       216.22
   94.94        2959.50           1349          57.00       220.58
   94.97        2959.75           1352          77.00       307.76
   95.00        2960.00           1356          99.00       403.67
   95.03        2960.25           1359         139.00       578.04
   95.06        2960.50           1362         168.00       704.46
   95.09        2960.75           1366         214.00       904.99
   95.12        2961.00           1369         245.00      1040.14
   95.15        2961.25           1372         285.00      1214.52
   95.18        2961.50           1376         400.00      1715.87
   95.22        2961.75           1379         588.00      2535.50
   95.25        2962.00           1382        1319.00      5722.87
   95.28        2962.25           1386        3037.00     13216.23
   95.31        2962.50           1389        4435.00     19316.34
   95.34        2962.75           1392        5828.00     25396.85
   95.37        2963.00           1396        7701.00     33576.09
   95.40        2963.25           1399        9062.00     39521.99
   95.43        2963.50           1402       10663.00     46519.10
   95.46        2963.75           1406       12594.00     54962.39
   95.49        2964.00           1409       14111.00     61598.47
   95.53        2964.25           1412       15771.00     68863.13
   95.56        2964.50           1416       17919.00     78268.13
   95.59        2964.75           1419       19385.00     84690.06
   95.62        2965.00           1422       20736.00     90610.41
   95.65        2965.25           1426       22660.00     99045.39
   95.68        2965.50           1429       24211.00    105848.20
   95.71        2965.75           1432       25717.00    112456.40
   95.74        2966.00           1436       27476.00    120177.90
   95.77        2966.25           1439       28688.00    125500.40
   95.81        2966.50           1442       30174.00    132028.50
   95.84        2966.75           1446       31498.00    137847.00
   95.87        2967.00           1449       31615.00    138361.30
   95.90        2967.25           1452       31580.00    138207.40
   95.93        2967.50           1456       31732.00    138875.60
   95.96        2967.75           1459       31533.00    138000.80
   95.99        2968.00           1462       31225.00    136647.10
   96.02        2968.25           1466       30061.00    131531.90
   96.05        2968.50           1469       28887.00    126374.50
   96.08        2968.75           1472       27577.00    120621.40
   96.12        2969.00           1476       25880.00    113171.70
   96.15        2969.25           1479       24526.00    107230.20
   96.18        2969.50           1482       23000.00    100536.40
   96.21        2969.75           1486       20975.00     91657.97
   96.24        2970.00           1489       19465.00     85040.56
   96.27        2970.25           1492       18047.00     78828.75
   96.30        2970.50           1496       16049.00     70080.05
   96.33        2970.75           1499       14746.00     64377.05
   96.36        2971.00           1502       13268.00     57910.46
   96.40        2971.25           1506       11316.00     49373.87
   96.43        2971.50           1509        9762.00     42580.95
   96.46        2971.75           1513        8018.00     34960.80
   96.49        2972.00           1516        6562.00     28601.69
   96.52        2972.25           1519        5212.00     22707.71
   96.55        2972.50           1523        3405.00     14821.76
   96.58        2972.75           1526        2045.00      8889.03
   96.61        2973.00           1529         874.00      3782.47
   96.64        2973.25           1533         382.00      1637.40
   96.67        2973.50           1536         317.00      1354.02
   96.70        2973.75           1539         276.00      1175.28
   96.74        2974.00           1543         217.00       918.07
   96.77        2974.25           1546         159.00       665.23
   96.80        2974.50           1549         124.00       512.65
   96.83        2974.75           1553          89.00       360.07
   96.86        2975.00           1556          74.00       294.68
   96.89        2975.25           1559          54.00       207.50
   96.92        2975.50           1563          62.00       242.37
   96.95        2975.75           1566          53.00       203.14
   96.98        2976.00           1569          53.00       203.14
   97.01        2976.25           1573          57.00       220.58
   97.05        2976.50           1576          64.00       251.09
   97.08        2976.75           1579          57.00       220.58
   97.11        2977.00           1583          63.00       246.73
   97.14        2977.25           1586          63.00       246.73
   97.17        2977.50           1590          57.00       220.58
   97.20        2977.75           1593          51.00       194.42
   97.23        2978.00           1596          55.00       211.86
   97.26        2978.25           1600          61.00       238.01
   97.29        2978.50           1603          54.00       207.50
   97.32        2978.75           1606          56.00       216.22
   97.35        2979.00           1610          57.00       220.58
   97.38        2979.25           1613          58.00       224.94
   97.41        2979.50           1616          63.00       246.73
   97.44        2979.75           1620          60.00       233.65
   97.47        2980.00           1623          47.00       176.98
   97.51        2980.25           1626          49.00       185.70
   97.54        2980.50           1630          57.00       220.58
   97.57        2980.75           1633          52.00       198.78
   97.60        2981.00           1637          54.00       207.50
   97.63        2981.25           1640          54.00       207.50
   97.66        2981.50           1643          58.00       224.94
   97.69        2981.75           1647          53.00       203.14
   97.72        2982.00           1650          48.00       181.34
   97.75        2982.25           1653          53.00       203.14
   97.78        2982.50           1657          55.00       211.86
   97.81        2982.75           1660          56.00       216.22
   97.85        2983.00           1663          51.00       194.42
   97.88        2983.25           1667          48.00       181.34
   97.91        2983.50           1670          52.00       198.78
   97.94        2983.75           1673          43.00       159.55
   97.97        2984.00           1677          49.00       185.70
HS scan finished at 01:38:11
end
************************************************************
  HS Scan of (1) Internal mercury lamp
************************************************************
Integration time is 0.2294 seconds per sample
dh150518Manchester 53.47 2.23 2.804185pr1000
************************************************************
Dead Time -------------------------  3E-08 
Number of Cycles Used -------------  4 
Starting Wavelength (Angstroms) ---  2950 
Final Wavelength (Angstoms) -------  2984 
Wavelength Increment (Angstroms) --  .25 
Filter Wheel #1 Position ---------- (1) Ground quartz diffuser (ND=2.32)
Filter Wheel #2 Position ---------- (1) Neutral Density 0.494



************************************************************
HS scan start time = 21:12:04
Dark Count =  5.7 


Time (GMT)  Wavelength (Ang)  Step Number  Raw Counts  Counts/Second

 1272.43        2950.00           1222          65.00       258.50
 1272.50        2950.25           1226          60.00       236.71
 1272.53        2950.50           1229          60.00       236.71
 1272.56        2950.75           1232          64.00       254.14
 1272.59        2951.00           1236          58.00       227.99
 1272.62        2951.25           1239          57.00       223.63
 1272.65        2951.50           1242          61.00       241.07
 1272.68        2951.75           1246          57.00       223.63
 1272.71        2952.00           1249          61.00       241.07
 1272.75        2952.25           1252          54.00       210.55
 1272.78        2952.50           1256          54.00       210.55
 1272.81        2952.75           1259          59.00       232.35
 1272.84        2953.00           1262          59.00       232.35
 1272.87        2953.25           1266          64.00       254.14
 1272.90        2953.50           1269          63.00       249.78
 1272.93        2953.75           1272          59.00       232.35
 1272.96        2954.00           1276          55.00       214.91
 1272.99        2954.25           1279          58.00       227.99
 1273.02        2954.50           1282          56.00       219.27
 1273.05        2954.75           1286          60.00       236.71
 1273.08        2955.00           1289          55.00       214.91
 1273.12        2955.25           1292          61.00       241.07
 1273.15        2955.50           1296          56.00       219.27
 1273.18        2955.75           1299          60.00       236.71
 1273.21        2956.00           1302          57.00       223.63
 1273.24        2956.25           1306          58.00       227.99
 1273.27        2956.50           1309          59.00       232.35
 1273.30        2956.75           1312          58.00       227.99
 1273.33        2957.00           1316          58.00       227.99
 1273.37        2957.25           1319          61.00       241.07
 1273.40        2957.50           1322          61.00       241.07
 1273.43        2957.75           1326          59.00       232.35
 1273.46        2958.00           1329          61.00       241.07
 1273.49        2958.25           1332          59.00       232.35
 1273.52        2958.50           1336          57.00       223.63
 1273.55        2958.75           1339          53.00       206.19
 1273.58        2959.00           1342          63.00       249.78
 1273.61        2959.25           1346          63.00       249.78
 1273.64        2959.50           1349          83.00       336.97
 1273.67        2959.75           1352          95.00       389.28
 1273.71        2960.00           1356         115.00       476.47
 1273.74        2960.25           1359         161.00       677.00
 1273.77        2960.50           1362         182.00       768.54
 1273.80        2960.75           1366         230.00       977.80
 1273.83        2961.00           1369         281.00      1200.13
 1273.86        2961.25           1372         320.00      1370.15
 1273.89        2961.50           1376         424.00      1823.55
 1273.92        2961.75           1379         639.00      2760.91
 1273.95        2962.00           1382        1432.00      6218.68
 1273.98        2962.25           1386        3147.00     13699.18
 1274.01        2962.50           1389        4551.00     19825.65
 1274.04        2962.75           1392        5959.00     25971.85
 1274.08        2963.00           1396        7712.00     33627.19
 1274.11        2963.25           1399        9158.00     39944.52
 1274.14        2963.50           1402       10823.00     47221.60
 1274.17        2963.75           1406       12771.00     55739.60
 1274.20        2964.00           1409       14249.00     62205.34
 1274.23        2964.25           1412       15837.00     69155.10
 1274.26        2964.50           1416       17819.00     77833.23
 1274.29        2964.75           1419       19466.00     85048.02
 1274.32        2965.00           1422       21050.00     91989.79
 1274.35        2965.25           1426       22936.00    100258.80
 1274.38        2965.50           1429       24376.00    106575.20
 1274.42        2965.75           1432       25782.00    112744.70
 1274.45        2966.00           1436       28054.00    122719.10
 1274.48        2966.25           1439       29221.00    127844.70
 1274.51        2966.50           1442       30476.00    133358.60
 1274.54        2966.75           1446       31630.00    138430.30
 1274.57        2967.00           1449       31642.00    138483.10
 1274.60        2967.25           1452       31959.00    139876.50
 1274.63        2967.50           1456       31790.00    139133.60
 1274.66        2967.75           1459       31776.00    139072.10
 1274.70        2968.00           1462       31638.00    138465.50
 1274.73        2968.25           1466       30535.00    133617.80
 1274.76        2968.50           1469       28996.00    126856.30
 1274.79        2968.75           1472       27589.00    120677.20
 1274.82        2969.00           1476       25857.00    113073.90
 1274.85        2969.25           1479       24460.00    106943.70
 1274.88        2969.50           1482       23073.00    100859.70
 1274.91        2969.75           1486       21067.00     92064.31
 1274.94        2970.00           1489       19638.00     85801.66
 1274.98        2970.25           1492       18216.00     79572.03
 1275.01        2970.50           1496       16268.00     71041.83
 1275.04        2970.75           1499       14784.00     64546.40
 1275.07        2971.00           1502       13393.00     58460.33
 1275.10        2971.25           1506       11393.00     49713.58
 1275.13        2971.50           1509        9778.00     42653.94
 1275.16        2971.75           1513        7816.00     34081.47
 1275.19        2972.00           1516        6427.00     28015.25
 1275.22        2972.25           1519        4934.00     21497.30
 1275.26        2972.50           1523        3122.00     13590.11
 1275.29        2972.75           1526        1940.00      8434.13
 1275.32        2973.00           1529         812.00      3515.19
 1275.35        2973.25           1533         373.00      1601.21
 1275.38        2973.50           1536         303.00      1296.04
 1275.41        2973.75           1539         238.00      1012.67
 1275.44        2974.00           1543         193.00       816.50
 1275.47        2974.25           1546         154.00       646.48
 1275.50        2974.50           1549         114.00       472.11
 1275.53        2974.75           1553          84.00       341.33
 1275.57        2975.00           1556          66.00       262.86
 1275.60        2975.25           1559          63.00       249.78
 1275.63        2975.50           1563          54.00       210.55
 1275.66        2975.75           1566          57.00       223.63
 1275.69        2976.00           1569          54.00       210.55
 1275.72        2976.25           1573          58.00       227.99
 1275.75        2976.50           1576          51.00       197.47
 1275.78        2976.75           1579          59.00       232.35
 1275.81        2977.00           1583          57.00       223.63
 1275.84        2977.25           1586          69.00       275.94
 1275.87        2977.50           1590          51.00       197.47
 1275.91        2977.75           1593          56.00       219.27
 1275.94        2978.00           1596          55.00       214.91
 1275.97        2978.25           1600          53.00       206.19
 1276.00        2978.50           1603          56.00       219.27
 1276.03        2978.75           1606          58.00       227.99
 1276.06        2979.00           1610          53.00       206.19
 1276.09        2979.25           1613          55.00       214.91
 1276.12        2979.50           1616          52.00       201.83
 1276.15        2979.75           1620          55.00       214.91
 1276.18        2980.00           1623          54.00       210.55
 1276.22        2980.25           1626          49.00       188.75
 1276.25        2980.50           1630          62.00       245.42
 1276.28        2980.75           1633          59.00       232.35
 1276.31        2981.00           1637          54.00       210.55
 1276.34        2981.25           1640          56.00       219.27
 1276.37        2981.50           1643          60.00       236.71
 1276.40        2981.75           1647          54.00       210.55
 1276.43        2982.00           1650          59.00       232.35
 1276.46        2982.25           1653          54.00       210.55
 1276.49        2982.50           1657          46.00       175.68
 1276.52        2982.75           1660          57.00       223.63
 1276.56        2983.00           1663          51.00       197.47
 1276.59        2983.25           1667          53.00       206.19
 1276.62        2983.50           1670          50.00       193.11
 1276.65        2983.75           1673          58.00       227.99
 1276.68        2984.00           1677          56.00       219.27
HS scan finished at 21:16:54
end
