************************************************************
  HS Scan of (1) Internal mercury lamp
************************************************************
Integration time is 0.2294 seconds per sample
dh170518Manchester 53.47 2.23 2.804185pr1000
************************************************************
Dead Time -------------------------  3E-08 
Number of Cycles Used -------------  4 
Starting Wavelength (Angstroms) ---  2950 
Final Wavelength (Angstoms) -------  2984 
Wavelength Increment (Angstroms) --  .25 
Filter Wheel #1 Position ---------- (1) Ground quartz diffuser (ND=2.32)
Filter Wheel #2 Position ---------- (1) Neutral Density 0.494



************************************************************
HS scan start time = 02:09:52
Dark Count =  6.3 


Time (GMT)  Wavelength (Ang)  Step Number  Raw Counts  Counts/Second

  130.23        2950.00           1222          56.00       216.65
  130.30        2950.25           1226          59.00       229.73
  130.33        2950.50           1229          51.00       194.86
  130.36        2950.75           1232          59.00       229.73
  130.39        2951.00           1236          54.00       207.94
  130.42        2951.25           1239          50.00       190.50
  130.45        2951.50           1242          50.00       190.50
  130.48        2951.75           1246          60.00       234.09
  130.51        2952.00           1249          59.00       229.73
  130.54        2952.25           1252          60.00       234.09
  130.57        2952.50           1256          57.00       221.01
  130.60        2952.75           1259          57.00       221.01
  130.64        2953.00           1262          52.00       199.22
  130.67        2953.25           1266          60.00       234.09
  130.70        2953.50           1269          56.00       216.65
  130.73        2953.75           1272          54.00       207.94
  130.76        2954.00           1276          57.00       221.01
  130.79        2954.25           1279          56.00       216.65
  130.82        2954.50           1282          62.00       242.81
  130.85        2954.75           1286          62.00       242.81
  130.88        2955.00           1289          53.00       203.58
  130.91        2955.25           1292          59.00       229.73
  130.94        2955.50           1296          55.00       212.29
  130.97        2955.75           1299          56.00       216.65
  131.01        2956.00           1302          55.00       212.29
  131.04        2956.25           1306          56.00       216.65
  131.07        2956.50           1309          57.00       221.01
  131.10        2956.75           1312          59.00       229.73
  131.13        2957.00           1316          58.00       225.37
  131.16        2957.25           1319          60.00       234.09
  131.19        2957.50           1322          57.00       221.01
  131.22        2957.75           1326          63.00       247.17
  131.25        2958.00           1329          55.00       212.29
  131.28        2958.25           1332          61.00       238.45
  131.31        2958.50           1336          50.00       190.50
  131.34        2958.75           1339          60.00       234.09
  131.37        2959.00           1342          61.00       238.45
  131.41        2959.25           1346          57.00       221.01
  131.44        2959.50           1349          66.00       260.25
  131.47        2959.75           1352          79.00       316.92
  131.50        2960.00           1356         105.00       430.26
  131.53        2960.25           1359         130.00       539.24
  131.56        2960.50           1362         171.00       717.98
  131.59        2960.75           1366         228.00       966.46
  131.62        2961.00           1369         251.00      1066.73
  131.65        2961.25           1372         313.00      1337.02
  131.68        2961.50           1376         372.00      1594.24
  131.71        2961.75           1379         641.00      2767.01
  131.74        2962.00           1382        1442.00      6259.68
  131.77        2962.25           1386        3249.00     14141.57
  131.81        2962.50           1389        4628.00     20159.09
  131.84        2962.75           1392        6093.00     26554.28
  131.87        2963.00           1396        7864.00     34288.52
  131.90        2963.25           1399        9318.00     40641.07
  131.93        2963.50           1402       10852.00     47345.76
  131.96        2963.75           1406       12763.00     55701.99
  131.99        2964.00           1409       14202.00     61997.07
  132.02        2964.25           1412       15884.00     69358.21
  132.06        2964.50           1416       17767.00     77602.86
  132.09        2964.75           1419       19241.00     84059.57
  132.12        2965.00           1422       20848.00     91101.74
  132.15        2965.25           1426       22795.00     99637.84
  132.18        2965.50           1429       24211.00    105848.70
  132.21        2965.75           1432       25686.00    112320.70
  132.24        2966.00           1436       27617.00    120797.50
  132.27        2966.25           1439       29011.00    126919.60
  132.30        2966.50           1442       30265.00    132428.70
  132.33        2966.75           1446       31400.00    137416.70
  132.37        2967.00           1449       31491.00    137816.70
  132.40        2967.25           1452       31663.00    138572.70
  132.43        2967.50           1456       31541.00    138036.40
  132.46        2967.75           1459       31622.00    138392.50
  132.49        2968.00           1462       31154.00    136335.50
  132.52        2968.25           1466       30123.00    131804.80
  132.55        2968.50           1469       28700.00    125553.50
  132.58        2968.75           1472       27294.00    119379.30
  132.61        2969.00           1476       25567.00    111798.50
  132.65        2969.25           1479       24125.00    105471.40
  132.68        2969.50           1482       22728.00     99344.02
  132.71        2969.75           1486       20819.00     90974.63
  132.74        2970.00           1489       19349.00     84532.75
  132.77        2970.25           1492       18048.00     78833.56
  132.80        2970.50           1496       15954.00     69664.63
  132.83        2970.75           1499       14510.00     63344.76
  132.86        2971.00           1502       13087.00     57119.16
  132.89        2971.25           1506       10948.00     47765.44
  132.93        2971.50           1509        9397.00     40986.29
  132.96        2971.75           1513        7463.00     32536.98
  132.99        2972.00           1516        6142.00     26768.22
  133.02        2972.25           1519        4744.00     20665.38
  133.05        2972.50           1523        2927.00     12736.78
  133.08        2972.75           1526        1621.00      7040.28
  133.11        2973.00           1529         713.00      3080.93
  133.14        2973.25           1533         380.00      1629.11
  133.17        2973.50           1536         283.00      1206.23
  133.20        2973.75           1539         258.00      1097.25
  133.24        2974.00           1543         209.00       883.63
  133.27        2974.25           1546         156.00       652.58
  133.30        2974.50           1549         128.00       530.52
  133.33        2974.75           1553          82.00       329.99
  133.36        2975.00           1556          70.00       277.68
  133.39        2975.25           1559          56.00       216.65
  133.42        2975.50           1563          54.00       207.94
  133.45        2975.75           1566          54.00       207.94
  133.48        2976.00           1569          56.00       216.65
  133.51        2976.25           1573          53.00       203.58
  133.55        2976.50           1576          50.00       190.50
  133.58        2976.75           1579          52.00       199.22
  133.61        2977.00           1583          56.00       216.65
  133.64        2977.25           1586          61.00       238.45
  133.67        2977.50           1590          53.00       203.58
  133.70        2977.75           1593          53.00       203.58
  133.73        2978.00           1596          59.00       229.73
  133.76        2978.25           1600          57.00       221.01
  133.79        2978.50           1603          52.00       199.22
  133.82        2978.75           1606          63.00       247.17
  133.86        2979.00           1610          53.00       203.58
  133.89        2979.25           1613          58.00       225.37
  133.92        2979.50           1616          54.00       207.94
  133.95        2979.75           1620          53.00       203.58
  133.98        2980.00           1623          55.00       212.29
  134.01        2980.25           1626          49.00       186.14
  134.04        2980.50           1630          58.00       225.37
  134.07        2980.75           1633          55.00       212.29
  134.10        2981.00           1637          55.00       212.29
  134.13        2981.25           1640          54.00       207.94
  134.16        2981.50           1643          73.00       290.76
  134.19        2981.75           1647          47.00       177.42
  134.22        2982.00           1650          52.00       199.22
  134.26        2982.25           1653          55.00       212.29
  134.29        2982.50           1657          52.00       199.22
  134.32        2982.75           1660          47.00       177.42
  134.35        2983.00           1663          54.00       207.94
  134.38        2983.25           1667          48.00       181.78
  134.41        2983.50           1670          49.00       186.14
  134.44        2983.75           1673          51.00       194.86
  134.47        2984.00           1677          54.00       207.94
HS scan finished at 02:14:41
end
************************************************************
  HS Scan of (1) Internal mercury lamp
************************************************************
Integration time is 0.2294 seconds per sample
dh170518Manchester 53.47 2.23 2.804185pr1000
************************************************************
Dead Time -------------------------  3E-08 
Number of Cycles Used -------------  4 
Starting Wavelength (Angstroms) ---  2950 
Final Wavelength (Angstoms) -------  2984 
Wavelength Increment (Angstroms) --  .25 
Filter Wheel #1 Position ---------- (1) Ground quartz diffuser (ND=2.32)
Filter Wheel #2 Position ---------- (1) Neutral Density 0.494



************************************************************
HS scan start time = 21:12:05
Dark Count =  5.4 


Time (GMT)  Wavelength (Ang)  Step Number  Raw Counts  Counts/Second

 1272.45        2950.00           1222          54.00       211.86
 1272.51        2950.25           1226          58.00       229.30
 1272.54        2950.50           1229          53.00       207.50
 1272.57        2950.75           1232          62.00       246.73
 1272.60        2951.00           1236          57.00       224.94
 1272.63        2951.25           1239          61.00       242.37
 1272.67        2951.50           1242          55.00       216.22
 1272.70        2951.75           1246          61.00       242.37
 1272.73        2952.00           1249          62.00       246.73
 1272.76        2952.25           1252          59.00       233.65
 1272.79        2952.50           1256          59.00       233.65
 1272.82        2952.75           1259          56.00       220.58
 1272.85        2953.00           1262          60.00       238.01
 1272.88        2953.25           1266          52.00       203.14
 1272.91        2953.50           1269          53.00       207.50
 1272.94        2953.75           1272          55.00       216.22
 1272.97        2954.00           1276          55.00       216.22
 1273.00        2954.25           1279          52.00       203.14
 1273.03        2954.50           1282          59.00       233.65
 1273.06        2954.75           1286          61.00       242.37
 1273.10        2955.00           1289          61.00       242.37
 1273.13        2955.25           1292          69.00       277.25
 1273.16        2955.50           1296          56.00       220.58
 1273.19        2955.75           1299          55.00       216.22
 1273.22        2956.00           1302          65.00       259.81
 1273.25        2956.25           1306          57.00       224.94
 1273.28        2956.50           1309          58.00       229.30
 1273.31        2956.75           1312          62.00       246.73
 1273.34        2957.00           1316          57.00       224.94
 1273.37        2957.25           1319          61.00       242.37
 1273.40        2957.50           1322          62.00       246.73
 1273.43        2957.75           1326          53.00       207.50
 1273.46        2958.00           1329          52.00       203.14
 1273.50        2958.25           1332          50.00       194.42
 1273.53        2958.50           1336          58.00       229.30
 1273.56        2958.75           1339          54.00       211.86
 1273.59        2959.00           1342          55.00       216.22
 1273.62        2959.25           1346          52.00       203.14
 1273.65        2959.50           1349          61.00       242.37
 1273.68        2959.75           1352          66.00       264.17
 1273.71        2960.00           1356          97.00       399.31
 1273.74        2960.25           1359         126.00       525.73
 1273.77        2960.50           1362         151.00       634.71
 1273.80        2960.75           1366         227.00       966.03
 1273.84        2961.00           1369         244.00      1040.14
 1273.87        2961.25           1372         287.00      1227.60
 1273.90        2961.50           1376         372.00      1598.16
 1273.93        2961.75           1379         555.00      2395.99
 1273.96        2962.00           1382        1234.00      5356.57
 1273.99        2962.25           1386        2952.00     12849.77
 1274.02        2962.50           1389        4297.00     18718.44
 1274.05        2962.75           1392        5684.00     24772.55
 1274.08        2963.00           1396        7465.00     32549.64
 1274.12        2963.25           1399        8901.00     38822.87
 1274.15        2963.50           1402       10330.00     45067.87
 1274.18        2963.75           1406       12305.00     53702.85
 1274.21        2964.00           1409       13807.00     60272.80
 1274.24        2964.25           1412       15194.00     66342.03
 1274.27        2964.50           1416       17302.00     75570.43
 1274.30        2964.75           1419       18953.00     82801.77
 1274.33        2965.00           1422       20311.00     88752.12
 1274.36        2965.25           1426       22226.00     97146.71
 1274.39        2965.50           1429       23586.00    103111.00
 1274.43        2965.75           1432       25023.00    109415.20
 1274.46        2966.00           1436       27146.00    118733.40
 1274.49        2966.25           1439       28513.00    124736.20
 1274.52        2966.50           1442       29613.00    129568.10
 1274.55        2966.75           1446       31067.00    135957.10
 1274.58        2967.00           1449       31315.00    137047.10
 1274.61        2967.25           1452       31423.00    137521.70
 1274.64        2967.50           1456       31454.00    137658.00
 1274.67        2967.75           1459       31306.00    137007.50
 1274.71        2968.00           1462       31259.00    136800.90
 1274.74        2968.25           1466       30345.00    132784.20
 1274.77        2968.50           1469       29022.00    126971.80
 1274.80        2968.75           1472       27721.00    121258.10
 1274.83        2969.00           1476       26018.00    113781.80
 1274.86        2969.25           1479       24481.00    107037.10
 1274.89        2969.50           1482       22965.00    100387.30
 1274.92        2969.75           1486       21136.00     92368.06
 1274.95        2970.00           1489       19567.00     85491.86
 1274.98        2970.25           1492       18247.00     79709.12
 1275.01        2970.50           1496       16277.00     71082.55
 1275.04        2970.75           1499       14734.00     64328.92
 1275.08        2971.00           1502       13435.00     58645.38
 1275.11        2971.25           1506       11448.00     49955.37
 1275.14        2971.50           1509        9722.00     42410.51
 1275.17        2971.75           1513        7918.00     34528.34
 1275.20        2972.00           1516        6571.00     28645.36
 1275.23        2972.25           1519        5162.00     22493.82
 1275.26        2972.50           1523        3342.00     14551.25
 1275.29        2972.75           1526        2076.00      9028.60
 1275.32        2973.00           1529         981.00      4253.38
 1275.35        2973.25           1533         413.00      1776.90
 1275.39        2973.50           1536         279.00      1192.72
 1275.42        2973.75           1539         253.00      1079.37
 1275.45        2974.00           1543         221.00       939.87
 1275.48        2974.25           1546         153.00       643.43
 1275.51        2974.50           1549         104.00       429.82
 1275.54        2974.75           1553          92.00       377.51
 1275.57        2975.00           1556          72.00       290.33
 1275.60        2975.25           1559          66.00       264.17
 1275.63        2975.50           1563          49.00       190.06
 1275.66        2975.75           1566          55.00       216.22
 1275.69        2976.00           1569          67.00       268.53
 1275.73        2976.25           1573          56.00       220.58
 1275.76        2976.50           1576          55.00       216.22
 1275.79        2976.75           1579          59.00       233.65
 1275.82        2977.00           1583          65.00       259.81
 1275.85        2977.25           1586          50.00       194.42
 1275.88        2977.50           1590          51.00       198.78
 1275.91        2977.75           1593          56.00       220.58
 1275.94        2978.00           1596          60.00       238.01
 1275.97        2978.25           1600          53.00       207.50
 1276.00        2978.50           1603          56.00       220.58
 1276.03        2978.75           1606          52.00       203.14
 1276.07        2979.00           1610          58.00       229.30
 1276.10        2979.25           1613          60.00       238.01
 1276.13        2979.50           1616          54.00       211.86
 1276.16        2979.75           1620          53.00       207.50
 1276.19        2980.00           1623          46.00       176.98
 1276.22        2980.25           1626          57.00       224.94
 1276.25        2980.50           1630          55.00       216.22
 1276.28        2980.75           1633          50.00       194.42
 1276.31        2981.00           1637          54.00       211.86
 1276.34        2981.25           1640          47.00       181.34
 1276.37        2981.50           1643          57.00       224.94
 1276.41        2981.75           1647          52.00       203.14
 1276.44        2982.00           1650          58.00       229.30
 1276.47        2982.25           1653          46.00       176.98
 1276.50        2982.50           1657          53.00       207.50
 1276.53        2982.75           1660          52.00       203.14
 1276.56        2983.00           1663          50.00       194.42
 1276.59        2983.25           1667          49.00       190.06
 1276.62        2983.50           1670          53.00       207.50
 1276.65        2983.75           1673          53.00       207.50
 1276.68        2984.00           1677          54.00       211.86
HS scan finished at 21:16:54
end
