************************************************************
  HS Scan of (1) Internal mercury lamp
************************************************************
Integration time is 0.2294 seconds per sample
dh180517Manchester 53.47 2.23 2.804185pr1000
************************************************************
Dead Time -------------------------  3E-08 
Number of Cycles Used -------------  4 
Starting Wavelength (Angstroms) ---  2950 
Final Wavelength (Angstoms) -------  2984 
Wavelength Increment (Angstroms) --  .25 
Filter Wheel #1 Position ---------- (1) Ground quartz diffuser (ND=2.32)
Filter Wheel #2 Position ---------- (1) Neutral Density 0.494



************************************************************
HS scan start time = 01:28:37
Dark Count =  6.7 


Time (GMT)  Wavelength (Ang)  Step Number  Raw Counts  Counts/Second

   88.99        2950.00           1222          46.00       171.32
   89.06        2950.25           1226          51.00       193.11
   89.09        2950.50           1229          50.00       188.75
   89.12        2950.75           1232          52.00       197.47
   89.15        2951.00           1236          44.00       162.60
   89.18        2951.25           1239          43.00       158.24
   89.21        2951.50           1242          46.00       171.32
   89.24        2951.75           1246          48.00       180.04
   89.27        2952.00           1249          44.00       162.60
   89.30        2952.25           1252          48.00       180.04
   89.33        2952.50           1256          57.00       219.27
   89.36        2952.75           1259          47.00       175.68
   89.39        2953.00           1262          45.00       166.96
   89.42        2953.25           1266          43.00       158.24
   89.46        2953.50           1269          45.00       166.96
   89.49        2953.75           1272          50.00       188.75
   89.52        2954.00           1276          47.00       175.68
   89.55        2954.25           1279          41.00       149.52
   89.58        2954.50           1282          50.00       188.75
   89.61        2954.75           1286          49.00       184.40
   89.64        2955.00           1289          43.00       158.24
   89.67        2955.25           1292          58.00       223.63
   89.70        2955.50           1296          43.00       158.24
   89.73        2955.75           1299          46.00       171.32
   89.76        2956.00           1302          47.00       175.68
   89.79        2956.25           1306          43.00       158.24
   89.82        2956.50           1309          52.00       197.47
   89.86        2956.75           1312          49.00       184.40
   89.89        2957.00           1316          48.00       180.04
   89.92        2957.25           1319          46.00       171.32
   89.95        2957.50           1322          48.00       180.04
   89.98        2957.75           1326          51.00       193.11
   90.01        2958.00           1329          49.00       184.40
   90.04        2958.25           1332          44.00       162.60
   90.07        2958.50           1336          44.00       162.60
   90.10        2958.75           1339          48.00       180.04
   90.13        2959.00           1342          47.00       175.68
   90.17        2959.25           1346          53.00       201.83
   90.20        2959.50           1349          57.00       219.27
   90.23        2959.75           1352          75.00       297.74
   90.26        2960.00           1356         110.00       450.31
   90.29        2960.25           1359         137.00       568.01
   90.32        2960.50           1362         179.00       751.11
   90.35        2960.75           1366         216.00       912.41
   90.38        2961.00           1369         289.00      1230.65
   90.41        2961.25           1372         315.00      1343.99
   90.44        2961.50           1376         392.00      1679.68
   90.47        2961.75           1379         668.00      2882.99
   90.50        2962.00           1382        1332.00      5778.25
   90.54        2962.25           1386        3112.00     13542.12
   90.57        2962.50           1389        4790.00     20864.41
   90.60        2962.75           1392        6377.00     27792.56
   90.63        2963.00           1396        8344.00     36383.63
   90.66        2963.25           1399       10074.00     43943.24
   90.69        2963.50           1402       11695.00     51029.68
   90.72        2963.75           1406       14053.00     61343.39
   90.75        2964.00           1409       15867.00     69282.04
   90.78        2964.25           1412       17632.00     77009.90
   90.82        2964.50           1416       20116.00     87891.87
   90.85        2964.75           1419       21776.00     95168.02
   90.88        2965.00           1422       23433.00    102434.20
   90.91        2965.25           1426       25843.00    113008.00
   90.94        2965.50           1429       27757.00    121410.50
   90.97        2965.75           1432       29306.00    128213.70
   91.00        2966.00           1436       31562.00    138127.00
   91.03        2966.25           1439       33152.00    145117.30
   91.06        2966.50           1442       34655.00    151727.90
   91.09        2966.75           1446       36357.00    159216.90
   91.12        2967.00           1449       36595.00    160264.30
   91.16        2967.25           1452       36691.00    160686.90
   91.19        2967.50           1456       36805.00    161188.70
   91.22        2967.75           1459       36776.00    161061.00
   91.25        2968.00           1462       36619.00    160370.00
   91.28        2968.25           1466       35563.00    155722.80
   91.31        2968.50           1469       34212.00    149779.20
   91.34        2968.75           1472       32717.00    143204.60
   91.37        2969.00           1476       30546.00    133661.80
   91.40        2969.25           1479       28978.00    126772.90
   91.43        2969.50           1482       27374.00    119728.80
   91.47        2969.75           1486       25229.00    110313.50
   91.50        2970.00           1489       23412.00    102342.10
   91.53        2970.25           1492       21881.00     95628.35
   91.56        2970.50           1496       19601.00     85635.15
   91.59        2970.75           1499       18032.00     78761.74
   91.62        2971.00           1502       16106.00     70328.26
   91.65        2971.25           1506       13842.00     60420.23
   91.68        2971.50           1509       12178.00     53141.76
   91.72        2971.75           1513        9955.00     43423.14
   91.75        2972.00           1516        8344.00     36383.63
   91.78        2972.25           1519        6543.00     28517.42
   91.81        2972.50           1523        4544.00     19790.74
   91.84        2972.75           1526        3062.00     13323.98
   91.87        2973.00           1529        1506.00      6537.03
   91.90        2973.25           1533         557.00      2399.04
   91.93        2973.50           1536         372.00      1592.49
   91.96        2973.75           1539         305.00      1300.40
   91.99        2974.00           1543         249.00      1056.27
   92.02        2974.25           1546         191.00       803.42
   92.05        2974.50           1549         134.00       554.94
   92.09        2974.75           1553          90.00       363.13
   92.12        2975.00           1556          63.00       245.42
   92.15        2975.25           1559          48.00       180.04
   92.18        2975.50           1563          54.00       206.19
   92.21        2975.75           1566          52.00       197.47
   92.24        2976.00           1569          48.00       180.04
   92.27        2976.25           1573          51.00       193.11
   92.30        2976.50           1576          41.00       149.52
   92.33        2976.75           1579          52.00       197.47
   92.36        2977.00           1583          49.00       184.40
   92.40        2977.25           1586          53.00       201.83
   92.43        2977.50           1590          47.00       175.68
   92.46        2977.75           1593          45.00       166.96
   92.49        2978.00           1596          45.00       166.96
   92.52        2978.25           1600          46.00       171.32
   92.55        2978.50           1603          46.00       171.32
   92.58        2978.75           1606          46.00       171.32
   92.61        2979.00           1610          38.00       136.44
   92.64        2979.25           1613          46.00       171.32
   92.67        2979.50           1616          52.00       197.47
   92.71        2979.75           1620          51.00       193.11
   92.74        2980.00           1623          43.00       158.24
   92.77        2980.25           1626          51.00       193.11
   92.80        2980.50           1630          49.00       184.40
   92.83        2980.75           1633          45.00       166.96
   92.86        2981.00           1637          50.00       188.75
   92.89        2981.25           1640          42.00       153.88
   92.92        2981.50           1643          47.00       175.68
   92.95        2981.75           1647          44.00       162.60
   92.98        2982.00           1650          37.00       132.08
   93.01        2982.25           1653          44.00       162.60
   93.05        2982.50           1657          48.00       180.04
   93.08        2982.75           1660          47.00       175.68
   93.11        2983.00           1663          46.00       171.32
   93.14        2983.25           1667          43.00       158.24
   93.17        2983.50           1670          47.00       175.68
   93.20        2983.75           1673          42.00       153.88
   93.23        2984.00           1677          42.00       153.88
HS scan finished at 01:33:27
end
************************************************************
  HS Scan of (1) Internal mercury lamp
************************************************************
Integration time is 0.2294 seconds per sample
dh180517Manchester 53.47 2.23 2.804185pr1000
************************************************************
Dead Time -------------------------  3E-08 
Number of Cycles Used -------------  4 
Starting Wavelength (Angstroms) ---  2950 
Final Wavelength (Angstoms) -------  2984 
Wavelength Increment (Angstroms) --  .25 
Filter Wheel #1 Position ---------- (1) Ground quartz diffuser (ND=2.32)
Filter Wheel #2 Position ---------- (1) Neutral Density 0.494



************************************************************
HS scan start time = 20:50:57
Dark Count =  7 


Time (GMT)  Wavelength (Ang)  Step Number  Raw Counts  Counts/Second

 1251.32        2950.00           1222          48.00       178.73
 1251.38        2950.25           1226          42.00       152.57
 1251.41        2950.50           1229          45.00       165.65
 1251.44        2950.75           1232          47.00       174.37
 1251.48        2951.00           1236          53.00       200.52
 1251.51        2951.25           1239          47.00       174.37
 1251.54        2951.50           1242          48.00       178.73
 1251.57        2951.75           1246          47.00       174.37
 1251.60        2952.00           1249          50.00       187.45
 1251.63        2952.25           1252          48.00       178.73
 1251.66        2952.50           1256          42.00       152.57
 1251.69        2952.75           1259          41.00       148.21
 1251.72        2953.00           1262          51.00       191.81
 1251.75        2953.25           1266          43.00       156.93
 1251.78        2953.50           1269          45.00       165.65
 1251.81        2953.75           1272          49.00       183.09
 1251.84        2954.00           1276          40.00       143.85
 1251.87        2954.25           1279          44.00       161.29
 1251.91        2954.50           1282          46.00       170.01
 1251.94        2954.75           1286          48.00       178.73
 1251.97        2955.00           1289          44.00       161.29
 1252.00        2955.25           1292          44.00       161.29
 1252.03        2955.50           1296          55.00       209.24
 1252.06        2955.75           1299          42.00       152.57
 1252.09        2956.00           1302          42.00       152.57
 1252.12        2956.25           1306          48.00       178.73
 1252.15        2956.50           1309          51.00       191.81
 1252.18        2956.75           1312          39.00       139.49
 1252.21        2957.00           1316          46.00       170.01
 1252.24        2957.25           1319          49.00       183.09
 1252.28        2957.50           1322          51.00       191.81
 1252.31        2957.75           1326          47.00       174.37
 1252.34        2958.00           1329          43.00       156.93
 1252.37        2958.25           1332          52.00       196.17
 1252.40        2958.50           1336          47.00       174.37
 1252.43        2958.75           1339          48.00       178.73
 1252.46        2959.00           1342          42.00       152.57
 1252.49        2959.25           1346          47.00       174.37
 1252.52        2959.50           1349          65.00       252.84
 1252.55        2959.75           1352          79.00       313.87
 1252.58        2960.00           1356         115.00       470.80
 1252.61        2960.25           1359         151.00       627.74
 1252.64        2960.50           1362         194.00       815.19
 1252.67        2960.75           1366         257.00      1089.84
 1252.70        2961.00           1369         310.00      1320.89
 1252.73        2961.25           1372         326.00      1390.64
 1252.76        2961.50           1376         406.00      1739.41
 1252.80        2961.75           1379         518.00      2227.70
 1252.83        2962.00           1382         918.00      3971.70
 1252.86        2962.25           1386        2503.00     10884.11
 1252.89        2962.50           1389        4156.00     18096.13
 1252.92        2962.75           1392        5790.00     25228.33
 1252.95        2963.00           1396        7898.00     34433.98
 1252.98        2963.25           1399        9565.00     41717.39
 1253.01        2963.50           1402       11274.00     49187.62
 1253.04        2963.75           1406       13497.00     58909.60
 1253.07        2964.00           1409       15251.00     66584.49
 1253.10        2964.25           1412       16832.00     73505.43
 1253.13        2964.50           1416       19365.00     84599.79
 1253.16        2964.75           1419       21028.00     91887.66
 1253.20        2965.00           1422       22741.00     99397.97
 1253.23        2965.25           1426       25211.00    110233.20
 1253.26        2965.50           1429       26769.00    117071.30
 1253.29        2965.75           1432       28642.00    125295.70
 1253.32        2966.00           1436       30750.00    134556.90
 1253.35        2966.25           1439       32348.00    141580.90
 1253.38        2966.50           1442       34026.00    148959.80
 1253.41        2966.75           1446       35736.00    156482.70
 1253.44        2967.00           1449       36231.00    158661.00
 1253.48        2967.25           1452       36496.00    159827.30
 1253.51        2967.50           1456       36492.00    159809.70
 1253.54        2967.75           1459       36455.00    159646.80
 1253.57        2968.00           1462       36398.00    159396.00
 1253.60        2968.25           1466       35580.00    155796.20
 1253.63        2968.50           1469       34227.00    149843.80
 1253.66        2968.75           1472       32754.00    143366.00
 1253.69        2969.00           1476       30389.00    132970.50
 1253.72        2969.25           1479       28846.00    126191.70
 1253.75        2969.50           1482       27142.00    118708.80
 1253.78        2969.75           1486       24854.00    108666.70
 1253.82        2970.00           1489       23298.00    101840.80
 1253.85        2970.25           1492       21759.00     95092.16
 1253.88        2970.50           1496       19651.00     85852.92
 1253.91        2970.75           1499       18095.00     79036.35
 1253.94        2971.00           1502       16303.00     71189.38
 1253.97        2971.25           1506       13948.00     60882.68
 1254.00        2971.50           1509       12031.00     52497.62
 1254.03        2971.75           1513        9953.00     43413.09
 1254.06        2972.00           1516        8235.00     35906.14
 1254.09        2972.25           1519        6514.00     28389.47
 1254.13        2972.50           1523        4500.00     19597.40
 1254.16        2972.75           1526        3017.00     13126.36
 1254.19        2973.00           1529        1646.00      7146.26
 1254.22        2973.25           1533         602.00      2593.92
 1254.25        2973.50           1536         355.00      1517.07
 1254.28        2973.75           1539         307.00      1307.81
 1254.31        2974.00           1543         238.00      1007.01
 1254.34        2974.25           1546         190.00       797.75
 1254.37        2974.50           1549         144.00       597.22
 1254.40        2974.75           1553          92.00       370.54
 1254.43        2975.00           1556          65.00       252.84
 1254.46        2975.25           1559          55.00       209.24
 1254.50        2975.50           1563          46.00       170.01
 1254.53        2975.75           1566          50.00       187.45
 1254.56        2976.00           1569          50.00       187.45
 1254.59        2976.25           1573          44.00       161.29
 1254.62        2976.50           1576          45.00       165.65
 1254.65        2976.75           1579          40.00       143.85
 1254.68        2977.00           1583          51.00       191.81
 1254.71        2977.25           1586          44.00       161.29
 1254.74        2977.50           1590          44.00       161.29
 1254.77        2977.75           1593          44.00       161.29
 1254.81        2978.00           1596          47.00       174.37
 1254.84        2978.25           1600          48.00       178.73
 1254.87        2978.50           1603          45.00       165.65
 1254.90        2978.75           1606          46.00       170.01
 1254.93        2979.00           1610          44.00       161.29
 1254.96        2979.25           1613          47.00       174.37
 1254.99        2979.50           1616          47.00       174.37
 1255.02        2979.75           1620          41.00       148.21
 1255.05        2980.00           1623          42.00       152.57
 1255.08        2980.25           1626          47.00       174.37
 1255.11        2980.50           1630          45.00       165.65
 1255.14        2980.75           1633          45.00       165.65
 1255.17        2981.00           1637          42.00       152.57
 1255.20        2981.25           1640          48.00       178.73
 1255.24        2981.50           1643          49.00       183.09
 1255.27        2981.75           1647          41.00       148.21
 1255.30        2982.00           1650          52.00       196.17
 1255.33        2982.25           1653          51.00       191.81
 1255.36        2982.50           1657          40.00       143.85
 1255.39        2982.75           1660          37.00       130.78
 1255.42        2983.00           1663          35.00       122.06
 1255.45        2983.25           1667          42.00       152.57
 1255.48        2983.50           1670          42.00       152.57
 1255.51        2983.75           1673          42.00       152.57
 1255.54        2984.00           1677          40.00       143.85
HS scan finished at 20:55:46
end
