************************************************************
  HS Scan of (1) Internal mercury lamp
************************************************************
Integration time is 0.2294 seconds per sample
dh120518Manchester 53.47 2.23 2.804185pr1000
************************************************************
Dead Time -------------------------  3E-08 
Number of Cycles Used -------------  4 
Starting Wavelength (Angstroms) ---  2950 
Final Wavelength (Angstoms) -------  2984 
Wavelength Increment (Angstroms) --  .25 
Filter Wheel #1 Position ---------- (1) Ground quartz diffuser (ND=2.32)
Filter Wheel #2 Position ---------- (1) Neutral Density 0.494



************************************************************
HS scan start time = 01:19:34
Dark Count =  6.9 


Time (GMT)  Wavelength (Ang)  Step Number  Raw Counts  Counts/Second

   79.94        2950.00           1222          55.00       209.68
   80.00        2950.25           1226          62.00       240.19
   80.03        2950.50           1229          63.00       244.55
   80.07        2950.75           1232          59.00       227.12
   80.10        2951.00           1236          63.00       244.55
   80.13        2951.25           1239          54.00       205.32
   80.16        2951.50           1242          56.00       214.04
   80.19        2951.75           1246          55.00       209.68
   80.22        2952.00           1249          61.00       235.83
   80.25        2952.25           1252          54.00       205.32
   80.28        2952.50           1256          58.00       222.76
   80.31        2952.75           1259          60.00       231.48
   80.34        2953.00           1262          55.00       209.68
   80.37        2953.25           1266          63.00       244.55
   80.40        2953.50           1269          55.00       209.68
   80.43        2953.75           1272          58.00       222.76
   80.46        2954.00           1276          63.00       244.55
   80.50        2954.25           1279          59.00       227.12
   80.53        2954.50           1282          56.00       214.04
   80.56        2954.75           1286          50.00       187.88
   80.59        2955.00           1289          61.00       235.83
   80.62        2955.25           1292          60.00       231.48
   80.65        2955.50           1296          57.00       218.40
   80.68        2955.75           1299          68.00       266.35
   80.71        2956.00           1302          63.00       244.55
   80.74        2956.25           1306          64.00       248.91
   80.77        2956.50           1309          60.00       231.48
   80.81        2956.75           1312          54.00       205.32
   80.84        2957.00           1316          62.00       240.19
   80.87        2957.25           1319          60.00       231.48
   80.90        2957.50           1322          55.00       209.68
   80.93        2957.75           1326          61.00       235.83
   80.96        2958.00           1329          57.00       218.40
   80.99        2958.25           1332          57.00       218.40
   81.02        2958.50           1336          61.00       235.83
   81.05        2958.75           1339          58.00       222.76
   81.08        2959.00           1342          60.00       231.48
   81.11        2959.25           1346          62.00       240.19
   81.15        2959.50           1349          54.00       205.32
   81.18        2959.75           1352          69.00       270.71
   81.21        2960.00           1356         105.00       427.64
   81.24        2960.25           1359         135.00       558.42
   81.27        2960.50           1362         170.00       711.00
   81.30        2960.75           1366         221.00       933.33
   81.33        2961.00           1369         249.00      1055.40
   81.36        2961.25           1372         282.00      1199.26
   81.39        2961.50           1376         370.00      1582.90
   81.42        2961.75           1379         528.00      2271.73
   81.45        2962.00           1382        1021.00      4421.25
   81.49        2962.25           1386        2571.00     11181.17
   81.52        2962.50           1389        3949.00     17193.26
   81.55        2962.75           1392        5314.00     23150.77
   81.58        2963.00           1396        7179.00     31293.97
   81.61        2963.25           1399        8696.00     37920.62
   81.64        2963.50           1402       10141.00     44235.21
   81.67        2963.75           1406       12212.00     53289.57
   81.70        2964.00           1409       13709.00     59837.49
   81.73        2964.25           1412       15175.00     66252.31
   81.77        2964.50           1416       17227.00     75235.44
   81.80        2964.75           1419       18599.00     81244.43
   81.83        2965.00           1422       20157.00     88070.66
   81.86        2965.25           1426       21995.00     96127.29
   81.89        2965.50           1429       23414.00    102350.00
   81.92        2965.75           1432       24947.00    109075.20
   81.95        2966.00           1436       26674.00    116654.70
   81.98        2966.25           1439       27990.00    122432.70
   82.01        2966.50           1442       29713.00    130000.80
   82.04        2966.75           1446       30934.00    135365.90
   82.07        2967.00           1449       31699.00    138728.30
   82.10        2967.25           1452       31806.00    139198.70
   82.14        2967.50           1456       31667.00    138587.60
   82.17        2967.75           1459       31739.00    138904.10
   82.20        2968.00           1462       31645.00    138490.90
   82.23        2968.25           1466       30633.00    134043.20
   82.26        2968.50           1469       29558.00    129319.80
   82.29        2968.75           1472       28159.00    123174.90
   82.32        2969.00           1476       26273.00    114894.50
   82.35        2969.25           1479       24987.00    109250.70
   82.38        2969.50           1482       23449.00    102503.50
   82.42        2969.75           1486       21691.00     94794.49
   82.45        2970.00           1489       20191.00     88219.66
   82.48        2970.25           1492       18689.00     81638.68
   82.51        2970.50           1496       16771.00     73238.77
   82.54        2970.75           1499       15520.00     67762.28
   82.57        2971.00           1502       13905.00     60694.98
   82.60        2971.25           1506       11901.00     51929.58
   82.63        2971.50           1509       10540.00     45979.25
   82.66        2971.75           1513        8792.00     38340.06
   82.70        2972.00           1516        7400.00     32259.19
   82.73        2972.25           1519        5988.00     26093.22
   82.76        2972.50           1523        4176.00     18183.85
   82.79        2972.75           1526        2629.00     11434.18
   82.82        2973.00           1529        1368.00      5934.36
   82.85        2973.25           1533         475.00      2040.67
   82.88        2973.50           1536         339.00      1447.75
   82.91        2973.75           1539         275.00      1168.74
   82.94        2974.00           1543         240.00      1016.16
   82.97        2974.25           1546         172.00       719.72
   83.01        2974.50           1549         153.00       636.89
   83.04        2974.75           1553          84.00       336.10
   83.07        2975.00           1556          68.00       266.35
   83.10        2975.25           1559          66.00       257.63
   83.13        2975.50           1563          60.00       231.48
   83.16        2975.75           1566          48.00       179.16
   83.19        2976.00           1569          53.00       200.96
   83.22        2976.25           1573          49.00       183.52
   83.25        2976.50           1576          60.00       231.48
   83.28        2976.75           1579          61.00       235.83
   83.31        2977.00           1583          53.00       200.96
   83.34        2977.25           1586          55.00       209.68
   83.37        2977.50           1590          51.00       192.24
   83.41        2977.75           1593          49.00       183.52
   83.44        2978.00           1596          53.00       200.96
   83.47        2978.25           1600          57.00       218.40
   83.50        2978.50           1603          55.00       209.68
   83.53        2978.75           1606          46.00       170.45
   83.56        2979.00           1610          51.00       192.24
   83.59        2979.25           1613          52.00       196.60
   83.62        2979.50           1616          66.00       257.63
   83.65        2979.75           1620          50.00       187.88
   83.68        2980.00           1623          47.00       174.80
   83.71        2980.25           1626          65.00       253.27
   83.75        2980.50           1630          47.00       174.80
   83.78        2980.75           1633          53.00       200.96
   83.81        2981.00           1637          56.00       214.04
   83.84        2981.25           1640          45.00       166.09
   83.87        2981.50           1643          52.00       196.60
   83.90        2981.75           1647          60.00       231.48
   83.93        2982.00           1650          50.00       187.88
   83.96        2982.25           1653          54.00       205.32
   83.99        2982.50           1657          42.00       153.01
   84.02        2982.75           1660          53.00       200.96
   84.05        2983.00           1663          54.00       205.32
   84.08        2983.25           1667          56.00       214.04
   84.11        2983.50           1670          53.00       200.96
   84.15        2983.75           1673          48.00       179.16
   84.18        2984.00           1677          52.00       196.60
HS scan finished at 01:24:24
end
************************************************************
  HS Scan of (1) Internal mercury lamp
************************************************************
Integration time is 0.2294 seconds per sample
dh120518Manchester 53.47 2.23 2.804185pr1000
************************************************************
Dead Time -------------------------  3E-08 
Number of Cycles Used -------------  4 
Starting Wavelength (Angstroms) ---  2950 
Final Wavelength (Angstoms) -------  2984 
Wavelength Increment (Angstroms) --  .25 
Filter Wheel #1 Position ---------- (1) Ground quartz diffuser (ND=2.32)
Filter Wheel #2 Position ---------- (1) Neutral Density 0.494



************************************************************
HS scan start time = 21:11:59
Dark Count =  5.5 


Time (GMT)  Wavelength (Ang)  Step Number  Raw Counts  Counts/Second

 1272.35        2950.00           1222          64.00       255.02
 1272.42        2950.25           1226          58.00       228.86
 1272.45        2950.50           1229          59.00       233.22
 1272.48        2950.75           1232          54.00       211.42
 1272.51        2951.00           1236          64.00       255.02
 1272.54        2951.25           1239          56.00       220.14
 1272.57        2951.50           1242          55.00       215.78
 1272.60        2951.75           1246          58.00       228.86
 1272.63        2952.00           1249          52.00       202.70
 1272.66        2952.25           1252          61.00       241.94
 1272.69        2952.50           1256          51.00       198.34
 1272.73        2952.75           1259          57.00       224.50
 1272.76        2953.00           1262          62.00       246.30
 1272.79        2953.25           1266          58.00       228.86
 1272.82        2953.50           1269          57.00       224.50
 1272.85        2953.75           1272          62.00       246.30
 1272.88        2954.00           1276          56.00       220.14
 1272.91        2954.25           1279          57.00       224.50
 1272.94        2954.50           1282          46.00       176.55
 1272.97        2954.75           1286          65.00       259.37
 1273.00        2955.00           1289          66.00       263.73
 1273.03        2955.25           1292          55.00       215.78
 1273.06        2955.50           1296          58.00       228.86
 1273.10        2955.75           1299          59.00       233.22
 1273.13        2956.00           1302          58.00       228.86
 1273.16        2956.25           1306          66.00       263.73
 1273.19        2956.50           1309          63.00       250.66
 1273.22        2956.75           1312          56.00       220.14
 1273.25        2957.00           1316          62.00       246.30
 1273.28        2957.25           1319          60.00       237.58
 1273.31        2957.50           1322          55.00       215.78
 1273.34        2957.75           1326          55.00       215.78
 1273.37        2958.00           1329          60.00       237.58
 1273.40        2958.25           1332          62.00       246.30
 1273.44        2958.50           1336          60.00       237.58
 1273.47        2958.75           1339          59.00       233.22
 1273.50        2959.00           1342          62.00       246.30
 1273.53        2959.25           1346          61.00       241.94
 1273.56        2959.50           1349          74.00       298.61
 1273.59        2959.75           1352          87.00       355.28
 1273.62        2960.00           1356         104.00       429.39
 1273.65        2960.25           1359         131.00       547.09
 1273.68        2960.50           1362         172.00       725.82
 1273.71        2960.75           1366         226.00       961.23
 1273.75        2961.00           1369         246.00      1048.42
 1273.78        2961.25           1372         292.00      1248.96
 1273.81        2961.50           1376         372.00      1597.72
 1273.84        2961.75           1379         510.00      2199.36
 1273.87        2962.00           1382        1045.00      4532.00
 1273.90        2962.25           1386        2636.00     11470.82
 1273.93        2962.50           1389        4080.00     17771.02
 1273.96        2962.75           1392        5396.00     23514.84
 1273.99        2963.00           1396        7257.00     31640.74
 1274.02        2963.25           1399        8767.00     38236.95
 1274.06        2963.50           1402       10105.00     44083.98
 1274.09        2963.75           1406       12240.00     53418.15
 1274.12        2964.00           1409       13606.00     59393.01
 1274.15        2964.25           1412       15173.00     66249.68
 1274.18        2964.50           1416       17057.00     74497.18
 1274.21        2964.75           1419       18541.00     80996.49
 1274.24        2965.00           1422       19882.00     86871.71
 1274.27        2965.25           1426       21730.00     94971.59
 1274.30        2965.50           1429       23276.00    101750.80
 1274.34        2965.75           1432       24656.00    107804.50
 1274.37        2966.00           1436       26708.00    116810.10
 1274.40        2966.25           1439       28311.00    123848.60
 1274.43        2966.50           1442       29547.00    129277.70
 1274.46        2966.75           1446       30923.00    135323.80
 1274.49        2967.00           1449       31550.00    138079.50
 1274.52        2967.25           1452       31524.00    137965.20
 1274.55        2967.50           1456       31535.00    138013.60
 1274.58        2967.75           1459       31540.00    138035.60
 1274.62        2968.00           1462       31222.00    136637.90
 1274.65        2968.25           1466       30601.00    133908.70
 1274.68        2968.50           1469       29269.00    128056.40
 1274.71        2968.75           1472       28018.00    122561.80
 1274.74        2969.00           1476       26057.00    113952.50
 1274.77        2969.25           1479       24478.00    107023.60
 1274.80        2969.50           1482       23026.00    100654.40
 1274.83        2969.75           1486       21253.00     92880.51
 1274.87        2970.00           1489       19744.00     86267.00
 1274.90        2970.25           1492       18431.00     80514.66
 1274.93        2970.50           1496       16612.00     72548.75
 1274.96        2970.75           1499       15168.00     66227.80
 1274.99        2971.00           1502       13670.00     59672.99
 1275.02        2971.25           1506       11718.00     51135.49
 1275.05        2971.50           1509       10264.00     44778.95
 1275.08        2971.75           1513        8253.00     35991.33
 1275.11        2972.00           1516        6829.00     29771.57
 1275.14        2972.25           1519        5320.00     23183.08
 1275.18        2972.50           1523        3432.00     14943.49
 1275.21        2972.75           1526        2074.00      9019.44
 1275.24        2973.00           1529         870.00      3768.95
 1275.27        2973.25           1533         389.00      1671.84
 1275.30        2973.50           1536         300.00      1283.83
 1275.33        2973.75           1539         247.00      1052.78
 1275.36        2974.00           1543         195.00       826.09
 1275.39        2974.25           1546         145.00       608.12
 1275.42        2974.50           1549         107.00       442.46
 1275.45        2974.75           1553          88.00       359.64
 1275.49        2975.00           1556          63.00       250.66
 1275.52        2975.25           1559          69.00       276.81
 1275.55        2975.50           1563          60.00       237.58
 1275.58        2975.75           1566          57.00       224.50
 1275.61        2976.00           1569          54.00       211.42
 1275.64        2976.25           1573          57.00       224.50
 1275.67        2976.50           1576          56.00       220.14
 1275.70        2976.75           1579          50.00       193.99
 1275.73        2977.00           1583          56.00       220.14
 1275.76        2977.25           1586          51.00       198.34
 1275.79        2977.50           1590          53.00       207.06
 1275.82        2977.75           1593          53.00       207.06
 1275.86        2978.00           1596          54.00       211.42
 1275.89        2978.25           1600          48.00       185.27
 1275.92        2978.50           1603          51.00       198.34
 1275.95        2978.75           1606          54.00       211.42
 1275.98        2979.00           1610          57.00       224.50
 1276.01        2979.25           1613          63.00       250.66
 1276.04        2979.50           1616          61.00       241.94
 1276.07        2979.75           1620          53.00       207.06
 1276.10        2980.00           1623          48.00       185.27
 1276.13        2980.25           1626          53.00       207.06
 1276.16        2980.50           1630          56.00       220.14
 1276.20        2980.75           1633          46.00       176.55
 1276.23        2981.00           1637          54.00       211.42
 1276.26        2981.25           1640          56.00       220.14
 1276.29        2981.50           1643          55.00       215.78
 1276.32        2981.75           1647          52.00       202.70
 1276.35        2982.00           1650          44.00       167.83
 1276.38        2982.25           1653          51.00       198.34
 1276.41        2982.50           1657          56.00       220.14
 1276.44        2982.75           1660          48.00       185.27
 1276.47        2983.00           1663          56.00       220.14
 1276.50        2983.25           1667          58.00       228.86
 1276.53        2983.50           1670          49.00       189.63
 1276.57        2983.75           1673          63.00       250.66
 1276.60        2984.00           1677          48.00       185.27
HS scan finished at 21:16:49
end
