************************************************************
  HS Scan of (1) Internal mercury lamp
************************************************************
Integration time is 0.2294 seconds per sample
dh110518Manchester 53.47 2.23 2.804185pr1000
************************************************************
Dead Time -------------------------  3E-08 
Number of Cycles Used -------------  4 
Starting Wavelength (Angstroms) ---  2950 
Final Wavelength (Angstoms) -------  2984 
Wavelength Increment (Angstroms) --  .25 
Filter Wheel #1 Position ---------- (1) Ground quartz diffuser (ND=2.32)
Filter Wheel #2 Position ---------- (1) Neutral Density 0.494



************************************************************
HS scan start time = 01:28:39
Dark Count =  5.3 


Time (GMT)  Wavelength (Ang)  Step Number  Raw Counts  Counts/Second

   89.03        2950.00           1222          49.00       190.50
   89.09        2950.25           1226          57.00       225.37
   89.12        2950.50           1229          52.00       203.58
   89.15        2950.75           1232          60.00       238.45
   89.18        2951.00           1236          59.00       234.09
   89.22        2951.25           1239          65.00       260.25
   89.25        2951.50           1242          52.00       203.58
   89.28        2951.75           1246          60.00       238.45
   89.31        2952.00           1249          56.00       221.01
   89.34        2952.25           1252          56.00       221.01
   89.37        2952.50           1256          60.00       238.45
   89.40        2952.75           1259          53.00       207.94
   89.43        2953.00           1262          59.00       234.09
   89.46        2953.25           1266          53.00       207.94
   89.49        2953.50           1269          55.00       216.65
   89.52        2953.75           1272          57.00       225.37
   89.55        2954.00           1276          55.00       216.65
   89.58        2954.25           1279          61.00       242.81
   89.61        2954.50           1282          60.00       238.45
   89.65        2954.75           1286          58.00       229.73
   89.68        2955.00           1289          51.00       199.22
   89.71        2955.25           1292          58.00       229.73
   89.74        2955.50           1296          61.00       242.81
   89.77        2955.75           1299          54.00       212.29
   89.80        2956.00           1302          59.00       234.09
   89.83        2956.25           1306          51.00       199.22
   89.86        2956.50           1309          52.00       203.58
   89.89        2956.75           1312          56.00       221.01
   89.92        2957.00           1316          52.00       203.58
   89.95        2957.25           1319          53.00       207.94
   89.98        2957.50           1322          60.00       238.45
   90.01        2957.75           1326          57.00       225.37
   90.04        2958.00           1329          63.00       251.53
   90.07        2958.25           1332          56.00       221.01
   90.11        2958.50           1336          63.00       251.53
   90.14        2958.75           1339          60.00       238.45
   90.17        2959.00           1342          54.00       212.29
   90.20        2959.25           1346          65.00       260.25
   90.23        2959.50           1349          77.00       312.56
   90.26        2959.75           1352          88.00       360.51
   90.29        2960.00           1356         118.00       491.29
   90.32        2960.25           1359         160.00       674.38
   90.35        2960.50           1362         201.00       853.12
   90.38        2960.75           1366         257.00      1097.25
   90.41        2961.00           1369         266.00      1136.48
   90.44        2961.25           1372         299.00      1280.35
   90.48        2961.50           1376         369.00      1585.52
   90.51        2961.75           1379         500.00      2156.64
   90.54        2962.00           1382         999.00      4332.30
   90.57        2962.25           1386        2443.00     10629.81
   90.60        2962.50           1389        3827.00     16667.88
   90.63        2962.75           1392        5191.00     22620.84
   90.66        2963.00           1396        7043.00     30707.00
   90.69        2963.25           1399        8388.00     36581.98
   90.72        2963.50           1402        9950.00     43407.41
   90.75        2963.75           1406       12069.00     52671.23
   90.78        2964.00           1409       13583.00     59293.26
   90.81        2964.25           1412       15190.00     66324.96
   90.84        2964.50           1416       17160.00     74949.07
   90.87        2964.75           1419       18521.00     80909.75
   90.91        2965.00           1422       19949.00     87166.18
   90.94        2965.25           1426       22086.00     96533.30
   90.97        2965.50           1429       23706.00    103637.80
   91.00        2965.75           1432       25057.00    109564.90
   91.03        2966.00           1436       27216.00    119041.20
   91.06        2966.25           1439       28255.00    123603.50
   91.09        2966.50           1442       29643.00    129700.30
   91.12        2966.75           1446       30999.00    135658.60
   91.15        2967.00           1449       31563.00    138137.60
   91.19        2967.25           1452       31643.00    138489.20
   91.22        2967.50           1456       31646.00    138502.40
   91.25        2967.75           1459       31631.00    138436.40
   91.28        2968.00           1462       31587.00    138243.00
   91.31        2968.25           1466       30750.00    134564.40
   91.34        2968.50           1469       29351.00    128417.50
   91.37        2968.75           1472       28181.00    123278.50
   91.40        2969.00           1476       26296.00    115002.50
   91.44        2969.25           1479       24813.00    108494.20
   91.47        2969.50           1482       23331.00    101992.90
   91.50        2969.75           1486       21358.00     93341.66
   91.53        2970.00           1489       19846.00     86714.83
   91.56        2970.25           1492       18424.00     80484.86
   91.59        2970.50           1496       16584.00     72427.04
   91.62        2970.75           1499       15122.00     66027.35
   91.65        2971.00           1502       13663.00     59643.24
   91.68        2971.25           1506       11777.00     51394.35
   91.72        2971.50           1509       10428.00     45496.67
   91.75        2971.75           1513        8463.00     36909.64
   91.78        2972.00           1516        7052.00     30746.31
   91.81        2972.25           1519        5630.00     24537.24
   91.84        2972.50           1523        3739.00     16283.89
   91.87        2972.75           1526        2330.00     10136.91
   91.90        2973.00           1529        1068.00      4633.16
   91.93        2973.25           1533         433.00      1864.53
   91.96        2973.50           1536         312.00      1337.02
   91.99        2973.75           1539         240.00      1023.14
   92.02        2974.00           1543         206.00       874.91
   92.06        2974.25           1546         140.00       587.19
   92.09        2974.50           1549         120.00       500.01
   92.12        2974.75           1553          80.00       325.64
   92.15        2975.00           1556          67.00       268.96
   92.18        2975.25           1559          62.00       247.17
   92.21        2975.50           1563          65.00       260.25
   92.24        2975.75           1566          57.00       225.37
   92.27        2976.00           1569          53.00       207.94
   92.30        2976.25           1573          52.00       203.58
   92.33        2976.50           1576          62.00       247.17
   92.36        2976.75           1579          56.00       221.01
   92.40        2977.00           1583          50.00       194.86
   92.43        2977.25           1586          51.00       199.22
   92.46        2977.50           1590          59.00       234.09
   92.49        2977.75           1593          60.00       238.45
   92.52        2978.00           1596          55.00       216.65
   92.55        2978.25           1600          47.00       181.78
   92.58        2978.50           1603          48.00       186.14
   92.61        2978.75           1606          57.00       225.37
   92.64        2979.00           1610          58.00       229.73
   92.67        2979.25           1613          55.00       216.65
   92.70        2979.50           1616          49.00       190.50
   92.73        2979.75           1620          53.00       207.94
   92.77        2980.00           1623          57.00       225.37
   92.80        2980.25           1626          48.00       186.14
   92.83        2980.50           1630          56.00       221.01
   92.86        2980.75           1633          59.00       234.09
   92.89        2981.00           1637          52.00       203.58
   92.92        2981.25           1640          46.00       177.42
   92.95        2981.50           1643          58.00       229.73
   92.98        2981.75           1647          55.00       216.65
   93.01        2982.00           1650          55.00       216.65
   93.04        2982.25           1653          51.00       199.22
   93.07        2982.50           1657          56.00       221.01
   93.10        2982.75           1660          51.00       199.22
   93.14        2983.00           1663          57.00       225.37
   93.17        2983.25           1667          59.00       234.09
   93.20        2983.50           1670          48.00       186.14
   93.23        2983.75           1673          49.00       190.50
   93.26        2984.00           1677          50.00       194.86
HS scan finished at 01:33:29
end
************************************************************
  HS Scan of (1) Internal mercury lamp
************************************************************
Integration time is 0.2294 seconds per sample
dh110518Manchester 53.47 2.23 2.804185pr1000
************************************************************
Dead Time -------------------------  3E-08 
Number of Cycles Used -------------  4 
Starting Wavelength (Angstroms) ---  2950 
Final Wavelength (Angstoms) -------  2984 
Wavelength Increment (Angstroms) --  .25 
Filter Wheel #1 Position ---------- (1) Ground quartz diffuser (ND=2.32)
Filter Wheel #2 Position ---------- (1) Neutral Density 0.494



************************************************************
HS scan start time = 20:42:03
Dark Count =  5 


Time (GMT)  Wavelength (Ang)  Step Number  Raw Counts  Counts/Second

 1242.42        2950.00           1222          57.00       226.68
 1242.49        2950.25           1226          55.00       217.96
 1242.52        2950.50           1229          69.00       278.99
 1242.55        2950.75           1232          63.00       252.84
 1242.58        2951.00           1236          56.00       222.32
 1242.61        2951.25           1239          69.00       278.99
 1242.64        2951.50           1242          55.00       217.96
 1242.67        2951.75           1246          62.00       248.48
 1242.70        2952.00           1249          60.00       239.76
 1242.73        2952.25           1252          69.00       278.99
 1242.76        2952.50           1256          57.00       226.68
 1242.79        2952.75           1259          61.00       244.12
 1242.82        2953.00           1262          63.00       252.84
 1242.85        2953.25           1266          67.00       270.27
 1242.89        2953.50           1269          53.00       209.24
 1242.92        2953.75           1272          55.00       217.96
 1242.95        2954.00           1276          57.00       226.68
 1242.98        2954.25           1279          52.00       204.88
 1243.01        2954.50           1282          65.00       261.55
 1243.04        2954.75           1286          63.00       252.84
 1243.07        2955.00           1289          59.00       235.40
 1243.10        2955.25           1292          57.00       226.68
 1243.13        2955.50           1296          58.00       231.04
 1243.16        2955.75           1299          62.00       248.48
 1243.19        2956.00           1302          59.00       235.40
 1243.22        2956.25           1306          57.00       226.68
 1243.26        2956.50           1309          60.00       239.76
 1243.29        2956.75           1312          52.00       204.88
 1243.32        2957.00           1316          60.00       239.76
 1243.35        2957.25           1319          61.00       244.12
 1243.38        2957.50           1322          51.00       200.52
 1243.41        2957.75           1326          63.00       252.84
 1243.44        2958.00           1329          71.00       287.71
 1243.47        2958.25           1332          53.00       209.24
 1243.50        2958.50           1336          63.00       252.84
 1243.53        2958.75           1339          59.00       235.40
 1243.56        2959.00           1342          64.00       257.19
 1243.59        2959.25           1346          61.00       244.12
 1243.62        2959.50           1349          74.00       300.79
 1243.66        2959.75           1352          89.00       366.18
 1243.69        2960.00           1356         131.00       549.27
 1243.72        2960.25           1359         179.00       758.52
 1243.75        2960.50           1362         200.00       850.07
 1243.78        2960.75           1366         257.00      1098.55
 1243.81        2961.00           1369         291.00      1246.78
 1243.84        2961.25           1372         332.00      1425.52
 1243.87        2961.50           1376         366.00      1573.74
 1243.90        2961.75           1379         570.00      2463.13
 1243.93        2962.00           1382        1244.00      5401.92
 1243.96        2962.25           1386        2823.00     12288.75
 1243.99        2962.50           1389        4265.00     18580.54
 1244.03        2962.75           1392        5685.00     24778.66
 1244.06        2963.00           1396        7467.00     32560.13
 1244.09        2963.25           1399        8877.00     38719.76
 1244.12        2963.50           1402       10313.00     44995.31
 1244.15        2963.75           1406       12364.00     53962.62
 1244.18        2964.00           1409       13815.00     60309.54
 1244.21        2964.25           1412       15358.00     67061.55
 1244.24        2964.50           1416       17326.00     75677.28
 1244.27        2964.75           1419       18894.00     82545.05
 1244.30        2965.00           1422       20416.00     89214.06
 1244.33        2965.25           1426       22183.00     96959.92
 1244.37        2965.50           1429       23701.00    103617.20
 1244.40        2965.75           1432       25390.00    111027.50
 1244.43        2966.00           1436       27159.00    118792.30
 1244.46        2966.25           1439       28547.00    124887.30
 1244.49        2966.50           1442       29910.00    130874.70
 1244.52        2966.75           1446       31263.00    136820.30
 1244.55        2967.00           1449       31580.00    138213.60
 1244.58        2967.25           1452       31567.00    138156.40
 1244.61        2967.50           1456       31534.00    138011.40
 1244.64        2967.75           1459       31532.00    138002.60
 1244.68        2968.00           1462       31439.00    137593.80
 1244.71        2968.25           1466       30487.00    133410.00
 1244.74        2968.50           1469       29122.00    127412.90
 1244.77        2968.75           1472       27981.00    122401.60
 1244.80        2969.00           1476       26042.00    113888.90
 1244.83        2969.25           1479       24788.00    108385.90
 1244.86        2969.50           1482       23404.00    102314.40
 1244.89        2969.75           1486       21631.00     94539.77
 1244.92        2970.00           1489       20050.00     87610.09
 1244.96        2970.25           1492       18665.00     81541.86
 1244.99        2970.50           1496       16713.00     72993.15
 1245.02        2970.75           1499       15088.00     65879.86
 1245.05        2971.00           1502       13702.00     59815.17
 1245.08        2971.25           1506       11719.00     51142.05
 1245.11        2971.50           1509       10302.00     44947.23
 1245.14        2971.75           1513        8523.00     37173.08
 1245.17        2972.00           1516        6961.00     30350.20
 1245.20        2972.25           1519        5627.00     24525.45
 1245.23        2972.50           1523        3866.00     16839.37
 1245.27        2972.75           1526        2487.00     10823.04
 1245.30        2973.00           1529        1207.00      5240.58
 1245.33        2973.25           1533         462.00      1992.27
 1245.36        2973.50           1536         312.00      1338.33
 1245.39        2973.75           1539         262.00      1120.35
 1245.42        2974.00           1543         202.00       858.78
 1245.45        2974.25           1546         161.00       680.05
 1245.48        2974.50           1549         124.00       518.75
 1245.51        2974.75           1553          84.00       344.38
 1245.54        2975.00           1556          70.00       283.35
 1245.57        2975.25           1559          71.00       287.71
 1245.61        2975.50           1563          52.00       204.88
 1245.64        2975.75           1566          56.00       222.32
 1245.67        2976.00           1569          65.00       261.55
 1245.70        2976.25           1573          62.00       248.48
 1245.73        2976.50           1576          48.00       187.45
 1245.76        2976.75           1579          57.00       226.68
 1245.79        2977.00           1583          66.00       265.91
 1245.82        2977.25           1586          49.00       191.81
 1245.85        2977.50           1590          49.00       191.81
 1245.88        2977.75           1593          57.00       226.68
 1245.91        2978.00           1596          52.00       204.88
 1245.94        2978.25           1600          50.00       196.17
 1245.97        2978.50           1603          56.00       222.32
 1246.00        2978.75           1606          55.00       217.96
 1246.04        2979.00           1610          51.00       200.52
 1246.07        2979.25           1613          50.00       196.17
 1246.10        2979.50           1616          53.00       209.24
 1246.13        2979.75           1620          59.00       235.40
 1246.16        2980.00           1623          49.00       191.81
 1246.19        2980.25           1626          57.00       226.68
 1246.22        2980.50           1630          53.00       209.24
 1246.25        2980.75           1633          48.00       187.45
 1246.28        2981.00           1637          59.00       235.40
 1246.31        2981.25           1640          57.00       226.68
 1246.34        2981.50           1643          61.00       244.12
 1246.37        2981.75           1647          53.00       209.24
 1246.40        2982.00           1650          55.00       217.96
 1246.43        2982.25           1653          48.00       187.45
 1246.46        2982.50           1657          54.00       213.60
 1246.50        2982.75           1660          57.00       226.68
 1246.53        2983.00           1663          49.00       191.81
 1246.56        2983.25           1667          49.00       191.81
 1246.59        2983.50           1670          58.00       231.04
 1246.62        2983.75           1673          55.00       217.96
 1246.65        2984.00           1677          57.00       226.68
HS scan finished at 20:46:52
end
