************************************************************
  HS Scan of (1) Internal mercury lamp
************************************************************
Integration time is 0.2294 seconds per sample
dh110517Manchester 53.47 2.23 2.804185pr1000
************************************************************
Dead Time -------------------------  3E-08 
Number of Cycles Used -------------  4 
Starting Wavelength (Angstroms) ---  2950 
Final Wavelength (Angstoms) -------  2984 
Wavelength Increment (Angstroms) --  .25 
Filter Wheel #1 Position ---------- (1) Ground quartz diffuser (ND=2.32)
Filter Wheel #2 Position ---------- (1) Neutral Density 0.494



************************************************************
HS scan start time = 01:28:51
Dark Count =  7.1 


Time (GMT)  Wavelength (Ang)  Step Number  Raw Counts  Counts/Second

   89.22        2950.00           1222          45.00       165.21
   89.29        2950.25           1226          52.00       195.73
   89.32        2950.50           1229          43.00       156.50
   89.35        2950.75           1232          48.00       178.29
   89.38        2951.00           1236          48.00       178.29
   89.41        2951.25           1239          45.00       165.21
   89.44        2951.50           1242          42.00       152.14
   89.47        2951.75           1246          45.00       165.21
   89.50        2952.00           1249          47.00       173.93
   89.53        2952.25           1252          44.00       160.86
   89.56        2952.50           1256          47.00       173.93
   89.59        2952.75           1259          53.00       200.09
   89.63        2953.00           1262          49.00       182.65
   89.66        2953.25           1266          48.00       178.29
   89.69        2953.50           1269          53.00       200.09
   89.72        2953.75           1272          47.00       173.93
   89.75        2954.00           1276          44.00       160.86
   89.78        2954.25           1279          47.00       173.93
   89.81        2954.50           1282          49.00       182.65
   89.84        2954.75           1286          45.00       165.21
   89.87        2955.00           1289          48.00       178.29
   89.90        2955.25           1292          41.00       147.78
   89.93        2955.50           1296          49.00       182.65
   89.96        2955.75           1299          42.00       152.14
   89.99        2956.00           1302          43.00       156.50
   90.03        2956.25           1306          55.00       208.81
   90.06        2956.50           1309          42.00       152.14
   90.09        2956.75           1312          44.00       160.86
   90.12        2957.00           1316          45.00       165.21
   90.15        2957.25           1319          52.00       195.73
   90.18        2957.50           1322          45.00       165.21
   90.21        2957.75           1326          41.00       147.78
   90.24        2958.00           1329          45.00       165.21
   90.27        2958.25           1332          43.00       156.50
   90.30        2958.50           1336          48.00       178.29
   90.33        2958.75           1339          51.00       191.37
   90.36        2959.00           1342          46.00       169.57
   90.39        2959.25           1346          54.00       204.45
   90.42        2959.50           1349          65.00       252.40
   90.45        2959.75           1352          61.00       234.96
   90.49        2960.00           1356          90.00       361.38
   90.52        2960.25           1359         131.00       540.11
   90.55        2960.50           1362         180.00       753.72
   90.58        2960.75           1366         232.00       980.41
   90.61        2961.00           1369         274.00      1163.51
   90.64        2961.25           1372         315.00      1342.25
   90.67        2961.50           1376         378.00      1616.91
   90.70        2961.75           1379         561.00      2414.73
   90.73        2962.00           1382        1160.00      5026.48
   90.76        2962.25           1386        2756.00     11987.31
   90.79        2962.50           1389        4369.00     19025.24
   90.82        2962.75           1392        5986.00     26083.61
   90.85        2963.00           1396        8207.00     35783.38
   90.88        2963.25           1399        9876.00     43076.12
   90.91        2963.50           1402       11523.00     50275.87
   90.95        2963.75           1406       13850.00     60453.48
   90.98        2964.00           1409       15570.00     67980.27
   91.01        2964.25           1412       17317.00     75628.68
   91.04        2964.50           1416       19694.00     86040.90
   91.07        2964.75           1419       21553.00     94188.62
   91.10        2965.00           1422       23226.00    101524.50
   91.13        2965.25           1426       25384.00    110991.90
   91.16        2965.50           1429       27008.00    118120.10
   91.19        2965.75           1432       29017.00    126942.40
   91.23        2966.00           1436       30931.00    135351.90
   91.26        2966.25           1439       32417.00    141883.80
   91.29        2966.50           1442       34176.00    149619.10
   91.32        2966.75           1446       36027.00    157762.80
   91.35        2967.00           1449       36834.00    161314.60
   91.38        2967.25           1452       37127.00    162604.30
   91.41        2967.50           1456       37012.00    162098.10
   91.44        2967.75           1459       36861.00    161433.40
   91.47        2968.00           1462       36888.00    161552.20
   91.51        2968.25           1466       36191.00    158484.50
   91.54        2968.50           1469       34778.00    152267.20
   91.57        2968.75           1472       33234.00    145476.10
   91.60        2969.00           1476       30868.00    135075.00
   91.63        2969.25           1479       29338.00    128352.50
   91.66        2969.50           1482       27593.00    120688.60
   91.69        2969.75           1486       25389.00    111013.80
   91.72        2970.00           1489       23725.00    103713.20
   91.75        2970.25           1492       22146.00     96788.49
   91.79        2970.50           1496       19719.00     86150.46
   91.82        2970.75           1499       18067.00     78913.28
   91.85        2971.00           1502       16294.00     71149.53
   91.88        2971.25           1506       13940.00     60847.25
   91.91        2971.50           1509       12230.00     53367.42
   91.94        2971.75           1513        9929.00     43307.76
   91.97        2972.00           1516        8303.00     36202.77
   92.00        2972.25           1519        6697.00     29188.15
   92.03        2972.50           1523        4445.00     19356.92
   92.06        2972.75           1526        2873.00     12497.71
   92.10        2973.00           1529        1476.00      6404.46
   92.13        2973.25           1533         509.00      2188.03
   92.16        2973.50           1536         341.00      1455.60
   92.19        2973.75           1539         294.00      1250.70
   92.22        2974.00           1543         236.00       997.85
   92.25        2974.25           1546         171.00       714.49
   92.28        2974.50           1549         131.00       540.11
   92.31        2974.75           1553          86.00       343.94
   92.34        2975.00           1556          65.00       252.40
   92.37        2975.25           1559          56.00       213.17
   92.41        2975.50           1563          51.00       191.37
   92.44        2975.75           1566          41.00       147.78
   92.47        2976.00           1569          41.00       147.78
   92.50        2976.25           1573          51.00       191.37
   92.53        2976.50           1576          48.00       178.29
   92.56        2976.75           1579          49.00       182.65
   92.59        2977.00           1583          47.00       173.93
   92.62        2977.25           1586          42.00       152.14
   92.65        2977.50           1590          45.00       165.21
   92.68        2977.75           1593          50.00       187.01
   92.71        2978.00           1596          52.00       195.73
   92.74        2978.25           1600          43.00       156.50
   92.78        2978.50           1603          47.00       173.93
   92.81        2978.75           1606          48.00       178.29
   92.84        2979.00           1610          51.00       191.37
   92.87        2979.25           1613          41.00       147.78
   92.90        2979.50           1616          43.00       156.50
   92.93        2979.75           1620          43.00       156.50
   92.96        2980.00           1623          40.00       143.42
   92.99        2980.25           1626          43.00       156.50
   93.02        2980.50           1630          46.00       169.57
   93.05        2980.75           1633          51.00       191.37
   93.09        2981.00           1637          41.00       147.78
   93.12        2981.25           1640          43.00       156.50
   93.15        2981.50           1643          49.00       182.65
   93.18        2981.75           1647          47.00       173.93
   93.21        2982.00           1650          45.00       165.21
   93.24        2982.25           1653          48.00       178.29
   93.27        2982.50           1657          39.00       139.06
   93.30        2982.75           1660          49.00       182.65
   93.33        2983.00           1663          44.00       160.86
   93.36        2983.25           1667          41.00       147.78
   93.39        2983.50           1670          55.00       208.81
   93.42        2983.75           1673          39.00       139.06
   93.45        2984.00           1677          56.00       213.17
HS scan finished at 01:33:40
end
************************************************************
  HS Scan of (1) Internal mercury lamp
************************************************************
Integration time is 0.2294 seconds per sample
dh110517Manchester 53.47 2.23 2.857833pr1000
************************************************************
Dead Time -------------------------  3E-08 
Number of Cycles Used -------------  4 
Starting Wavelength (Angstroms) ---  2950 
Final Wavelength (Angstoms) -------  2984 
Wavelength Increment (Angstroms) --  .25 
Filter Wheel #1 Position ---------- (1) Ground quartz diffuser (ND=2.32)
Filter Wheel #2 Position ---------- (1) Neutral Density 0.494



************************************************************
HS scan start time = 20:42:01
Dark Count =  6.1 


Time (GMT)  Wavelength (Ang)  Step Number  Raw Counts  Counts/Second

 1242.38        2950.00           1222          48.00       182.65
 1242.45        2950.25           1226          36.00       130.34
 1242.48        2950.50           1229          43.00       160.86
 1242.51        2950.75           1232          49.00       187.01
 1242.54        2951.00           1236          43.00       160.86
 1242.57        2951.25           1239          45.00       169.57
 1242.61        2951.50           1242          53.00       204.45
 1242.64        2951.75           1246          45.00       169.57
 1242.67        2952.00           1249          52.00       200.09
 1242.70        2952.25           1252          55.00       213.17
 1242.73        2952.50           1256          51.00       195.73
 1242.76        2952.75           1259          48.00       182.65
 1242.79        2953.00           1262          43.00       160.86
 1242.82        2953.25           1266          57.00       221.88
 1242.85        2953.50           1269          41.00       152.14
 1242.88        2953.75           1272          41.00       152.14
 1242.92        2954.00           1276          47.00       178.29
 1242.95        2954.25           1279          47.00       178.29
 1242.98        2954.50           1282          47.00       178.29
 1243.01        2954.75           1286          36.00       130.34
 1243.04        2955.00           1289          46.00       173.93
 1243.07        2955.25           1292          44.00       165.21
 1243.10        2955.50           1296          42.00       156.50
 1243.13        2955.75           1299          39.00       143.42
 1243.16        2956.00           1302          45.00       169.57
 1243.19        2956.25           1306          47.00       178.29
 1243.22        2956.50           1309          37.00       134.70
 1243.26        2956.75           1312          48.00       182.65
 1243.29        2957.00           1316          46.00       173.93
 1243.32        2957.25           1319          52.00       200.09
 1243.35        2957.50           1322          48.00       182.65
 1243.38        2957.75           1326          46.00       173.93
 1243.41        2958.00           1329          45.00       169.57
 1243.44        2958.25           1332          44.00       165.21
 1243.47        2958.50           1336          50.00       191.37
 1243.50        2958.75           1339          45.00       169.57
 1243.53        2959.00           1342          49.00       187.01
 1243.56        2959.25           1346          45.00       169.57
 1243.60        2959.50           1349          56.00       217.53
 1243.63        2959.75           1352          79.00       317.79
 1243.66        2960.00           1356         111.00       457.29
 1243.69        2960.25           1359         149.00       622.94
 1243.72        2960.50           1362         184.00       775.52
 1243.75        2960.75           1366         239.00      1015.29
 1243.78        2961.00           1369         283.00      1207.11
 1243.81        2961.25           1372         337.00      1442.52
 1243.84        2961.50           1376         412.00      1769.49
 1243.87        2961.75           1379         607.00      2619.65
 1243.90        2962.00           1382        1236.00      5362.24
 1243.93        2962.25           1386        2993.00     13025.58
 1243.97        2962.50           1389        4583.00     19963.57
 1244.00        2962.75           1392        6169.00     26886.98
 1244.03        2963.00           1396        8356.00     36438.68
 1244.06        2963.25           1399        9978.00     43526.29
 1244.09        2963.50           1402       11745.00     51250.94
 1244.12        2963.75           1406       14277.00     62326.11
 1244.15        2964.00           1409       15899.00     69424.75
 1244.18        2964.25           1412       17857.00     77997.91
 1244.21        2964.50           1416       20106.00     87850.68
 1244.24        2964.75           1419       21883.00     95639.76
 1244.28        2965.00           1422       23735.00    103761.50
 1244.31        2965.25           1426       25953.00    113493.40
 1244.34        2965.50           1429       27824.00    121707.30
 1244.37        2965.75           1432       29571.00    129380.50
 1244.40        2966.00           1436       31920.00    139703.30
 1244.43        2966.25           1439       33588.00    147037.30
 1244.46        2966.50           1442       35116.00    153758.60
 1244.49        2966.75           1446       36731.00    160865.60
 1244.52        2967.00           1449       37264.00    163211.80
 1244.55        2967.25           1452       37216.00    163000.40
 1244.59        2967.50           1456       37363.00    163647.60
 1244.62        2967.75           1459       37316.00    163440.70
 1244.65        2968.00           1462       37057.00    162300.50
 1244.68        2968.25           1466       35838.00    156935.50
 1244.71        2968.50           1469       34640.00    151664.50
 1244.74        2968.75           1472       33230.00    145463.00
 1244.77        2969.00           1476       30980.00    135571.60
 1244.80        2969.25           1479       29338.00    128356.90
 1244.83        2969.50           1482       27653.00    120956.40
 1244.87        2969.75           1486       25299.00    110623.30
 1244.90        2970.00           1489       23647.00    103375.50
 1244.93        2970.25           1492       21947.00     95920.35
 1244.96        2970.50           1496       19681.00     85988.33
 1244.99        2970.75           1499       18039.00     78795.03
 1245.02        2971.00           1502       16200.00     70742.40
 1245.05        2971.25           1506       13871.00     60549.74
 1245.08        2971.50           1509       12053.00     52597.76
 1245.11        2971.75           1513        9813.00     42805.16
 1245.14        2972.00           1516        8153.00     35551.85
 1245.17        2972.25           1519        6652.00     28996.01
 1245.20        2972.50           1523        4440.00     19339.47
 1245.24        2972.75           1526        2877.00     12519.52
 1245.27        2973.00           1529        1517.00      6587.61
 1245.30        2973.25           1533         529.00      2279.58
 1245.33        2973.50           1536         332.00      1420.72
 1245.36        2973.75           1539         297.00      1268.14
 1245.39        2974.00           1543         227.00       962.97
 1245.42        2974.25           1546         179.00       753.72
 1245.45        2974.50           1549         118.00       487.80
 1245.48        2974.75           1553          76.00       304.71
 1245.51        2975.00           1556          65.00       256.76
 1245.54        2975.25           1559          64.00       252.40
 1245.57        2975.50           1563          45.00       169.57
 1245.61        2975.75           1566          47.00       178.29
 1245.64        2976.00           1569          49.00       187.01
 1245.67        2976.25           1573          45.00       169.57
 1245.70        2976.50           1576          51.00       195.73
 1245.73        2976.75           1579          49.00       187.01
 1245.76        2977.00           1583          49.00       187.01
 1245.79        2977.25           1586          48.00       182.65
 1245.82        2977.50           1590          50.00       191.37
 1245.85        2977.75           1593          48.00       182.65
 1245.88        2978.00           1596          43.00       160.86
 1245.91        2978.25           1600          48.00       182.65
 1245.94        2978.50           1603          45.00       169.57
 1245.98        2978.75           1606          45.00       169.57
 1246.01        2979.00           1610          48.00       182.65
 1246.04        2979.25           1613          50.00       191.37
 1246.07        2979.50           1616          45.00       169.57
 1246.10        2979.75           1620          47.00       178.29
 1246.13        2980.00           1623          50.00       191.37
 1246.16        2980.25           1626          43.00       160.86
 1246.19        2980.50           1630          50.00       191.37
 1246.22        2980.75           1633          51.00       195.73
 1246.25        2981.00           1637          48.00       182.65
 1246.29        2981.25           1640          37.00       134.70
 1246.32        2981.50           1643          47.00       178.29
 1246.35        2981.75           1647          45.00       169.57
 1246.38        2982.00           1650          44.00       165.21
 1246.41        2982.25           1653          38.00       139.06
 1246.44        2982.50           1657          41.00       152.14
 1246.47        2982.75           1660          56.00       217.53
 1246.50        2983.00           1663          38.00       139.06
 1246.53        2983.25           1667          41.00       152.14
 1246.56        2983.50           1670          42.00       156.50
 1246.59        2983.75           1673          41.00       152.14
 1246.63        2984.00           1677          44.00       165.21
HS scan finished at 20:46:50
end
