************************************************************
  HS Scan of (1) Internal mercury lamp
************************************************************
Integration time is 0.2294 seconds per sample
dh190517Manchester 53.47 2.23 2.804185pr1000
************************************************************
Dead Time -------------------------  3E-08 
Number of Cycles Used -------------  4 
Starting Wavelength (Angstroms) ---  2950 
Final Wavelength (Angstoms) -------  2984 
Wavelength Increment (Angstroms) --  .25 
Filter Wheel #1 Position ---------- (1) Ground quartz diffuser (ND=2.32)
Filter Wheel #2 Position ---------- (1) Neutral Density 0.494



************************************************************
HS scan start time = 01:19:28
Dark Count =  3.8 


Time (GMT)  Wavelength (Ang)  Step Number  Raw Counts  Counts/Second

   79.84        2950.00           1222          46.00       183.96
   79.91        2950.25           1226          47.00       188.32
   79.94        2950.50           1229          47.00       188.32
   79.97        2950.75           1232          48.00       192.68
   80.00        2951.00           1236          43.00       170.88
   80.03        2951.25           1239          47.00       188.32
   80.06        2951.50           1242          49.00       197.04
   80.09        2951.75           1246          49.00       197.04
   80.12        2952.00           1249          46.00       183.96
   80.15        2952.25           1252          44.00       175.24
   80.19        2952.50           1256          52.00       210.11
   80.22        2952.75           1259          48.00       192.68
   80.25        2953.00           1262          48.00       192.68
   80.28        2953.25           1266          50.00       201.40
   80.31        2953.50           1269          47.00       188.32
   80.34        2953.75           1272          44.00       175.24
   80.37        2954.00           1276          41.00       162.16
   80.40        2954.25           1279          42.00       166.52
   80.43        2954.50           1282          38.00       149.09
   80.46        2954.75           1286          42.00       166.52
   80.49        2955.00           1289          46.00       183.96
   80.52        2955.25           1292          47.00       188.32
   80.55        2955.50           1296          45.00       179.60
   80.58        2955.75           1299          46.00       183.96
   80.62        2956.00           1302          50.00       201.40
   80.65        2956.25           1306          44.00       175.24
   80.68        2956.50           1309          42.00       166.52
   80.71        2956.75           1312          47.00       188.32
   80.74        2957.00           1316          48.00       192.68
   80.77        2957.25           1319          52.00       210.11
   80.80        2957.50           1322          52.00       210.11
   80.83        2957.75           1326          42.00       166.52
   80.86        2958.00           1329          42.00       166.52
   80.89        2958.25           1332          41.00       162.16
   80.93        2958.50           1336          43.00       170.88
   80.96        2958.75           1339          46.00       183.96
   80.99        2959.00           1342          51.00       205.76
   81.02        2959.25           1346          47.00       188.32
   81.05        2959.50           1349          62.00       253.71
   81.08        2959.75           1352          82.00       340.89
   81.11        2960.00           1356         112.00       471.67
   81.14        2960.25           1359         163.00       694.00
   81.17        2960.50           1362         190.00       811.70
   81.20        2960.75           1366         252.00      1081.99
   81.23        2961.00           1369         291.00      1252.01
   81.26        2961.25           1372         351.00      1513.58
   81.30        2961.50           1376         564.00      2442.20
   81.33        2961.75           1379        1047.00      4548.14
   81.36        2962.00           1382        2176.00      9471.74
   81.39        2962.25           1386        4433.00     19318.95
   81.42        2962.50           1389        5982.00     26080.56
   81.45        2962.75           1392        7748.00     33792.75
   81.48        2963.00           1396        9943.00     43383.37
   81.51        2963.25           1399       11727.00     51182.28
   81.54        2963.50           1402       13287.00     58004.95
   81.57        2963.75           1406       15551.00     67911.55
   81.60        2964.00           1409       17293.00     75538.03
   81.63        2964.25           1412       19048.00     83224.97
   81.67        2964.50           1416       21345.00     93291.24
   81.70        2964.75           1419       23120.00    101074.10
   81.73        2965.00           1422       24955.00    109123.90
   81.76        2965.25           1426       27335.00    119570.30
   81.79        2965.50           1429       28850.00    126223.40
   81.82        2965.75           1432       30673.00    134232.60
   81.85        2966.00           1436       32781.00    143498.70
   81.88        2966.25           1439       34358.00    150434.10
   81.91        2966.50           1442       35709.00    156377.90
   81.94        2966.75           1446       36911.00    161668.00
   81.97        2967.00           1449       36947.00    161826.50
   82.01        2967.25           1452       37105.00    162521.90
   82.04        2967.50           1456       36999.00    162055.40
   82.07        2967.75           1459       36880.00    161531.50
   82.10        2968.00           1462       36268.00    158837.90
   82.13        2968.25           1466       34710.00    151982.60
   82.16        2968.50           1469       33279.00    145688.60
   82.19        2968.75           1472       31571.00    138179.30
   82.22        2969.00           1476       29445.00    128837.00
   82.25        2969.25           1479       27775.00    121502.20
   82.28        2969.50           1482       26072.00    114025.90
   82.31        2969.75           1486       23834.00    104205.80
   82.35        2970.00           1489       22330.00     97609.72
   82.38        2970.25           1492       20699.00     90459.62
   82.41        2970.50           1496       18140.00     79247.46
   82.44        2970.75           1499       16426.00     71741.86
   82.47        2971.00           1502       14631.00     63885.19
   82.50        2971.25           1506       12172.00     53128.21
   82.53        2971.50           1509       10557.00     46067.11
   82.56        2971.75           1513        8339.00     36374.46
   82.59        2972.00           1516        6655.00     29019.15
   82.62        2972.25           1519        5111.00     22278.18
   82.66        2972.50           1523        2925.00     12738.96
   82.69        2972.75           1526        1529.00      6649.98
   82.72        2973.00           1529         719.00      3117.99
   82.75        2973.25           1533         420.00      1814.40
   82.78        2973.50           1536         317.00      1365.36
   82.81        2973.75           1539         274.00      1177.90
   82.84        2974.00           1543         214.00       916.33
   82.87        2974.25           1546         169.00       720.16
   82.90        2974.50           1549         127.00       537.06
   82.93        2974.75           1553          77.00       319.10
   82.96        2975.00           1556          57.00       231.91
   82.99        2975.25           1559          60.00       244.99
   83.02        2975.50           1563          49.00       197.04
   83.05        2975.75           1566          50.00       201.40
   83.08        2976.00           1569          48.00       192.68
   83.12        2976.25           1573          43.00       170.88
   83.15        2976.50           1576          49.00       197.04
   83.18        2976.75           1579          48.00       192.68
   83.21        2977.00           1583          48.00       192.68
   83.24        2977.25           1586          53.00       214.47
   83.27        2977.50           1590          46.00       183.96
   83.30        2977.75           1593          50.00       201.40
   83.33        2978.00           1596          45.00       179.60
   83.36        2978.25           1600          46.00       183.96
   83.39        2978.50           1603          45.00       179.60
   83.42        2978.75           1606          53.00       214.47
   83.46        2979.00           1610          49.00       197.04
   83.49        2979.25           1613          50.00       201.40
   83.52        2979.50           1616          44.00       175.24
   83.55        2979.75           1620          49.00       197.04
   83.58        2980.00           1623          44.00       175.24
   83.61        2980.25           1626          43.00       170.88
   83.64        2980.50           1630          47.00       188.32
   83.67        2980.75           1633          45.00       179.60
   83.70        2981.00           1637          49.00       197.04
   83.73        2981.25           1640          58.00       236.27
   83.76        2981.50           1643          38.00       149.09
   83.79        2981.75           1647          53.00       214.47
   83.82        2982.00           1650          42.00       166.52
   83.86        2982.25           1653          43.00       170.88
   83.89        2982.50           1657          47.00       188.32
   83.92        2982.75           1660          37.00       144.73
   83.95        2983.00           1663          50.00       201.40
   83.98        2983.25           1667          47.00       188.32
   84.01        2983.50           1670          42.00       166.52
   84.04        2983.75           1673          43.00       170.88
   84.07        2984.00           1677          38.00       149.09
HS scan finished at 01:24:17
end
************************************************************
  HS Scan of (1) Internal mercury lamp
************************************************************
Integration time is 0.2294 seconds per sample
dh190517Manchester 53.47 2.23 2.804185pr1000
************************************************************
Dead Time -------------------------  3E-08 
Number of Cycles Used -------------  4 
Starting Wavelength (Angstroms) ---  2950 
Final Wavelength (Angstoms) -------  2984 
Wavelength Increment (Angstroms) --  .25 
Filter Wheel #1 Position ---------- (1) Ground quartz diffuser (ND=2.32)
Filter Wheel #2 Position ---------- (1) Neutral Density 0.494



************************************************************
HS scan start time = 20:52:30
Dark Count =  5.7 


Time (GMT)  Wavelength (Ang)  Step Number  Raw Counts  Counts/Second

 1252.87        2950.00           1222          37.00       136.44
 1252.94        2950.25           1226          44.00       166.96
 1252.97        2950.50           1229          43.00       162.60
 1253.00        2950.75           1232          38.00       140.80
 1253.03        2951.00           1236          48.00       184.40
 1253.06        2951.25           1239          39.00       145.16
 1253.09        2951.50           1242          42.00       158.24
 1253.12        2951.75           1246          46.00       175.68
 1253.15        2952.00           1249          42.00       158.24
 1253.18        2952.25           1252          45.00       171.32
 1253.21        2952.50           1256          43.00       162.60
 1253.24        2952.75           1259          50.00       193.11
 1253.27        2953.00           1262          48.00       184.40
 1253.30        2953.25           1266          47.00       180.04
 1253.34        2953.50           1269          43.00       162.60
 1253.37        2953.75           1272          45.00       171.32
 1253.40        2954.00           1276          46.00       175.68
 1253.43        2954.25           1279          44.00       166.96
 1253.46        2954.50           1282          45.00       171.32
 1253.49        2954.75           1286          42.00       158.24
 1253.52        2955.00           1289          45.00       171.32
 1253.55        2955.25           1292          47.00       180.04
 1253.58        2955.50           1296          43.00       162.60
 1253.61        2955.75           1299          43.00       162.60
 1253.64        2956.00           1302          53.00       206.19
 1253.67        2956.25           1306          49.00       188.75
 1253.70        2956.50           1309          47.00       180.04
 1253.73        2956.75           1312          50.00       193.11
 1253.76        2957.00           1316          47.00       180.04
 1253.79        2957.25           1319          46.00       175.68
 1253.82        2957.50           1322          46.00       175.68
 1253.86        2957.75           1326          47.00       180.04
 1253.89        2958.00           1329          51.00       197.47
 1253.92        2958.25           1332          48.00       184.40
 1253.95        2958.50           1336          49.00       188.75
 1253.98        2958.75           1339          48.00       184.40
 1254.01        2959.00           1342          37.00       136.44
 1254.04        2959.25           1346          45.00       171.32
 1254.07        2959.50           1349          48.00       184.40
 1254.10        2959.75           1352          55.00       214.91
 1254.13        2960.00           1356          99.00       406.72
 1254.17        2960.25           1359         125.00       520.06
 1254.20        2960.50           1362         169.00       711.87
 1254.23        2960.75           1366         222.00       942.92
 1254.26        2961.00           1369         247.00      1051.91
 1254.29        2961.25           1372         287.00      1226.29
 1254.32        2961.50           1376         367.00      1575.05
 1254.35        2961.75           1379         529.00      2281.32
 1254.38        2962.00           1382         911.00      3946.85
 1254.41        2962.25           1386        2298.00      9995.59
 1254.44        2962.50           1389        3929.00     17111.22
 1254.47        2962.75           1392        5576.00     24299.75
 1254.51        2963.00           1396        7774.00     33898.01
 1254.54        2963.25           1399        9473.00     41321.03
 1254.57        2963.50           1402       11191.00     48830.42
 1254.60        2963.75           1406       13272.00     57931.02
 1254.63        2964.00           1409       15121.00     66021.22
 1254.66        2964.25           1412       16885.00     73743.18
 1254.69        2964.50           1416       19534.00     85345.97
 1254.72        2964.75           1419       21092.00     92173.88
 1254.75        2965.00           1422       22687.00     99166.86
 1254.79        2965.25           1426       25143.00    109940.50
 1254.82        2965.50           1429       26831.00    117349.20
 1254.85        2965.75           1432       28521.00    124770.00
 1254.88        2966.00           1436       30737.00    134505.50
 1254.91        2966.25           1439       32315.00    141441.60
 1254.94        2966.50           1442       33812.00    148024.20
 1254.97        2966.75           1446       35913.00    157267.30
 1255.00        2967.00           1449       36408.00    159445.70
 1255.03        2967.25           1452       36779.00    161078.60
 1255.06        2967.50           1456       36710.00    160774.90
 1255.10        2967.75           1459       36759.00    160990.60
 1255.13        2968.00           1462       36602.00    160299.60
 1255.16        2968.25           1466       36076.00    157984.60
 1255.19        2968.50           1469       34993.00    153219.30
 1255.22        2968.75           1472       33427.00    146331.00
 1255.25        2969.00           1476       31284.00    136909.50
 1255.28        2969.25           1479       29693.00    129918.20
 1255.31        2969.50           1482       27984.00    122411.70
 1255.34        2969.75           1486       25652.00    112174.20
 1255.38        2970.00           1489       23878.00    104390.50
 1255.41        2970.25           1492       22313.00     97526.87
 1255.44        2970.50           1496       20083.00     87751.64
 1255.47        2970.75           1499       18469.00     80680.23
 1255.50        2971.00           1502       16640.00     72670.47
 1255.53        2971.25           1506       14459.00     63124.23
 1255.56        2971.50           1509       12571.00     54864.87
 1255.59        2971.75           1513       10482.00     45730.96
 1255.62        2972.00           1516        8797.00     38367.15
 1255.65        2972.25           1519        7137.00     31115.78
 1255.69        2972.50           1523        5176.00     22553.62
 1255.72        2972.75           1526        3573.00     15557.83
 1255.75        2973.00           1529        1993.00      8665.29
 1255.78        2973.25           1533         657.00      2839.39
 1255.81        2973.50           1536         375.00      1609.93
 1255.84        2973.75           1539         305.00      1304.76
 1255.87        2974.00           1543         249.00      1060.63
 1255.90        2974.25           1546         189.00       799.06
 1255.93        2974.50           1549         134.00       559.29
 1255.97        2974.75           1553          91.00       371.84
 1256.00        2975.00           1556          72.00       289.02
 1256.03        2975.25           1559          59.00       232.35
 1256.06        2975.50           1563          46.00       175.68
 1256.09        2975.75           1566          47.00       180.04
 1256.12        2976.00           1569          54.00       210.55
 1256.15        2976.25           1573          50.00       193.11
 1256.18        2976.50           1576          56.00       219.27
 1256.21        2976.75           1579          48.00       184.40
 1256.24        2977.00           1583          48.00       184.40
 1256.27        2977.25           1586          43.00       162.60
 1256.30        2977.50           1590          40.00       149.52
 1256.33        2977.75           1593          44.00       166.96
 1256.36        2978.00           1596          46.00       175.68
 1256.39        2978.25           1600          51.00       197.47
 1256.42        2978.50           1603          46.00       175.68
 1256.46        2978.75           1606          44.00       166.96
 1256.49        2979.00           1610          46.00       175.68
 1256.52        2979.25           1613          47.00       180.04
 1256.55        2979.50           1616          48.00       184.40
 1256.58        2979.75           1620          47.00       180.04
 1256.61        2980.00           1623          39.00       145.16
 1256.64        2980.25           1626          44.00       166.96
 1256.67        2980.50           1630          48.00       184.40
 1256.70        2980.75           1633          46.00       175.68
 1256.73        2981.00           1637          58.00       227.99
 1256.76        2981.25           1640          43.00       162.60
 1256.80        2981.50           1643          40.00       149.52
 1256.83        2981.75           1647          43.00       162.60
 1256.86        2982.00           1650          42.00       158.24
 1256.89        2982.25           1653          37.00       136.44
 1256.92        2982.50           1657          45.00       171.32
 1256.95        2982.75           1660          53.00       206.19
 1256.98        2983.00           1663          41.00       153.88
 1257.01        2983.25           1667          46.00       175.68
 1257.04        2983.50           1670          47.00       180.04
 1257.07        2983.75           1673          44.00       166.96
 1257.10        2984.00           1677          41.00       153.88
HS scan finished at 20:57:19
end
