************************************************************
  HS Scan of (1) Internal mercury lamp
************************************************************
Integration time is 0.2294 seconds per sample
dh100518Manchester 53.47 2.23 2.804185pr1000
************************************************************
Dead Time -------------------------  3E-08 
Number of Cycles Used -------------  4 
Starting Wavelength (Angstroms) ---  2950 
Final Wavelength (Angstoms) -------  2984 
Wavelength Increment (Angstroms) --  .25 
Filter Wheel #1 Position ---------- (1) Ground quartz diffuser (ND=2.32)
Filter Wheel #2 Position ---------- (1) Neutral Density 0.494



************************************************************
HS scan start time = 02:09:45
Dark Count =  8.2 


Time (GMT)  Wavelength (Ang)  Step Number  Raw Counts  Counts/Second

  130.13        2950.00           1222          54.00       199.65
  130.19        2950.25           1226          61.00       230.17
  130.22        2950.50           1229          65.00       247.60
  130.25        2950.75           1232          57.00       212.73
  130.29        2951.00           1236          53.00       195.29
  130.32        2951.25           1239          57.00       212.73
  130.35        2951.50           1242          56.00       208.37
  130.38        2951.75           1246          56.00       208.37
  130.41        2952.00           1249          57.00       212.73
  130.44        2952.25           1252          56.00       208.37
  130.47        2952.50           1256          60.00       225.81
  130.50        2952.75           1259          58.00       217.09
  130.53        2953.00           1262          62.00       234.53
  130.56        2953.25           1266          57.00       212.73
  130.59        2953.50           1269          59.00       221.45
  130.62        2953.75           1272          57.00       212.73
  130.65        2954.00           1276          70.00       269.40
  130.68        2954.25           1279          64.00       243.25
  130.71        2954.50           1282          64.00       243.25
  130.74        2954.75           1286          62.00       234.53
  130.77        2955.00           1289          60.00       225.81
  130.81        2955.25           1292          58.00       217.09
  130.84        2955.50           1296          55.00       204.01
  130.87        2955.75           1299          56.00       208.37
  130.90        2956.00           1302          52.00       190.93
  130.93        2956.25           1306          59.00       221.45
  130.96        2956.50           1309          55.00       204.01
  130.99        2956.75           1312          55.00       204.01
  131.02        2957.00           1316          55.00       204.01
  131.05        2957.25           1319          61.00       230.17
  131.08        2957.50           1322          65.00       247.60
  131.11        2957.75           1326          60.00       225.81
  131.14        2958.00           1329          54.00       199.65
  131.17        2958.25           1332          60.00       225.81
  131.20        2958.50           1336          56.00       208.37
  131.23        2958.75           1339          58.00       217.09
  131.27        2959.00           1342          57.00       212.73
  131.30        2959.25           1346          58.00       217.09
  131.33        2959.50           1349          60.00       225.81
  131.36        2959.75           1352          73.00       282.48
  131.39        2960.00           1356         116.00       469.93
  131.42        2960.25           1359         131.00       535.32
  131.45        2960.50           1362         157.00       648.66
  131.48        2960.75           1366         213.00       892.79
  131.51        2961.00           1369         240.00      1010.49
  131.54        2961.25           1372         295.00      1250.26
  131.57        2961.50           1376         398.00      1699.30
  131.60        2961.75           1379         767.00      3308.09
  131.63        2962.00           1382        1773.00      7694.89
  131.66        2962.25           1386        3671.00     15974.53
  131.69        2962.50           1389        5002.00     21783.19
  131.73        2962.75           1392        6611.00     28807.80
  131.76        2963.00           1396        8383.00     36547.46
  131.79        2963.25           1399        9812.00     42791.60
  131.82        2963.50           1402       11352.00     49523.39
  131.85        2963.75           1406       13423.00     58580.63
  131.88        2964.00           1409       14705.00     64189.75
  131.91        2964.25           1412       16108.00     70330.46
  131.94        2964.50           1416       18188.00     79438.44
  131.97        2964.75           1419       19459.00     85006.40
  132.00        2965.00           1422       21118.00     92276.90
  132.03        2965.25           1426       23356.00    102089.90
  132.07        2965.50           1429       24880.00    108775.50
  132.10        2965.75           1432       26345.00    115204.80
  132.13        2966.00           1436       27977.00    122370.00
  132.16        2966.25           1439       29487.00    129002.20
  132.19        2966.50           1442       30667.00    134186.90
  132.22        2966.75           1446       31723.00    138828.10
  132.25        2967.00           1449       31655.00    138529.20
  132.28        2967.25           1452       31772.00    139043.50
  132.32        2967.50           1456       31747.00    138933.60
  132.35        2967.75           1459       31829.00    139294.10
  132.38        2968.00           1462       31153.00    136322.70
  132.41        2968.25           1466       29805.00    130399.30
  132.44        2968.50           1469       28584.00    125035.70
  132.47        2968.75           1472       27075.00    118409.40
  132.50        2969.00           1476       25309.00    110658.00
  132.53        2969.25           1479       23850.00    104256.70
  132.56        2969.50           1482       22440.00     98072.79
  132.59        2969.75           1486       20546.00     89769.78
  132.62        2970.00           1489       19218.00     83950.49
  132.66        2970.25           1492       17636.00     77020.84
  132.69        2970.50           1496       15790.00     68938.43
  132.72        2970.75           1499       14214.00     62041.26
  132.75        2971.00           1502       12809.00     55894.87
  132.78        2971.25           1506       10615.00     46301.41
  132.81        2971.50           1509        9278.00     40457.97
  132.84        2971.75           1513        7289.00     31768.71
  132.87        2972.00           1516        5801.00     25271.11
  132.90        2972.25           1519        4431.00     19291.02
  132.93        2972.50           1523        2591.00     11262.74
  132.96        2972.75           1526        1309.00      5671.41
  133.00        2973.00           1529         604.00      2597.41
  133.03        2973.25           1533         380.00      1620.83
  133.06        2973.50           1536         309.00      1311.30
  133.09        2973.75           1539         272.00      1150.00
  133.12        2974.00           1543         234.00       984.34
  133.15        2974.25           1546         179.00       744.57
  133.18        2974.50           1549         141.00       578.91
  133.21        2974.75           1553          92.00       365.30
  133.24        2975.00           1556          76.00       295.56
  133.27        2975.25           1559          60.00       225.81
  133.30        2975.50           1563          63.00       238.89
  133.33        2975.75           1566          65.00       247.60
  133.36        2976.00           1569          58.00       217.09
  133.39        2976.25           1573          54.00       199.65
  133.42        2976.50           1576          55.00       204.01
  133.46        2976.75           1579          56.00       208.37
  133.49        2977.00           1583          49.00       177.86
  133.52        2977.25           1586          56.00       208.37
  133.55        2977.50           1590          54.00       199.65
  133.58        2977.75           1593          53.00       195.29
  133.61        2978.00           1596          55.00       204.01
  133.64        2978.25           1600          56.00       208.37
  133.67        2978.50           1603          52.00       190.93
  133.70        2978.75           1606          50.00       182.22
  133.73        2979.00           1610          52.00       190.93
  133.76        2979.25           1613          49.00       177.86
  133.79        2979.50           1616          49.00       177.86
  133.82        2979.75           1620          48.00       173.50
  133.85        2980.00           1623          60.00       225.81
  133.88        2980.25           1626          55.00       204.01
  133.91        2980.50           1630          50.00       182.22
  133.94        2980.75           1633          51.00       186.57
  133.97        2981.00           1637          54.00       199.65
  134.01        2981.25           1640          53.00       195.29
  134.04        2981.50           1643          53.00       195.29
  134.07        2981.75           1647          53.00       195.29
  134.10        2982.00           1650          68.00       260.68
  134.13        2982.25           1653          52.00       190.93
  134.16        2982.50           1657          56.00       208.37
  134.19        2982.75           1660          52.00       190.93
  134.22        2983.00           1663          55.00       204.01
  134.25        2983.25           1667          53.00       195.29
  134.28        2983.50           1670          50.00       182.22
  134.31        2983.75           1673          45.00       160.42
  134.34        2984.00           1677          48.00       173.50
HS scan finished at 02:14:34
end
************************************************************
  HS Scan of (1) Internal mercury lamp
************************************************************
Integration time is 0.2294 seconds per sample
dh100518Manchester 53.47 2.23 2.804185pr1000
************************************************************
Dead Time -------------------------  3E-08 
Number of Cycles Used -------------  4 
Starting Wavelength (Angstroms) ---  2950 
Final Wavelength (Angstoms) -------  2984 
Wavelength Increment (Angstroms) --  .25 
Filter Wheel #1 Position ---------- (1) Ground quartz diffuser (ND=2.32)
Filter Wheel #2 Position ---------- (1) Neutral Density 0.494



************************************************************
HS scan start time = 20:42:02
Dark Count =  5.8 


Time (GMT)  Wavelength (Ang)  Step Number  Raw Counts  Counts/Second

 1242.41        2950.00           1222          59.00       231.91
 1242.47        2950.25           1226          70.00       279.86
 1242.50        2950.50           1229          55.00       214.47
 1242.53        2950.75           1232          67.00       266.79
 1242.56        2951.00           1236          58.00       227.55
 1242.59        2951.25           1239          60.00       236.27
 1242.63        2951.50           1242          54.00       210.11
 1242.66        2951.75           1246          68.00       271.14
 1242.69        2952.00           1249          61.00       240.63
 1242.72        2952.25           1252          59.00       231.91
 1242.75        2952.50           1256          65.00       258.07
 1242.78        2952.75           1259          53.00       205.76
 1242.81        2953.00           1262          62.00       244.99
 1242.84        2953.25           1266          54.00       210.11
 1242.87        2953.50           1269          62.00       244.99
 1242.90        2953.75           1272          64.00       253.71
 1242.93        2954.00           1276          60.00       236.27
 1242.96        2954.25           1279          62.00       244.99
 1243.00        2954.50           1282          60.00       236.27
 1243.03        2954.75           1286          60.00       236.27
 1243.06        2955.00           1289          57.00       223.19
 1243.09        2955.25           1292          56.00       218.83
 1243.12        2955.50           1296          49.00       188.32
 1243.15        2955.75           1299          57.00       223.19
 1243.18        2956.00           1302          58.00       227.55
 1243.21        2956.25           1306          68.00       271.14
 1243.24        2956.50           1309          54.00       210.11
 1243.27        2956.75           1312          56.00       218.83
 1243.30        2957.00           1316          53.00       205.76
 1243.33        2957.25           1319          57.00       223.19
 1243.36        2957.50           1322          59.00       231.91
 1243.40        2957.75           1326          53.00       205.76
 1243.43        2958.00           1329          47.00       179.60
 1243.46        2958.25           1332          60.00       236.27
 1243.49        2958.50           1336          60.00       236.27
 1243.52        2958.75           1339          53.00       205.76
 1243.55        2959.00           1342          60.00       236.27
 1243.58        2959.25           1346          66.00       262.43
 1243.61        2959.50           1349          64.00       253.71
 1243.64        2959.75           1352          77.00       310.38
 1243.67        2960.00           1356         107.00       441.16
 1243.70        2960.25           1359         131.00       545.78
 1243.73        2960.50           1362         158.00       663.48
 1243.77        2960.75           1366         208.00       881.45
 1243.80        2961.00           1369         250.00      1064.55
 1243.83        2961.25           1372         303.00      1295.60
 1243.86        2961.50           1376         373.00      1600.77
 1243.89        2961.75           1379         534.00      2302.69
 1243.92        2962.00           1382        1177.00      5106.28
 1243.95        2962.25           1386        2747.00     11953.72
 1243.98        2962.50           1389        4295.00     18707.97
 1244.01        2962.75           1392        5717.00     24914.87
 1244.04        2963.00           1396        7643.00     33325.37
 1244.07        2963.25           1399        9089.00     39642.59
 1244.10        2963.50           1402       10636.00     46403.71
 1244.13        2963.75           1406       12682.00     55349.90
 1244.16        2964.00           1409       14127.00     61671.10
 1244.20        2964.25           1412       15700.00     68554.97
 1244.23        2964.50           1416       17328.00     75682.54
 1244.26        2964.75           1419       18894.00     82541.54
 1244.29        2965.00           1422       20410.00     89184.24
 1244.32        2965.25           1426       22419.00     97991.22
 1244.35        2965.50           1429       23726.00    103723.30
 1244.38        2965.75           1432       25227.00    110308.60
 1244.41        2966.00           1436       27324.00    119513.20
 1244.44        2966.25           1439       28782.00    125915.90
 1244.48        2966.50           1442       29889.00    130778.90
 1244.51        2966.75           1446       31286.00    136917.80
 1244.54        2967.00           1449       31594.00    138271.60
 1244.57        2967.25           1452       31732.00    138878.20
 1244.60        2967.50           1456       31528.00    137981.50
 1244.63        2967.75           1459       31629.00    138425.40
 1244.66        2968.00           1462       31438.00    137585.90
 1244.69        2968.25           1466       30459.00    133283.40
 1244.72        2968.50           1469       29039.00    127044.80
 1244.76        2968.75           1472       27525.00    120395.70
 1244.79        2969.00           1476       25842.00    113007.60
 1244.82        2969.25           1479       24113.00    105420.90
 1244.85        2969.50           1482       22738.00     99390.07
 1244.88        2969.75           1486       20655.00     90258.01
 1244.91        2970.00           1489       19425.00     84867.94
 1244.94        2970.25           1492       18165.00     79348.21
 1244.97        2970.50           1496       16226.00     70857.53
 1245.00        2970.75           1499       14674.00     64064.60
 1245.03        2971.00           1502       13379.00     58398.65
 1245.06        2971.25           1506       11381.00     49660.68
 1245.10        2971.50           1509        9773.00     42631.65
 1245.13        2971.75           1513        7822.00     34107.25
 1245.16        2972.00           1516        6370.00     27765.93
 1245.19        2972.25           1519        5033.00     21928.98
 1245.22        2972.50           1523        3051.00     13279.92
 1245.25        2972.75           1526        1717.00      7461.13
 1245.28        2973.00           1529         694.00      3000.27
 1245.31        2973.25           1533         374.00      1605.13
 1245.34        2973.50           1536         271.00      1156.10
 1245.37        2973.75           1539         251.00      1068.91
 1245.40        2974.00           1543         196.00       829.14
 1245.44        2974.25           1546         151.00       632.97
 1245.47        2974.50           1549         120.00       497.83
 1245.50        2974.75           1553          97.00       397.56
 1245.53        2975.00           1556          76.00       306.02
 1245.56        2975.25           1559          61.00       240.63
 1245.59        2975.50           1563          61.00       240.63
 1245.62        2975.75           1566          61.00       240.63
 1245.65        2976.00           1569          57.00       223.19
 1245.68        2976.25           1573          53.00       205.76
 1245.71        2976.50           1576          58.00       227.55
 1245.74        2976.75           1579          52.00       201.40
 1245.78        2977.00           1583          57.00       223.19
 1245.81        2977.25           1586          52.00       201.40
 1245.84        2977.50           1590          59.00       231.91
 1245.87        2977.75           1593          53.00       205.76
 1245.90        2978.00           1596          54.00       210.11
 1245.93        2978.25           1600          45.00       170.88
 1245.96        2978.50           1603          55.00       214.47
 1245.99        2978.75           1606          49.00       188.32
 1246.02        2979.00           1610          56.00       218.83
 1246.05        2979.25           1613          53.00       205.76
 1246.08        2979.50           1616          60.00       236.27
 1246.11        2979.75           1620          59.00       231.91
 1246.14        2980.00           1623          56.00       218.83
 1246.18        2980.25           1626          56.00       218.83
 1246.21        2980.50           1630          60.00       236.27
 1246.24        2980.75           1633          56.00       218.83
 1246.27        2981.00           1637          51.00       197.04
 1246.30        2981.25           1640          58.00       227.55
 1246.33        2981.50           1643          54.00       210.11
 1246.36        2981.75           1647          58.00       227.55
 1246.39        2982.00           1650          52.00       201.40
 1246.42        2982.25           1653          56.00       218.83
 1246.45        2982.50           1657          48.00       183.96
 1246.48        2982.75           1660          57.00       223.19
 1246.51        2983.00           1663          50.00       192.68
 1246.55        2983.25           1667          50.00       192.68
 1246.58        2983.50           1670          57.00       223.19
 1246.61        2983.75           1673          56.00       218.83
 1246.64        2984.00           1677          56.00       218.83
HS scan finished at 20:46:51
end
