************************************************************
  HS Scan of (1) Internal mercury lamp
************************************************************
Integration time is 0.2294 seconds per sample
dh130517Manchester 53.47 2.23 2.804185pr1000
************************************************************
Dead Time -------------------------  3E-08 
Number of Cycles Used -------------  4 
Starting Wavelength (Angstroms) ---  2950 
Final Wavelength (Angstoms) -------  2984 
Wavelength Increment (Angstroms) --  .25 
Filter Wheel #1 Position ---------- (1) Ground quartz diffuser (ND=2.32)
Filter Wheel #2 Position ---------- (1) Neutral Density 0.494



************************************************************
HS scan start time = 01:22:54
Dark Count =  7.4 


Time (GMT)  Wavelength (Ang)  Step Number  Raw Counts  Counts/Second

   83.26        2950.00           1222          46.00       168.27
   83.33        2950.25           1226          45.00       163.91
   83.36        2950.50           1229          48.00       176.98
   83.39        2950.75           1232          40.00       142.11
   83.42        2951.00           1236          44.00       159.55
   83.46        2951.25           1239          47.00       172.63
   83.49        2951.50           1242          51.00       190.06
   83.52        2951.75           1246          43.00       155.19
   83.55        2952.00           1249          46.00       168.27
   83.58        2952.25           1252          45.00       163.91
   83.61        2952.50           1256          46.00       168.27
   83.64        2952.75           1259          46.00       168.27
   83.67        2953.00           1262          42.00       150.83
   83.70        2953.25           1266          40.00       142.11
   83.73        2953.50           1269          47.00       172.63
   83.76        2953.75           1272          47.00       172.63
   83.80        2954.00           1276          41.00       146.47
   83.83        2954.25           1279          49.00       181.34
   83.86        2954.50           1282          48.00       176.98
   83.89        2954.75           1286          41.00       146.47
   83.92        2955.00           1289          55.00       207.50
   83.95        2955.25           1292          46.00       168.27
   83.98        2955.50           1296          46.00       168.27
   84.01        2955.75           1299          45.00       163.91
   84.04        2956.00           1302          44.00       159.55
   84.07        2956.25           1306          46.00       168.27
   84.10        2956.50           1309          44.00       159.55
   84.13        2956.75           1312          50.00       185.70
   84.17        2957.00           1316          51.00       190.06
   84.20        2957.25           1319          47.00       172.63
   84.23        2957.50           1322          52.00       194.42
   84.26        2957.75           1326          41.00       146.47
   84.29        2958.00           1329          53.00       198.78
   84.32        2958.25           1332          47.00       172.63
   84.35        2958.50           1336          47.00       172.63
   84.38        2958.75           1339          50.00       185.70
   84.41        2959.00           1342          47.00       172.63
   84.44        2959.25           1346          52.00       194.42
   84.47        2959.50           1349          55.00       207.50
   84.51        2959.75           1352          75.00       294.68
   84.54        2960.00           1356         101.00       408.03
   84.57        2960.25           1359         141.00       582.40
   84.60        2960.50           1362         198.00       830.88
   84.63        2960.75           1366         255.00      1079.37
   84.66        2961.00           1369         299.00      1271.19
   84.69        2961.25           1372         361.00      1541.48
   84.72        2961.50           1376         508.00      2182.36
   84.75        2961.75           1379         846.00      3656.02
   84.78        2962.00           1382        1671.00      7253.54
   84.82        2962.25           1386        3595.00     15646.40
   84.85        2962.50           1389        5219.00     22733.90
   84.88        2962.75           1392        6821.00     29728.34
   84.91        2963.00           1396        9145.00     39880.29
   84.94        2963.25           1399       11092.00     48390.17
   84.97        2963.50           1402       12817.00     55933.36
   85.00        2963.75           1406       15008.00     65519.25
   85.03        2964.00           1409       16957.00     74050.99
   85.06        2964.25           1412       18698.00     81675.91
   85.09        2964.50           1416       20990.00     91719.34
   85.13        2964.75           1419       22627.00     98896.29
   85.16        2965.00           1422       24539.00    107282.80
   85.19        2965.25           1426       26704.00    116784.20
   85.22        2965.50           1429       28618.00    125188.60
   85.25        2965.75           1432       30323.00    132678.80
   85.28        2966.00           1436       32569.00    142550.80
   85.31        2966.25           1439       34145.00    149481.40
   85.34        2966.50           1442       35744.00    156516.10
   85.37        2966.75           1446       37039.00    162215.60
   85.40        2967.00           1449       37070.00    162352.10
   85.43        2967.25           1452       37309.00    163404.10
   85.46        2967.50           1456       37168.00    162783.40
   85.49        2967.75           1459       36991.00    162004.30
   85.52        2968.00           1462       36624.00    160388.90
   85.56        2968.25           1466       35479.00    155350.10
   85.59        2968.50           1469       33508.00    146679.80
   85.62        2968.75           1472       31839.00    139341.50
   85.65        2969.00           1476       29642.00    129686.70
   85.68        2969.25           1479       27951.00    122259.30
   85.71        2969.50           1482       26095.00    114111.00
   85.74        2969.75           1486       23883.00    104405.00
   85.77        2970.00           1489       22160.00     96848.55
   85.80        2970.25           1492       20540.00     89746.98
   85.83        2970.50           1496       18472.00     80685.91
   85.87        2970.75           1499       16762.00     73197.18
   85.90        2971.00           1502       15037.00     65646.16
   85.93        2971.25           1506       12851.00     56082.07
   85.96        2971.50           1509       10945.00     47747.51
   85.99        2971.75           1513        8603.00     37512.11
   86.02        2972.00           1516        6830.00     29767.64
   86.05        2972.25           1519        5125.00     22323.58
   86.08        2972.50           1523        2970.00     12919.57
   86.11        2972.75           1526        1626.00      7057.29
   86.14        2973.00           1529         748.00      3228.73
   86.17        2973.25           1533         388.00      1659.19
   86.21        2973.50           1536         313.00      1332.22
   86.24        2973.75           1539         261.00      1105.53
   86.27        2974.00           1543         222.00       935.51
   86.30        2974.25           1546         160.00       665.23
   86.33        2974.50           1549         105.00       425.46
   86.36        2974.75           1553         102.00       412.39
   86.39        2975.00           1556          58.00       220.58
   86.42        2975.25           1559          51.00       190.06
   86.45        2975.50           1563          46.00       168.27
   86.48        2975.75           1566          57.00       216.22
   86.52        2976.00           1569          47.00       172.63
   86.55        2976.25           1573          51.00       190.06
   86.58        2976.50           1576          49.00       181.34
   86.61        2976.75           1579          41.00       146.47
   86.64        2977.00           1583          54.00       203.14
   86.67        2977.25           1586          48.00       176.98
   86.70        2977.50           1590          45.00       163.91
   86.73        2977.75           1593          47.00       172.63
   86.76        2978.00           1596          45.00       163.91
   86.79        2978.25           1600          44.00       159.55
   86.82        2978.50           1603          47.00       172.63
   86.86        2978.75           1606          43.00       155.19
   86.89        2979.00           1610          44.00       159.55
   86.92        2979.25           1613          48.00       176.98
   86.95        2979.50           1616          47.00       172.63
   86.98        2979.75           1620          45.00       163.91
   87.01        2980.00           1623          46.00       168.27
   87.04        2980.25           1626          49.00       181.34
   87.07        2980.50           1630          45.00       163.91
   87.10        2980.75           1633          53.00       198.78
   87.13        2981.00           1637          44.00       159.55
   87.17        2981.25           1640          44.00       159.55
   87.20        2981.50           1643          50.00       185.70
   87.23        2981.75           1647          44.00       159.55
   87.26        2982.00           1650          44.00       159.55
   87.29        2982.25           1653          48.00       176.98
   87.32        2982.50           1657          49.00       181.34
   87.35        2982.75           1660          43.00       155.19
   87.38        2983.00           1663          42.00       150.83
   87.41        2983.25           1667          45.00       163.91
   87.44        2983.50           1670          46.00       168.27
   87.47        2983.75           1673          47.00       172.63
   87.50        2984.00           1677          42.00       150.83
HS scan finished at 01:27:43
end
************************************************************
  HS Scan of (1) Internal mercury lamp
************************************************************
Integration time is 0.2294 seconds per sample
dh130517Manchester 53.47 2.23 2.804185pr1000
************************************************************
Dead Time -------------------------  3E-08 
Number of Cycles Used -------------  4 
Starting Wavelength (Angstroms) ---  2950 
Final Wavelength (Angstoms) -------  2984 
Wavelength Increment (Angstroms) --  .25 
Filter Wheel #1 Position ---------- (1) Ground quartz diffuser (ND=2.32)
Filter Wheel #2 Position ---------- (1) Neutral Density 0.494



************************************************************
HS scan start time = 21:11:58
Dark Count =  4.5 


Time (GMT)  Wavelength (Ang)  Step Number  Raw Counts  Counts/Second

 1272.34        2950.00           1222          45.00       176.55
 1272.41        2950.25           1226          44.00       172.19
 1272.44        2950.50           1229          45.00       176.55
 1272.47        2950.75           1232          46.00       180.91
 1272.50        2951.00           1236          50.00       198.34
 1272.53        2951.25           1239          44.00       172.19
 1272.56        2951.50           1242          44.00       172.19
 1272.59        2951.75           1246          55.00       220.14
 1272.63        2952.00           1249          43.00       167.83
 1272.66        2952.25           1252          47.00       185.27
 1272.69        2952.50           1256          43.00       167.83
 1272.72        2952.75           1259          47.00       185.27
 1272.75        2953.00           1262          46.00       180.91
 1272.78        2953.25           1266          38.00       146.03
 1272.81        2953.50           1269          42.00       163.47
 1272.84        2953.75           1272          40.00       154.75
 1272.87        2954.00           1276          46.00       180.91
 1272.90        2954.25           1279          45.00       176.55
 1272.93        2954.50           1282          41.00       159.11
 1272.97        2954.75           1286          43.00       167.83
 1273.00        2955.00           1289          43.00       167.83
 1273.03        2955.25           1292          47.00       185.27
 1273.06        2955.50           1296          48.00       189.63
 1273.09        2955.75           1299          45.00       176.55
 1273.12        2956.00           1302          47.00       185.27
 1273.15        2956.25           1306          44.00       172.19
 1273.18        2956.50           1309          47.00       185.27
 1273.21        2956.75           1312          48.00       189.63
 1273.24        2957.00           1316          47.00       185.27
 1273.27        2957.25           1319          41.00       159.11
 1273.30        2957.50           1322          43.00       167.83
 1273.33        2957.75           1326          45.00       176.55
 1273.37        2958.00           1329          45.00       176.55
 1273.40        2958.25           1332          45.00       176.55
 1273.43        2958.50           1336          48.00       189.63
 1273.46        2958.75           1339          48.00       189.63
 1273.49        2959.00           1342          48.00       189.63
 1273.52        2959.25           1346          57.00       228.86
 1273.55        2959.50           1349          66.00       268.09
 1273.58        2959.75           1352          65.00       263.73
 1273.61        2960.00           1356          97.00       403.23
 1273.64        2960.25           1359         140.00       590.68
 1273.67        2960.50           1362         172.00       730.18
 1273.70        2960.75           1366         237.00      1013.54
 1273.73        2961.00           1369         273.00      1170.49
 1273.77        2961.25           1372         320.00      1375.38
 1273.80        2961.50           1376         419.00      1806.99
 1273.83        2961.75           1379         618.00      2674.58
 1273.86        2962.00           1382        1353.00      5879.42
 1273.89        2962.25           1386        3174.00     13822.21
 1273.92        2962.50           1389        4774.00     20804.18
 1273.95        2962.75           1392        6275.00     27356.79
 1273.98        2963.00           1396        8584.00     37441.77
 1274.02        2963.25           1399       10107.00     44097.10
 1274.05        2963.50           1402       11833.00     51642.72
 1274.08        2963.75           1406       14193.00     61965.57
 1274.11        2964.00           1409       15985.00     69808.21
 1274.14        2964.25           1412       17934.00     78342.16
 1274.17        2964.50           1416       20096.00     87813.86
 1274.20        2964.75           1419       21705.00     94866.38
 1274.23        2965.00           1422       23469.00    102601.70
 1274.26        2965.25           1426       25688.00    112337.40
 1274.29        2965.50           1429       27291.00    119374.00
 1274.33        2965.75           1432       29001.00    126883.60
 1274.36        2966.00           1436       31211.00    136593.90
 1274.39        2966.25           1439       32877.00    143917.80
 1274.42        2966.50           1442       34503.00    151068.90
 1274.45        2966.75           1446       36049.00    157871.10
 1274.48        2967.00           1449       36757.00    160987.10
 1274.51        2967.25           1452       36865.00    161462.40
 1274.54        2967.50           1456       36770.00    161044.30
 1274.57        2967.75           1459       36728.00    160859.40
 1274.61        2968.00           1462       36476.00    159750.30
 1274.64        2968.25           1466       35579.00    155802.90
 1274.67        2968.50           1469       34306.00    150202.30
 1274.70        2968.75           1472       32943.00    144208.00
 1274.73        2969.00           1476       30714.00    134409.70
 1274.76        2969.25           1479       28987.00    126822.10
 1274.79        2969.50           1482       27064.00    118377.40
 1274.82        2969.75           1486       24860.00    108704.00
 1274.86        2970.00           1489       23004.00    100562.30
 1274.89        2970.25           1492       21462.00     93801.08
 1274.92        2970.50           1496       19224.00     83992.99
 1274.95        2970.75           1499       17492.00     76406.41
 1274.98        2971.00           1502       15800.00     68998.38
 1275.01        2971.25           1506       13487.00     58876.79
 1275.04        2971.50           1509       11758.00     51314.77
 1275.07        2971.75           1513        9640.00     42056.08
 1275.10        2972.00           1516        7940.00     34628.37
 1275.14        2972.25           1519        6300.00     27465.96
 1275.17        2972.50           1523        4157.00     18111.41
 1275.20        2972.75           1526        2545.00     11078.22
 1275.23        2973.00           1529        1242.00      5395.38
 1275.26        2973.25           1533         486.00      2099.09
 1275.29        2973.50           1536         351.00      1510.53
 1275.32        2973.75           1539         303.00      1301.27
 1275.35        2974.00           1543         251.00      1074.58
 1275.38        2974.25           1546         188.00       799.93
 1275.41        2974.50           1549         141.00       595.04
 1275.44        2974.75           1553          92.00       381.43
 1275.47        2975.00           1556          67.00       272.45
 1275.51        2975.25           1559          55.00       220.14
 1275.54        2975.50           1563          60.00       241.94
 1275.57        2975.75           1566          46.00       180.91
 1275.60        2976.00           1569          53.00       211.42
 1275.63        2976.25           1573          48.00       189.63
 1275.66        2976.50           1576          43.00       167.83
 1275.69        2976.75           1579          48.00       189.63
 1275.72        2977.00           1583          43.00       167.83
 1275.75        2977.25           1586          51.00       202.70
 1275.78        2977.50           1590          45.00       176.55
 1275.81        2977.75           1593          46.00       180.91
 1275.85        2978.00           1596          47.00       185.27
 1275.88        2978.25           1600          45.00       176.55
 1275.91        2978.50           1603          49.00       193.99
 1275.94        2978.75           1606          43.00       167.83
 1275.97        2979.00           1610          47.00       185.27
 1276.00        2979.25           1613          44.00       172.19
 1276.03        2979.50           1616          51.00       202.70
 1276.06        2979.75           1620          49.00       193.99
 1276.09        2980.00           1623          42.00       163.47
 1276.12        2980.25           1626          51.00       202.70
 1276.15        2980.50           1630          49.00       193.99
 1276.18        2980.75           1633          43.00       167.83
 1276.21        2981.00           1637          46.00       180.91
 1276.24        2981.25           1640          52.00       207.06
 1276.28        2981.50           1643          39.00       150.39
 1276.31        2981.75           1647          47.00       185.27
 1276.34        2982.00           1650          42.00       163.47
 1276.37        2982.25           1653          43.00       167.83
 1276.40        2982.50           1657          38.00       146.03
 1276.43        2982.75           1660          46.00       180.91
 1276.46        2983.00           1663          43.00       167.83
 1276.49        2983.25           1667          38.00       146.03
 1276.52        2983.50           1670          42.00       163.47
 1276.55        2983.75           1673          47.00       185.27
 1276.58        2984.00           1677          49.00       193.99
HS scan finished at 21:16:48
end
