************************************************************
  HS Scan of (1) Internal mercury lamp
************************************************************
Integration time is 0.2294 seconds per sample
dh120517Manchester 53.47 2.23 2.804185pr1000
************************************************************
Dead Time -------------------------  3E-08 
Number of Cycles Used -------------  4 
Starting Wavelength (Angstroms) ---  2950 
Final Wavelength (Angstoms) -------  2984 
Wavelength Increment (Angstroms) --  .25 
Filter Wheel #1 Position ---------- (1) Ground quartz diffuser (ND=2.32)
Filter Wheel #2 Position ---------- (1) Neutral Density 0.494



************************************************************
HS scan start time = 01:19:23
Dark Count =  5.2 


Time (GMT)  Wavelength (Ang)  Step Number  Raw Counts  Counts/Second

   79.75        2950.00           1222          55.00       217.09
   79.82        2950.25           1226          49.00       190.93
   79.85        2950.50           1229          46.00       177.86
   79.88        2950.75           1232          46.00       177.86
   79.91        2951.00           1236          49.00       190.93
   79.94        2951.25           1239          51.00       199.65
   79.97        2951.50           1242          35.00       129.90
   80.00        2951.75           1246          45.00       173.50
   80.04        2952.00           1249          44.00       169.14
   80.07        2952.25           1252          48.00       186.57
   80.10        2952.50           1256          44.00       169.14
   80.13        2952.75           1259          42.00       160.42
   80.16        2953.00           1262          49.00       190.93
   80.19        2953.25           1266          42.00       160.42
   80.22        2953.50           1269          48.00       186.57
   80.25        2953.75           1272          46.00       177.86
   80.28        2954.00           1276          50.00       195.29
   80.31        2954.25           1279          51.00       199.65
   80.34        2954.50           1282          51.00       199.65
   80.38        2954.75           1286          44.00       169.14
   80.41        2955.00           1289          42.00       160.42
   80.44        2955.25           1292          48.00       186.57
   80.47        2955.50           1296          43.00       164.78
   80.50        2955.75           1299          48.00       186.57
   80.53        2956.00           1302          54.00       212.73
   80.56        2956.25           1306          42.00       160.42
   80.59        2956.50           1309          42.00       160.42
   80.62        2956.75           1312          47.00       182.22
   80.65        2957.00           1316          46.00       177.86
   80.68        2957.25           1319          45.00       173.50
   80.72        2957.50           1322          47.00       182.22
   80.75        2957.75           1326          43.00       164.78
   80.78        2958.00           1329          44.00       169.14
   80.81        2958.25           1332          40.00       151.70
   80.84        2958.50           1336          41.00       156.06
   80.87        2958.75           1339          42.00       160.42
   80.90        2959.00           1342          51.00       199.65
   80.93        2959.25           1346          53.00       208.37
   80.96        2959.50           1349          75.00       304.27
   80.99        2959.75           1352          87.00       356.59
   81.02        2960.00           1356         128.00       535.32
   81.05        2960.25           1359         168.00       709.69
   81.08        2960.50           1362         217.00       923.30
   81.11        2960.75           1366         286.00      1224.11
   81.14        2961.00           1369         324.00      1389.77
   81.18        2961.25           1372         360.00      1546.72
   81.21        2961.50           1376         434.00      1869.33
   81.24        2961.75           1379         646.00      2793.61
   81.27        2962.00           1382        1186.00      5148.14
   81.30        2962.25           1386        2836.00     12344.59
   81.33        2962.50           1389        4568.00     19902.03
   81.36        2962.75           1392        6097.00     26576.54
   81.39        2963.00           1396        8332.00     36337.76
   81.42        2963.25           1399        9966.00     43477.78
   81.45        2963.50           1402       11630.00     50752.02
   81.48        2963.75           1406       14026.00     61231.82
   81.51        2964.00           1409       15655.00     68360.63
   81.55        2964.25           1412       17497.00     76425.25
   81.58        2964.50           1416       19707.00     86106.19
   81.61        2964.75           1419       21489.00     93916.38
   81.64        2965.00           1422       23137.00    101142.50
   81.67        2965.25           1426       25382.00    110991.50
   81.70        2965.50           1429       27105.00    118554.30
   81.73        2965.75           1432       28775.00    125887.80
   81.76        2966.00           1436       31126.00    136217.30
   81.79        2966.25           1439       32956.00    144262.10
   81.83        2966.50           1442       34597.00    151479.40
   81.86        2966.75           1446       36216.00    158602.90
   81.89        2967.00           1449       36759.00    160992.80
   81.92        2967.25           1452       36999.00    162049.20
   81.95        2967.50           1456       37074.00    162379.40
   81.98        2967.75           1459       36934.00    161763.10
   82.01        2968.00           1462       36932.00    161754.30
   82.04        2968.25           1466       36088.00    158039.60
   82.07        2968.50           1469       34907.00    152843.10
   82.10        2968.75           1472       33226.00    145449.30
   82.14        2969.00           1476       31074.00    135988.70
   82.17        2969.25           1479       29332.00    128334.50
   82.20        2969.50           1482       27546.00    120490.60
   82.23        2969.75           1486       25418.00    111149.40
   82.26        2970.00           1489       23614.00    103234.70
   82.29        2970.25           1492       22185.00     96967.81
   82.32        2970.50           1496       19960.00     87214.82
   82.35        2970.75           1499       18220.00     79591.75
   82.38        2971.00           1502       16597.00     72484.40
   82.42        2971.25           1506       14309.00     62470.07
   82.45        2971.50           1509       12516.00     54626.50
   82.48        2971.75           1513       10207.00     44531.12
   82.51        2972.00           1516        8548.00     37281.43
   82.54        2972.25           1519        6891.00     30043.63
   82.57        2972.50           1523        4769.00     20779.30
   82.60        2972.75           1526        3103.00     13509.40
   82.63        2973.00           1529        1603.00      6966.58
   82.66        2973.25           1533         517.00      2231.19
   82.70        2973.50           1536         337.00      1446.44
   82.73        2973.75           1539         272.00      1163.07
   82.76        2974.00           1543         223.00       949.46
   82.79        2974.25           1546         160.00       674.82
   82.82        2974.50           1549         116.00       483.01
   82.85        2974.75           1553          75.00       304.27
   82.88        2975.00           1556          60.00       238.89
   82.91        2975.25           1559          52.00       204.01
   82.94        2975.50           1563          46.00       177.86
   82.97        2975.75           1566          53.00       208.37
   83.00        2976.00           1569          52.00       204.01
   83.03        2976.25           1573          49.00       190.93
   83.07        2976.50           1576          46.00       177.86
   83.10        2976.75           1579          43.00       164.78
   83.13        2977.00           1583          43.00       164.78
   83.16        2977.25           1586          55.00       217.09
   83.19        2977.50           1590          47.00       182.22
   83.22        2977.75           1593          52.00       204.01
   83.25        2978.00           1596          53.00       208.37
   83.28        2978.25           1600          43.00       164.78
   83.31        2978.50           1603          49.00       190.93
   83.34        2978.75           1606          46.00       177.86
   83.37        2979.00           1610          46.00       177.86
   83.40        2979.25           1613          40.00       151.70
   83.43        2979.50           1616          45.00       173.50
   83.47        2979.75           1620          41.00       156.06
   83.50        2980.00           1623          53.00       208.37
   83.53        2980.25           1626          49.00       190.93
   83.56        2980.50           1630          38.00       142.98
   83.59        2980.75           1633          48.00       186.57
   83.62        2981.00           1637          41.00       156.06
   83.65        2981.25           1640          52.00       204.01
   83.68        2981.50           1643          43.00       164.78
   83.71        2981.75           1647          43.00       164.78
   83.74        2982.00           1650          49.00       190.93
   83.78        2982.25           1653          45.00       173.50
   83.81        2982.50           1657          36.00       134.26
   83.84        2982.75           1660          41.00       156.06
   83.87        2983.00           1663          40.00       151.70
   83.90        2983.25           1667          47.00       182.22
   83.93        2983.50           1670          49.00       190.93
   83.96        2983.75           1673          44.00       169.14
   83.99        2984.00           1677          43.00       164.78
HS scan finished at 01:24:12
end
************************************************************
  HS Scan of (1) Internal mercury lamp
************************************************************
Integration time is 0.2294 seconds per sample
dh120517Manchester 53.47 2.23 2.804185pr1000
************************************************************
Dead Time -------------------------  3E-08 
Number of Cycles Used -------------  4 
Starting Wavelength (Angstroms) ---  2950 
Final Wavelength (Angstoms) -------  2984 
Wavelength Increment (Angstroms) --  .25 
Filter Wheel #1 Position ---------- (1) Ground quartz diffuser (ND=2.32)
Filter Wheel #2 Position ---------- (1) Neutral Density 0.494



************************************************************
HS scan start time = 21:12:06
Dark Count =  6.9 


Time (GMT)  Wavelength (Ang)  Step Number  Raw Counts  Counts/Second

 1272.47        2950.00           1222          39.00       139.93
 1272.53        2950.25           1226          49.00       183.52
 1272.56        2950.50           1229          36.00       126.85
 1272.59        2950.75           1232          55.00       209.68
 1272.62        2951.00           1236          44.00       161.73
 1272.66        2951.25           1239          47.00       174.80
 1272.69        2951.50           1242          39.00       139.93
 1272.72        2951.75           1246          48.00       179.16
 1272.75        2952.00           1249          41.00       148.65
 1272.78        2952.25           1252          50.00       187.88
 1272.81        2952.50           1256          50.00       187.88
 1272.84        2952.75           1259          63.00       244.55
 1272.87        2953.00           1262          48.00       179.16
 1272.90        2953.25           1266          50.00       187.88
 1272.93        2953.50           1269          44.00       161.73
 1272.96        2953.75           1272          50.00       187.88
 1272.99        2954.00           1276          47.00       174.80
 1273.03        2954.25           1279          47.00       174.80
 1273.06        2954.50           1282          48.00       179.16
 1273.09        2954.75           1286          44.00       161.73
 1273.12        2955.00           1289          62.00       240.19
 1273.15        2955.25           1292          44.00       161.73
 1273.18        2955.50           1296          41.00       148.65
 1273.21        2955.75           1299          45.00       166.09
 1273.24        2956.00           1302          49.00       183.52
 1273.27        2956.25           1306          45.00       166.09
 1273.30        2956.50           1309          37.00       131.21
 1273.33        2956.75           1312          47.00       174.80
 1273.36        2957.00           1316          47.00       174.80
 1273.39        2957.25           1319          47.00       174.80
 1273.43        2957.50           1322          50.00       187.88
 1273.46        2957.75           1326          44.00       161.73
 1273.49        2958.00           1329          54.00       205.32
 1273.52        2958.25           1332          40.00       144.29
 1273.55        2958.50           1336          45.00       166.09
 1273.58        2958.75           1339          43.00       157.37
 1273.61        2959.00           1342          47.00       174.80
 1273.64        2959.25           1346          48.00       179.16
 1273.67        2959.50           1349          64.00       248.91
 1273.70        2959.75           1352          85.00       340.46
 1273.73        2960.00           1356         112.00       458.16
 1273.76        2960.25           1359         151.00       628.17
 1273.79        2960.50           1362         193.00       811.27
 1273.83        2960.75           1366         255.00      1081.55
 1273.86        2961.00           1369         298.00      1269.01
 1273.89        2961.25           1372         331.00      1412.88
 1273.92        2961.50           1376         457.00      1962.19
 1273.95        2961.75           1379         770.00      3326.84
 1273.98        2962.00           1382        1619.00      7028.95
 1274.01        2962.25           1386        3512.00     15286.44
 1274.04        2962.50           1389        5066.00     22068.22
 1274.07        2962.75           1392        6695.00     29180.29
 1274.10        2963.00           1396        9008.00     39283.85
 1274.13        2963.25           1399       10698.00     46669.92
 1274.16        2963.50           1402       12404.00     54129.24
 1274.19        2963.75           1406       14667.00     64029.15
 1274.23        2964.00           1409       16414.00     71675.75
 1274.26        2964.25           1412       18191.00     79457.28
 1274.29        2964.50           1416       20426.00     89249.54
 1274.32        2964.75           1419       22128.00     96710.43
 1274.35        2965.00           1422       23758.00    103858.90
 1274.38        2965.25           1426       26107.00    114165.90
 1274.41        2965.50           1429       27728.00    121282.20
 1274.44        2965.75           1432       29474.00    128950.80
 1274.47        2966.00           1436       31958.00    139866.80
 1274.51        2966.25           1439       33442.00    146391.80
 1274.54        2966.50           1442       34885.00    152738.80
 1274.57        2966.75           1446       36466.00    159695.70
 1274.60        2967.00           1449       36642.00    160470.30
 1274.63        2967.25           1452       36837.00    161328.60
 1274.66        2967.50           1456       36713.00    160782.90
 1274.69        2967.75           1459       36674.00    160611.20
 1274.72        2968.00           1462       36511.00    159893.80
 1274.75        2968.25           1466       35615.00    155950.70
 1274.79        2968.50           1469       34060.00    149109.80
 1274.82        2968.75           1472       32440.00    141985.80
 1274.85        2969.00           1476       29965.00    131108.00
 1274.88        2969.25           1479       28231.00    123491.10
 1274.91        2969.50           1482       26659.00    116588.90
 1274.94        2969.75           1486       24281.00    106153.10
 1274.97        2970.00           1489       22739.00     99389.64
 1275.00        2970.25           1492       21097.00     92190.55
 1275.03        2970.50           1496       19193.00     83846.65
 1275.07        2970.75           1499       17309.00     75594.53
 1275.10        2971.00           1502       15572.00     67989.90
 1275.13        2971.25           1506       13309.00     58087.62
 1275.16        2971.50           1509       11513.00     50233.01
 1275.19        2971.75           1513        9292.00     40524.83
 1275.22        2972.00           1516        7488.00     32643.55
 1275.25        2972.25           1519        5879.00     25617.33
 1275.28        2972.50           1523        3692.00     16071.83
 1275.31        2972.75           1526        2199.00      9558.54
 1275.34        2973.00           1529        1029.00      4456.13
 1275.37        2973.25           1533         461.00      1979.63
 1275.40        2973.50           1536         345.00      1473.91
 1275.43        2973.75           1539         296.00      1260.29
 1275.46        2974.00           1543         242.00      1024.88
 1275.50        2974.25           1546         165.00       689.20
 1275.53        2974.50           1549         129.00       532.27
 1275.56        2974.75           1553          84.00       336.10
 1275.59        2975.00           1556          71.00       279.43
 1275.62        2975.25           1559          69.00       270.71
 1275.65        2975.50           1563          50.00       187.88
 1275.68        2975.75           1566          50.00       187.88
 1275.71        2976.00           1569          39.00       139.93
 1275.74        2976.25           1573          44.00       161.73
 1275.78        2976.50           1576          49.00       183.52
 1275.81        2976.75           1579          41.00       148.65
 1275.84        2977.00           1583          40.00       144.29
 1275.87        2977.25           1586          46.00       170.45
 1275.90        2977.50           1590          41.00       148.65
 1275.93        2977.75           1593          44.00       161.73
 1275.96        2978.00           1596          37.00       131.21
 1275.99        2978.25           1600          44.00       161.73
 1276.02        2978.50           1603          50.00       187.88
 1276.05        2978.75           1606          40.00       144.29
 1276.08        2979.00           1610          54.00       205.32
 1276.11        2979.25           1613          44.00       161.73
 1276.14        2979.50           1616          47.00       174.80
 1276.18        2979.75           1620          47.00       174.80
 1276.21        2980.00           1623          46.00       170.45
 1276.24        2980.25           1626          46.00       170.45
 1276.27        2980.50           1630          46.00       170.45
 1276.30        2980.75           1633          57.00       218.40
 1276.33        2981.00           1637          47.00       174.80
 1276.36        2981.25           1640          48.00       179.16
 1276.39        2981.50           1643          44.00       161.73
 1276.42        2981.75           1647          46.00       170.45
 1276.45        2982.00           1650          42.00       153.01
 1276.48        2982.25           1653          37.00       131.21
 1276.51        2982.50           1657          43.00       157.37
 1276.55        2982.75           1660          48.00       179.16
 1276.58        2983.00           1663          45.00       166.09
 1276.61        2983.25           1667          45.00       166.09
 1276.64        2983.50           1670          50.00       187.88
 1276.67        2983.75           1673          40.00       144.29
 1276.70        2984.00           1677          43.00       157.37
HS scan finished at 21:16:55
end
