************************************************************
  HS Scan of (1) Internal mercury lamp
************************************************************
Integration time is 0.2294 seconds per sample
dh140517Manchester 53.47 2.23 2.804185pr1000
************************************************************
Dead Time -------------------------  3E-08 
Number of Cycles Used -------------  4 
Starting Wavelength (Angstroms) ---  2950 
Final Wavelength (Angstoms) -------  2984 
Wavelength Increment (Angstroms) --  .25 
Filter Wheel #1 Position ---------- (1) Ground quartz diffuser (ND=2.32)
Filter Wheel #2 Position ---------- (1) Neutral Density 0.494



************************************************************
HS scan start time = 01:33:26
Dark Count =  5.6 


Time (GMT)  Wavelength (Ang)  Step Number  Raw Counts  Counts/Second

   93.80        2950.00           1222          38.00       141.24
   93.87        2950.25           1226          55.00       215.35
   93.90        2950.50           1229          46.00       176.11
   93.93        2950.75           1232          44.00       167.39
   93.96        2951.00           1236          51.00       197.91
   93.99        2951.25           1239          45.00       171.75
   94.02        2951.50           1242          44.00       167.39
   94.05        2951.75           1246          44.00       167.39
   94.08        2952.00           1249          46.00       176.11
   94.11        2952.25           1252          43.00       163.03
   94.14        2952.50           1256          40.00       149.96
   94.17        2952.75           1259          43.00       163.03
   94.20        2953.00           1262          46.00       176.11
   94.24        2953.25           1266          49.00       189.19
   94.27        2953.50           1269          45.00       171.75
   94.30        2953.75           1272          43.00       163.03
   94.33        2954.00           1276          44.00       167.39
   94.36        2954.25           1279          44.00       167.39
   94.39        2954.50           1282          47.00       180.47
   94.42        2954.75           1286          49.00       189.19
   94.45        2955.00           1289          39.00       145.60
   94.48        2955.25           1292          46.00       176.11
   94.51        2955.50           1296          40.00       149.96
   94.54        2955.75           1299          50.00       193.55
   94.57        2956.00           1302          47.00       180.47
   94.60        2956.25           1306          47.00       180.47
   94.64        2956.50           1309          42.00       158.68
   94.67        2956.75           1312          46.00       176.11
   94.70        2957.00           1316          43.00       163.03
   94.73        2957.25           1319          41.00       154.32
   94.76        2957.50           1322          50.00       193.55
   94.79        2957.75           1326          45.00       171.75
   94.82        2958.00           1329          43.00       163.03
   94.85        2958.25           1332          54.00       210.99
   94.88        2958.50           1336          45.00       171.75
   94.91        2958.75           1339          47.00       180.47
   94.94        2959.00           1342          45.00       171.75
   94.97        2959.25           1346          49.00       189.19
   95.00        2959.50           1349          53.00       206.63
   95.03        2959.75           1352          60.00       237.14
   95.07        2960.00           1356          93.00       381.00
   95.10        2960.25           1359         118.00       489.98
   95.13        2960.50           1362         147.00       616.40
   95.16        2960.75           1366         204.00       864.89
   95.19        2961.00           1369         257.00      1095.94
   95.22        2961.25           1372         306.00      1309.55
   95.25        2961.50           1376         385.00      1653.96
   95.28        2961.75           1379         592.00      2556.43
   95.31        2962.00           1382        1187.00      5150.75
   95.34        2962.25           1386        2870.00     12491.17
   95.37        2962.50           1389        4450.00     19385.29
   95.40        2962.75           1392        6013.00     26208.04
   95.43        2963.00           1396        8177.00     35658.88
   95.47        2963.25           1399        9990.00     43580.92
   95.50        2963.50           1402       11900.00     51930.89
   95.53        2963.75           1406       14158.00     61807.62
   95.56        2964.00           1409       15912.00     69483.84
   95.59        2964.25           1412       17705.00     77334.40
   95.62        2964.50           1416       20075.00     87717.02
   95.65        2964.75           1419       21736.00     94997.47
   95.68        2965.00           1422       23207.00    101447.80
   95.71        2965.25           1426       25707.00    112416.00
   95.74        2965.50           1429       27398.00    119839.00
   95.77        2965.75           1432       29067.00    127168.60
   95.81        2966.00           1436       31208.00    136575.90
   95.84        2966.25           1439       32836.00    143732.60
   95.87        2966.50           1442       34375.00    150501.00
   95.90        2966.75           1446       36138.00    158257.90
   95.93        2967.00           1449       36467.00    159705.80
   95.96        2967.25           1452       36723.00    160832.60
   95.99        2967.50           1456       36691.00    160691.70
   96.02        2967.75           1459       36571.00    160163.50
   96.06        2968.00           1462       36501.00    159855.50
   96.09        2968.25           1466       35502.00    155459.20
   96.12        2968.50           1469       34240.00    149907.20
   96.15        2968.75           1472       32737.00    143297.40
   96.18        2969.00           1476       30466.00    133315.10
   96.21        2969.25           1479       29020.00    126962.20
   96.24        2969.50           1482       27150.00    118750.10
   96.27        2969.75           1486       24876.00    108769.30
   96.30        2970.00           1489       23112.00    101031.10
   96.33        2970.25           1492       21517.00     94037.38
   96.36        2970.50           1496       19377.00     84658.51
   96.40        2970.75           1499       17728.00     77435.13
   96.43        2971.00           1502       15959.00     69689.58
   96.46        2971.25           1506       13755.00     60044.42
   96.49        2971.50           1509       11989.00     52320.07
   96.52        2971.75           1513        9892.00     43152.61
   96.55        2972.00           1516        8263.00     36034.58
   96.58        2972.25           1519        6470.00     28203.45
   96.61        2972.50           1523        4239.00     18464.45
   96.64        2972.75           1526        2733.00     11893.52
   96.67        2973.00           1529        1375.00      5970.56
   96.70        2973.25           1533         585.00      2525.91
   96.73        2973.50           1536         411.00      1767.31
   96.76        2973.75           1539         326.00      1396.75
   96.79        2974.00           1543         278.00      1187.49
   96.82        2974.25           1546         219.00       930.28
   96.86        2974.50           1549         164.00       690.51
   96.89        2974.75           1553         118.00       489.98
   96.92        2975.00           1556          86.00       350.48
   96.95        2975.25           1559          73.00       293.81
   96.98        2975.50           1563          53.00       206.63
   97.01        2975.75           1566          46.00       176.11
   97.04        2976.00           1569          58.00       228.42
   97.07        2976.25           1573          53.00       206.63
   97.10        2976.50           1576          43.00       163.03
   97.13        2976.75           1579          50.00       193.55
   97.16        2977.00           1583          45.00       171.75
   97.19        2977.25           1586          48.00       184.83
   97.22        2977.50           1590          44.00       167.39
   97.25        2977.75           1593          46.00       176.11
   97.29        2978.00           1596          45.00       171.75
   97.32        2978.25           1600          49.00       189.19
   97.35        2978.50           1603          44.00       167.39
   97.38        2978.75           1606          47.00       180.47
   97.41        2979.00           1610          47.00       180.47
   97.44        2979.25           1613          47.00       180.47
   97.47        2979.50           1616          45.00       171.75
   97.50        2979.75           1620          50.00       193.55
   97.53        2980.00           1623          48.00       184.83
   97.56        2980.25           1626          43.00       163.03
   97.59        2980.50           1630          40.00       149.96
   97.63        2980.75           1633          49.00       189.19
   97.66        2981.00           1637          47.00       180.47
   97.69        2981.25           1640          52.00       202.27
   97.72        2981.50           1643          53.00       206.63
   97.75        2981.75           1647          46.00       176.11
   97.78        2982.00           1650          48.00       184.83
   97.81        2982.25           1653          48.00       184.83
   97.84        2982.50           1657          41.00       154.32
   97.87        2982.75           1660          45.00       171.75
   97.90        2983.00           1663          46.00       176.11
   97.93        2983.25           1667          40.00       149.96
   97.96        2983.50           1670          42.00       158.68
   97.99        2983.75           1673          46.00       176.11
   98.03        2984.00           1677          43.00       163.03
HS scan finished at 01:38:15
end
************************************************************
  HS Scan of (1) Internal mercury lamp
************************************************************
Integration time is 0.2294 seconds per sample
dh140517Manchester 53.47 2.23 2.804185pr1000
************************************************************
Dead Time -------------------------  3E-08 
Number of Cycles Used -------------  4 
Starting Wavelength (Angstroms) ---  2950 
Final Wavelength (Angstoms) -------  2984 
Wavelength Increment (Angstroms) --  .25 
Filter Wheel #1 Position ---------- (1) Ground quartz diffuser (ND=2.32)
Filter Wheel #2 Position ---------- (1) Neutral Density 0.494



************************************************************
HS scan start time = 21:12:05
Dark Count =  6.7 


Time (GMT)  Wavelength (Ang)  Step Number  Raw Counts  Counts/Second

 1272.46        2950.00           1222          40.00       145.16
 1272.52        2950.25           1226          51.00       193.11
 1272.55        2950.50           1229          48.00       180.04
 1272.59        2950.75           1232          39.00       140.80
 1272.62        2951.00           1236          43.00       158.24
 1272.65        2951.25           1239          44.00       162.60
 1272.68        2951.50           1242          50.00       188.75
 1272.71        2951.75           1246          43.00       158.24
 1272.74        2952.00           1249          45.00       166.96
 1272.77        2952.25           1252          46.00       171.32
 1272.80        2952.50           1256          43.00       158.24
 1272.83        2952.75           1259          50.00       188.75
 1272.87        2953.00           1262          44.00       162.60
 1272.90        2953.25           1266          42.00       153.88
 1272.93        2953.50           1269          43.00       158.24
 1272.96        2953.75           1272          53.00       201.83
 1272.99        2954.00           1276          54.00       206.19
 1273.02        2954.25           1279          44.00       162.60
 1273.05        2954.50           1282          46.00       171.32
 1273.08        2954.75           1286          47.00       175.68
 1273.11        2955.00           1289          46.00       171.32
 1273.14        2955.25           1292          43.00       158.24
 1273.17        2955.50           1296          47.00       175.68
 1273.20        2955.75           1299          50.00       188.75
 1273.24        2956.00           1302          44.00       162.60
 1273.27        2956.25           1306          51.00       193.11
 1273.30        2956.50           1309          47.00       175.68
 1273.33        2956.75           1312          43.00       158.24
 1273.36        2957.00           1316          47.00       175.68
 1273.39        2957.25           1319          45.00       166.96
 1273.42        2957.50           1322          41.00       149.52
 1273.45        2957.75           1326          53.00       201.83
 1273.48        2958.00           1329          40.00       145.16
 1273.51        2958.25           1332          45.00       166.96
 1273.54        2958.50           1336          49.00       184.40
 1273.57        2958.75           1339          49.00       184.40
 1273.60        2959.00           1342          45.00       166.96
 1273.64        2959.25           1346          48.00       180.04
 1273.67        2959.50           1349          56.00       214.91
 1273.70        2959.75           1352          69.00       271.58
 1273.73        2960.00           1356         108.00       441.59
 1273.76        2960.25           1359         137.00       568.01
 1273.79        2960.50           1362         171.00       716.23
 1273.82        2960.75           1366         228.00       964.72
 1273.85        2961.00           1369         280.00      1191.41
 1273.88        2961.25           1372         304.00      1296.04
 1273.91        2961.50           1376         404.00      1732.00
 1273.95        2961.75           1379         547.00      2355.44
 1273.98        2962.00           1382        1044.00      4522.41
 1274.01        2962.25           1386        2519.00     10955.21
 1274.04        2962.50           1389        4072.00     17730.88
 1274.07        2962.75           1392        5704.00     24854.18
 1274.10        2963.00           1396        8086.00     35256.54
 1274.13        2963.25           1399        9928.00     43305.14
 1274.16        2963.50           1402       11452.00     49967.17
 1274.19        2963.75           1406       13519.00     59007.15
 1274.22        2964.00           1409       15441.00     67417.38
 1274.26        2964.25           1412       17111.00     74728.38
 1274.29        2964.50           1416       19467.00     85048.02
 1274.32        2964.75           1419       21034.00     91915.27
 1274.35        2965.00           1422       22790.00     99614.16
 1274.38        2965.25           1426       25152.00    109975.60
 1274.41        2965.50           1429       26855.00    117450.20
 1274.44        2965.75           1432       28589.00    125064.30
 1274.47        2966.00           1436       30728.00    134461.60
 1274.50        2966.25           1439       32347.00    141577.80
 1274.53        2966.50           1442       33926.00    148521.20
 1274.57        2966.75           1446       35484.00    155375.10
 1274.60        2967.00           1449       36391.00    159366.50
 1274.63        2967.25           1452       36532.00    159987.10
 1274.66        2967.50           1456       36440.00    159582.10
 1274.69        2967.75           1459       36451.00    159630.60
 1274.72        2968.00           1462       36187.00    158468.70
 1274.75        2968.25           1466       35588.00    155832.80
 1274.78        2968.50           1469       34498.00    151037.20
 1274.81        2968.75           1472       32743.00    143318.90
 1274.85        2969.00           1476       30589.00    133850.70
 1274.88        2969.25           1479       28952.00    126658.70
 1274.91        2969.50           1482       27244.00    119158.00
 1274.94        2969.75           1486       24795.00    108409.10
 1274.97        2970.00           1489       23249.00    101627.20
 1275.00        2970.25           1492       21736.00     94992.66
 1275.03        2970.50           1496       19421.00     84846.48
 1275.06        2970.75           1499       17899.00     78179.24
 1275.09        2971.00           1502       16319.00     71260.74
 1275.12        2971.25           1506       14231.00     62122.21
 1275.16        2971.50           1509       12368.00     53972.68
 1275.19        2971.75           1513       10101.00     44061.26
 1275.22        2972.00           1516        8462.00     36899.15
 1275.25        2972.25           1519        6576.00     28661.51
 1275.28        2972.50           1523        4403.00     19175.37
 1275.31        2972.75           1526        2920.00     12704.49
 1275.34        2973.00           1529        1540.00      6685.30
 1275.37        2973.25           1533         550.00      2368.52
 1275.40        2973.50           1536         362.00      1548.90
 1275.43        2973.75           1539         294.00      1252.44
 1275.47        2974.00           1543         210.00       886.25
 1275.50        2974.25           1546         175.00       733.67
 1275.53        2974.50           1549         141.00       585.45
 1275.56        2974.75           1553          79.00       315.17
 1275.59        2975.00           1556          62.00       241.07
 1275.62        2975.25           1559          58.00       223.63
 1275.65        2975.50           1563          48.00       180.04
 1275.68        2975.75           1566          52.00       197.47
 1275.71        2976.00           1569          46.00       171.32
 1275.74        2976.25           1573          52.00       197.47
 1275.78        2976.50           1576          51.00       193.11
 1275.81        2976.75           1579          47.00       175.68
 1275.84        2977.00           1583          42.00       153.88
 1275.87        2977.25           1586          52.00       197.47
 1275.90        2977.50           1590          49.00       184.40
 1275.93        2977.75           1593          54.00       206.19
 1275.96        2978.00           1596          42.00       153.88
 1275.99        2978.25           1600          44.00       162.60
 1276.02        2978.50           1603          46.00       171.32
 1276.05        2978.75           1606          38.00       136.44
 1276.08        2979.00           1610          54.00       206.19
 1276.11        2979.25           1613          49.00       184.40
 1276.14        2979.50           1616          55.00       210.55
 1276.18        2979.75           1620          36.00       127.72
 1276.21        2980.00           1623          43.00       158.24
 1276.24        2980.25           1626          50.00       188.75
 1276.27        2980.50           1630          38.00       136.44
 1276.30        2980.75           1633          45.00       166.96
 1276.33        2981.00           1637          42.00       153.88
 1276.36        2981.25           1640          46.00       171.32
 1276.39        2981.50           1643          35.00       123.37
 1276.42        2981.75           1647          44.00       162.60
 1276.45        2982.00           1650          51.00       193.11
 1276.49        2982.25           1653          39.00       140.80
 1276.52        2982.50           1657          44.00       162.60
 1276.55        2982.75           1660          42.00       153.88
 1276.58        2983.00           1663          46.00       171.32
 1276.61        2983.25           1667          44.00       162.60
 1276.64        2983.50           1670          44.00       162.60
 1276.67        2983.75           1673          43.00       158.24
 1276.70        2984.00           1677          48.00       180.04
HS scan finished at 21:16:55
end
