************************************************************
  HS Scan of (1) Internal mercury lamp
************************************************************
Integration time is 0.2294 seconds per sample
dh170517Manchester 53.47 2.23 2.804185pr1000
************************************************************
Dead Time -------------------------  3E-08 
Number of Cycles Used -------------  4 
Starting Wavelength (Angstroms) ---  2950 
Final Wavelength (Angstoms) -------  2984 
Wavelength Increment (Angstroms) --  .25 
Filter Wheel #1 Position ---------- (1) Ground quartz diffuser (ND=2.32)
Filter Wheel #2 Position ---------- (1) Neutral Density 0.494



************************************************************
HS scan start time = 02:09:39
Dark Count =  5.5 


Time (GMT)  Wavelength (Ang)  Step Number  Raw Counts  Counts/Second

  130.02        2950.00           1222          41.00       154.75
  130.09        2950.25           1226          46.00       176.55
  130.12        2950.50           1229          45.00       172.19
  130.15        2950.75           1232          54.00       211.42
  130.18        2951.00           1236          49.00       189.63
  130.21        2951.25           1239          46.00       176.55
  130.24        2951.50           1242          46.00       176.55
  130.27        2951.75           1246          48.00       185.27
  130.30        2952.00           1249          39.00       146.03
  130.33        2952.25           1252          38.00       141.67
  130.36        2952.50           1256          49.00       189.63
  130.39        2952.75           1259          44.00       167.83
  130.43        2953.00           1262          44.00       167.83
  130.46        2953.25           1266          47.00       180.91
  130.49        2953.50           1269          51.00       198.34
  130.52        2953.75           1272          41.00       154.75
  130.55        2954.00           1276          48.00       185.27
  130.58        2954.25           1279          50.00       193.99
  130.61        2954.50           1282          47.00       180.91
  130.64        2954.75           1286          47.00       180.91
  130.67        2955.00           1289          42.00       159.11
  130.70        2955.25           1292          45.00       172.19
  130.73        2955.50           1296          41.00       154.75
  130.76        2955.75           1299          48.00       185.27
  130.79        2956.00           1302          39.00       146.03
  130.83        2956.25           1306          49.00       189.63
  130.86        2956.50           1309          48.00       185.27
  130.89        2956.75           1312          42.00       159.11
  130.92        2957.00           1316          52.00       202.70
  130.95        2957.25           1319          45.00       172.19
  130.98        2957.50           1322          42.00       159.11
  131.01        2957.75           1326          41.00       154.75
  131.04        2958.00           1329          43.00       163.47
  131.07        2958.25           1332          48.00       185.27
  131.10        2958.50           1336          49.00       189.63
  131.13        2958.75           1339          45.00       172.19
  131.16        2959.00           1342          45.00       172.19
  131.20        2959.25           1346          46.00       176.55
  131.23        2959.50           1349          62.00       246.30
  131.26        2959.75           1352          75.00       302.97
  131.29        2960.00           1356         100.00       411.95
  131.32        2960.25           1359         144.00       603.76
  131.35        2960.50           1362         170.00       717.10
  131.38        2960.75           1366         241.00      1026.62
  131.41        2961.00           1369         287.00      1227.16
  131.44        2961.25           1372         321.00      1375.38
  131.47        2961.50           1376         477.00      2055.49
  131.50        2961.75           1379         863.00      3738.43
  131.53        2962.00           1382        1869.00      8125.35
  131.56        2962.25           1386        4134.00     18006.67
  131.60        2962.50           1389        5744.00     25034.05
  131.63        2962.75           1392        7326.00     31942.10
  131.66        2963.00           1396        9683.00     42239.64
  131.69        2963.25           1399       11338.00     49473.99
  131.72        2963.50           1402       12953.00     56536.53
  131.75        2963.75           1406       15246.00     66569.16
  131.78        2964.00           1409       17025.00     74357.05
  131.81        2964.25           1412       18795.00     82109.16
  131.84        2964.50           1416       21069.00     92073.94
  131.87        2964.75           1419       22713.00     99281.75
  131.90        2965.00           1422       24499.00    107115.70
  131.94        2965.25           1426       26966.00    117942.70
  131.97        2965.50           1429       28662.00    125390.20
  132.00        2965.75           1432       30350.00    132805.80
  132.03        2966.00           1436       32692.00    143099.90
  132.06        2966.25           1439       34354.00    150409.10
  132.09        2966.50           1442       35640.00    156066.90
  132.12        2966.75           1446       36817.00    161246.80
  132.15        2967.00           1449       37214.00    162994.30
  132.18        2967.25           1452       37121.00    162584.90
  132.22        2967.50           1456       37118.00    162571.70
  132.25        2967.75           1459       36887.00    161554.90
  132.28        2968.00           1462       36635.00    160445.70
  132.31        2968.25           1466       35233.00    154276.00
  132.34        2968.50           1469       33581.00    147009.20
  132.37        2968.75           1472       32029.00    140185.10
  132.40        2969.00           1476       29549.00    129286.50
  132.43        2969.25           1479       28080.00    122834.10
  132.46        2969.50           1482       26315.00    115085.00
  132.49        2969.75           1486       24108.00    105400.30
  132.52        2970.00           1489       22540.00     98523.12
  132.55        2970.25           1492       20851.00     91118.40
  132.59        2970.50           1496       18729.00     81820.03
  132.62        2970.75           1499       16953.00     74041.79
  132.65        2971.00           1502       15073.00     65812.03
  132.68        2971.25           1506       12712.00     55482.42
  132.71        2971.50           1509       10975.00     47886.97
  132.74        2971.75           1513        8840.00     38555.91
  132.77        2972.00           1516        7027.00     30636.25
  132.80        2972.25           1519        5311.00     23143.79
  132.83        2972.50           1523        3101.00     13499.36
  132.86        2972.75           1526        1689.00      7340.33
  132.90        2973.00           1529         749.00      3241.38
  132.93        2973.25           1533         422.00      1815.70
  132.96        2973.50           1536         324.00      1388.46
  132.99        2973.75           1539         283.00      1209.72
  133.02        2974.00           1543         239.00      1017.90
  133.05        2974.25           1546         167.00       704.03
  133.08        2974.50           1549         124.00       516.57
  133.11        2974.75           1553          82.00       333.48
  133.14        2975.00           1556          69.00       276.81
  133.17        2975.25           1559          50.00       193.99
  133.20        2975.50           1563          52.00       202.70
  133.23        2975.75           1566          42.00       159.11
  133.26        2976.00           1569          53.00       207.06
  133.29        2976.25           1573          52.00       202.70
  133.32        2976.50           1576          48.00       185.27
  133.36        2976.75           1579          46.00       176.55
  133.39        2977.00           1583          43.00       163.47
  133.42        2977.25           1586          45.00       172.19
  133.45        2977.50           1590          56.00       220.14
  133.48        2977.75           1593          44.00       167.83
  133.51        2978.00           1596          45.00       172.19
  133.54        2978.25           1600          47.00       180.91
  133.57        2978.50           1603          42.00       159.11
  133.60        2978.75           1606          43.00       163.47
  133.63        2979.00           1610          36.00       132.96
  133.66        2979.25           1613          41.00       154.75
  133.69        2979.50           1616          46.00       176.55
  133.73        2979.75           1620          44.00       167.83
  133.76        2980.00           1623          51.00       198.34
  133.79        2980.25           1626          43.00       163.47
  133.82        2980.50           1630          41.00       154.75
  133.85        2980.75           1633          44.00       167.83
  133.88        2981.00           1637          42.00       159.11
  133.91        2981.25           1640          44.00       167.83
  133.94        2981.50           1643          50.00       193.99
  133.97        2981.75           1647          44.00       167.83
  134.00        2982.00           1650          48.00       185.27
  134.03        2982.25           1653          47.00       180.91
  134.06        2982.50           1657          53.00       207.06
  134.09        2982.75           1660          41.00       154.75
  134.12        2983.00           1663          40.00       150.39
  134.16        2983.25           1667          46.00       176.55
  134.19        2983.50           1670          47.00       180.91
  134.22        2983.75           1673          41.00       154.75
  134.25        2984.00           1677          47.00       180.91
HS scan finished at 02:14:28
end
************************************************************
  HS Scan of (1) Internal mercury lamp
************************************************************
Integration time is 0.2294 seconds per sample
dh170517Manchester 53.47 2.23 2.804185pr1000
************************************************************
Dead Time -------------------------  3E-08 
Number of Cycles Used -------------  4 
Starting Wavelength (Angstroms) ---  2950 
Final Wavelength (Angstoms) -------  2984 
Wavelength Increment (Angstroms) --  .25 
Filter Wheel #1 Position ---------- (1) Ground quartz diffuser (ND=2.32)
Filter Wheel #2 Position ---------- (1) Neutral Density 0.494



************************************************************
HS scan start time = 20:49:14
Dark Count =  7 


Time (GMT)  Wavelength (Ang)  Step Number  Raw Counts  Counts/Second

 1249.61        2950.00           1222          42.00       152.57
 1249.68        2950.25           1226          45.00       165.65
 1249.71        2950.50           1229          45.00       165.65
 1249.74        2950.75           1232          47.00       174.37
 1249.77        2951.00           1236          47.00       174.37
 1249.80        2951.25           1239          46.00       170.01
 1249.83        2951.50           1242          47.00       174.37
 1249.86        2951.75           1246          43.00       156.93
 1249.89        2952.00           1249          46.00       170.01
 1249.93        2952.25           1252          43.00       156.93
 1249.96        2952.50           1256          49.00       183.09
 1249.99        2952.75           1259          41.00       148.21
 1250.02        2953.00           1262          42.00       152.57
 1250.05        2953.25           1266          48.00       178.73
 1250.08        2953.50           1269          45.00       165.65
 1250.11        2953.75           1272          46.00       170.01
 1250.14        2954.00           1276          45.00       165.65
 1250.17        2954.25           1279          48.00       178.73
 1250.20        2954.50           1282          46.00       170.01
 1250.23        2954.75           1286          40.00       143.85
 1250.26        2955.00           1289          42.00       152.57
 1250.29        2955.25           1292          48.00       178.73
 1250.32        2955.50           1296          41.00       148.21
 1250.36        2955.75           1299          46.00       170.01
 1250.39        2956.00           1302          53.00       200.52
 1250.42        2956.25           1306          49.00       183.09
 1250.45        2956.50           1309          48.00       178.73
 1250.48        2956.75           1312          45.00       165.65
 1250.51        2957.00           1316          40.00       143.85
 1250.54        2957.25           1319          43.00       156.93
 1250.57        2957.50           1322          41.00       148.21
 1250.60        2957.75           1326          54.00       204.88
 1250.63        2958.00           1329          44.00       161.29
 1250.66        2958.25           1332          52.00       196.17
 1250.69        2958.50           1336          49.00       183.09
 1250.73        2958.75           1339          47.00       174.37
 1250.76        2959.00           1342          40.00       143.85
 1250.79        2959.25           1346          52.00       196.17
 1250.82        2959.50           1349          67.00       261.55
 1250.85        2959.75           1352          77.00       305.15
 1250.88        2960.00           1356         117.00       479.52
 1250.91        2960.25           1359         141.00       584.14
 1250.94        2960.50           1362         196.00       823.91
 1250.97        2960.75           1366         241.00      1020.08
 1251.00        2961.00           1369         283.00      1203.18
 1251.03        2961.25           1372         347.00      1482.19
 1251.06        2961.50           1376         432.00      1852.76
 1251.10        2961.75           1379         675.00      2912.20
 1251.13        2962.00           1382        1382.00      5994.98
 1251.16        2962.25           1386        3137.00     13649.88
 1251.19        2962.50           1389        4841.00     21085.70
 1251.22        2962.75           1392        6574.00     28651.47
 1251.25        2963.00           1396        8826.00     38488.18
 1251.28        2963.25           1399       10449.00     45581.04
 1251.31        2963.50           1402       12041.00     52541.35
 1251.34        2963.75           1406       14518.00     63376.71
 1251.37        2964.00           1409       16099.00     70296.30
 1251.40        2964.25           1412       17916.00     78252.36
 1251.43        2964.50           1416       20226.00     88372.60
 1251.47        2964.75           1419       21661.00     94662.52
 1251.50        2965.00           1422       23640.00    103340.80
 1251.53        2965.25           1426       26073.00    114016.20
 1251.56        2965.50           1429       27701.00    121163.30
 1251.59        2965.75           1432       29564.00    129345.80
 1251.62        2966.00           1436       31847.00    139378.40
 1251.65        2966.25           1439       33339.00    145938.30
 1251.68        2966.50           1442       34979.00    153151.90
 1251.71        2966.75           1446       36290.00    158920.60
 1251.75        2967.00           1449       36624.00    160390.70
 1251.78        2967.25           1452       36568.00    160144.20
 1251.81        2967.50           1456       36447.00    159611.60
 1251.84        2967.75           1459       36478.00    159748.10
 1251.87        2968.00           1462       36343.00    159153.90
 1251.90        2968.25           1466       34849.00    152580.00
 1251.93        2968.50           1469       33385.00    146140.60
 1251.96        2968.75           1472       31659.00    138552.00
 1251.99        2969.00           1476       29565.00    129350.10
 1252.03        2969.25           1479       27899.00    122032.70
 1252.06        2969.50           1482       26237.00    114736.00
 1252.09        2969.75           1486       23873.00    104362.90
 1252.12        2970.00           1489       22343.00     97652.71
 1252.15        2970.25           1492       20478.00     89477.00
 1252.18        2970.50           1496       18260.00     79759.06
 1252.21        2970.75           1499       16645.00     72686.66
 1252.24        2971.00           1502       15107.00     65954.26
 1252.27        2971.25           1506       12724.00     55528.35
 1252.30        2971.50           1509       11003.00     48002.82
 1252.33        2971.75           1513        8741.00     38116.80
 1252.36        2972.00           1516        7086.00     30887.37
 1252.40        2972.25           1519        5400.00     23525.76
 1252.43        2972.50           1523        3371.00     14670.80
 1252.46        2972.75           1526        1921.00      8345.60
 1252.49        2973.00           1529         912.00      3945.54
 1252.52        2973.25           1533         412.00      1765.57
 1252.55        2973.50           1536         324.00      1381.92
 1252.58        2973.75           1539         275.00      1168.31
 1252.61        2974.00           1543         227.00       959.05
 1252.64        2974.25           1546         159.00       662.61
 1252.67        2974.50           1549         118.00       483.88
 1252.71        2974.75           1553          81.00       322.58
 1252.74        2975.00           1556          67.00       261.55
 1252.77        2975.25           1559          55.00       209.24
 1252.80        2975.50           1563          47.00       174.37
 1252.83        2975.75           1566          49.00       183.09
 1252.86        2976.00           1569          44.00       161.29
 1252.89        2976.25           1573          49.00       183.09
 1252.92        2976.50           1576          48.00       178.73
 1252.95        2976.75           1579          46.00       170.01
 1252.98        2977.00           1583          43.00       156.93
 1253.01        2977.25           1586          44.00       161.29
 1253.04        2977.50           1590          45.00       165.65
 1253.07        2977.75           1593          52.00       196.17
 1253.10        2978.00           1596          39.00       139.49
 1253.14        2978.25           1600          43.00       156.93
 1253.17        2978.50           1603          46.00       170.01
 1253.20        2978.75           1606          49.00       183.09
 1253.23        2979.00           1610          44.00       161.29
 1253.26        2979.25           1613          48.00       178.73
 1253.29        2979.50           1616          41.00       148.21
 1253.32        2979.75           1620          51.00       191.81
 1253.35        2980.00           1623          42.00       152.57
 1253.38        2980.25           1626          43.00       156.93
 1253.41        2980.50           1630          48.00       178.73
 1253.44        2980.75           1633          44.00       161.29
 1253.47        2981.00           1637          37.00       130.78
 1253.50        2981.25           1640          54.00       204.88
 1253.53        2981.50           1643          48.00       178.73
 1253.56        2981.75           1647          54.00       204.88
 1253.59        2982.00           1650          48.00       178.73
 1253.62        2982.25           1653          45.00       165.65
 1253.66        2982.50           1657          53.00       200.52
 1253.69        2982.75           1660          48.00       178.73
 1253.72        2983.00           1663          42.00       152.57
 1253.75        2983.25           1667          43.00       156.93
 1253.78        2983.50           1670          47.00       174.37
 1253.81        2983.75           1673          44.00       161.29
 1253.84        2984.00           1677          46.00       170.01
HS scan finished at 20:54:03
end
