************************************************************
  HS Scan of (1) Internal mercury lamp
************************************************************
Integration time is 0.2294 seconds per sample
dh160517Manchester 53.47 2.23 2.965129pr1000
************************************************************
Dead Time -------------------------  3E-08 
Number of Cycles Used -------------  4 
Starting Wavelength (Angstroms) ---  2950 
Final Wavelength (Angstoms) -------  2984 
Wavelength Increment (Angstroms) --  .25 
Filter Wheel #1 Position ---------- (1) Ground quartz diffuser (ND=2.32)
Filter Wheel #2 Position ---------- (1) Neutral Density 0.494



************************************************************
HS scan start time = 02:52:30
Dark Count =  8.399999 


Time (GMT)  Wavelength (Ang)  Step Number  Raw Counts  Counts/Second

  172.87        2950.00           1222          46.00       163.91
  172.94        2950.25           1226          45.00       159.55
  172.97        2950.50           1229          38.00       129.03
  173.00        2950.75           1232          47.00       168.27
  173.03        2951.00           1236          46.00       163.91
  173.06        2951.25           1239          43.00       150.83
  173.09        2951.50           1242          46.00       163.91
  173.12        2951.75           1246          46.00       163.91
  173.15        2952.00           1249          42.00       146.47
  173.19        2952.25           1252          44.00       155.19
  173.22        2952.50           1256          46.00       163.91
  173.25        2952.75           1259          52.00       190.06
  173.28        2953.00           1262          49.00       176.98
  173.31        2953.25           1266          46.00       163.91
  173.34        2953.50           1269          46.00       163.91
  173.37        2953.75           1272          49.00       176.98
  173.40        2954.00           1276          37.00       124.67
  173.43        2954.25           1279          45.00       159.55
  173.46        2954.50           1282          40.00       137.75
  173.49        2954.75           1286          42.00       146.47
  173.52        2955.00           1289          49.00       176.98
  173.55        2955.25           1292          44.00       155.19
  173.58        2955.50           1296          46.00       163.91
  173.62        2955.75           1299          48.00       172.63
  173.65        2956.00           1302          47.00       168.27
  173.68        2956.25           1306          39.00       133.39
  173.71        2956.50           1309          45.00       159.55
  173.74        2956.75           1312          44.00       155.19
  173.77        2957.00           1316          47.00       168.27
  173.80        2957.25           1319          43.00       150.83
  173.83        2957.50           1322          45.00       159.55
  173.86        2957.75           1326          44.00       155.19
  173.89        2958.00           1329          53.00       194.42
  173.92        2958.25           1332          45.00       159.55
  173.95        2958.50           1336          42.00       146.47
  173.99        2958.75           1339          44.00       155.19
  174.02        2959.00           1342          47.00       168.27
  174.05        2959.25           1346          50.00       181.34
  174.08        2959.50           1349          55.00       203.14
  174.11        2959.75           1352          71.00       272.89
  174.14        2960.00           1356         104.00       416.74
  174.17        2960.25           1359         139.00       569.32
  174.20        2960.50           1362         178.00       739.34
  174.23        2960.75           1366         230.00       966.03
  174.26        2961.00           1369         294.00      1245.03
  174.29        2961.25           1372         348.00      1480.45
  174.32        2961.50           1376         462.00      1977.45
  174.36        2961.75           1379         729.00      3141.53
  174.39        2962.00           1382        1406.00      6093.53
  174.42        2962.25           1386        3367.00     14647.24
  174.45        2962.50           1389        5126.00     22323.58
  174.48        2962.75           1392        6820.00     29719.60
  174.51        2963.00           1396        9136.00     39836.60
  174.54        2963.25           1399       10777.00     47008.71
  174.57        2963.50           1402       12621.00     55071.74
  174.60        2963.75           1406       15139.00     66088.18
  174.64        2964.00           1409       17123.00     74773.47
  174.67        2964.25           1412       19265.00     84155.52
  174.70        2964.50           1416       21936.00     95862.04
  174.73        2964.75           1419       23570.00    103027.60
  174.76        2965.00           1422       25350.00    110837.00
  174.79        2965.25           1426       27909.00    122070.50
  174.82        2965.50           1429       29766.00    130227.10
  174.85        2965.75           1432       31761.00    138994.30
  174.88        2966.00           1436       34261.00    149987.30
  174.91        2966.25           1439       35724.00    156423.70
  174.95        2966.50           1442       37408.00    163835.60
  174.98        2966.75           1446       39005.00    170867.60
  175.01        2967.00           1449       39561.00    173316.40
  175.04        2967.25           1452       39468.00    172906.80
  175.07        2967.50           1456       39589.00    173439.80
  175.10        2967.75           1459       39449.00    172823.10
  175.13        2968.00           1462       39207.00    171757.20
  175.16        2968.25           1466       38265.00    167608.80
  175.19        2968.50           1469       36609.00    160318.50
  175.23        2968.75           1472       35215.00    154184.10
  175.26        2969.00           1476       32739.00    143293.90
  175.29        2969.25           1479       30874.00    135095.70
  175.32        2969.50           1482       29395.00    128597.20
  175.35        2969.75           1486       26620.00    116411.10
  175.38        2970.00           1489       24710.00    108028.70
  175.41        2970.25           1492       23127.00    101084.60
  175.44        2970.50           1496       20704.00     90461.38
  175.47        2970.75           1499       18614.00     81303.56
  175.50        2971.00           1502       16903.00     73810.16
  175.53        2971.25           1506       14558.00     63545.61
  175.57        2971.50           1509       12618.00     55058.61
  175.60        2971.75           1513       10269.00     44788.13
  175.63        2972.00           1516        8563.00     37332.99
  175.66        2972.25           1519        6805.00     29654.10
  175.69        2972.50           1523        4646.00     20228.49
  175.72        2972.75           1526        2867.00     12465.87
  175.75        2973.00           1529        1318.00      5709.78
  175.78        2973.25           1533         528.00      2265.19
  175.81        2973.50           1536         355.00      1510.97
  175.84        2973.75           1539         308.00      1306.07
  175.87        2974.00           1543         260.00      1096.81
  175.91        2974.25           1546         176.00       730.62
  175.94        2974.50           1549         146.00       599.84
  175.97        2974.75           1553          93.00       368.79
  176.00        2975.00           1556          74.00       285.97
  176.03        2975.25           1559          57.00       211.86
  176.06        2975.50           1563          40.00       137.75
  176.09        2975.75           1566          54.00       198.78
  176.12        2976.00           1569          52.00       190.06
  176.15        2976.25           1573          49.00       176.98
  176.18        2976.50           1576          42.00       146.47
  176.21        2976.75           1579          44.00       155.19
  176.24        2977.00           1583          49.00       176.98
  176.27        2977.25           1586          47.00       168.27
  176.30        2977.50           1590          40.00       137.75
  176.33        2977.75           1593          43.00       150.83
  176.36        2978.00           1596          44.00       155.19
  176.40        2978.25           1600          46.00       163.91
  176.43        2978.50           1603          43.00       150.83
  176.46        2978.75           1606          44.00       155.19
  176.49        2979.00           1610          43.00       150.83
  176.52        2979.25           1613          44.00       155.19
  176.55        2979.50           1616          44.00       155.19
  176.58        2979.75           1620          51.00       185.70
  176.61        2980.00           1623          45.00       159.55
  176.64        2980.25           1626          50.00       181.34
  176.67        2980.50           1630          42.00       146.47
  176.70        2980.75           1633          46.00       163.91
  176.73        2981.00           1637          41.00       142.11
  176.76        2981.25           1640          45.00       159.55
  176.80        2981.50           1643          47.00       168.27
  176.83        2981.75           1647          39.00       133.39
  176.86        2982.00           1650          44.00       155.19
  176.89        2982.25           1653          43.00       150.83
  176.92        2982.50           1657          43.00       150.83
  176.95        2982.75           1660          55.00       203.14
  176.98        2983.00           1663          40.00       137.75
  177.01        2983.25           1667          40.00       137.75
  177.04        2983.50           1670          47.00       168.27
  177.07        2983.75           1673          40.00       137.75
  177.10        2984.00           1677          39.00       133.39
HS scan finished at 02:57:19
end
************************************************************
  HS Scan of (1) Internal mercury lamp
************************************************************
Integration time is 0.2294 seconds per sample
dh160517Manchester 53.47 2.23 2.857833pr1000
************************************************************
Dead Time -------------------------  3E-08 
Number of Cycles Used -------------  4 
Starting Wavelength (Angstroms) ---  2950 
Final Wavelength (Angstoms) -------  2984 
Wavelength Increment (Angstroms) --  .25 
Filter Wheel #1 Position ---------- (1) Ground quartz diffuser (ND=2.32)
Filter Wheel #2 Position ---------- (1) Neutral Density 0.494



************************************************************
HS scan start time = 21:12:01
Dark Count =  6.8 


Time (GMT)  Wavelength (Ang)  Step Number  Raw Counts  Counts/Second

 1272.39        2950.00           1222          48.00       179.60
 1272.46        2950.25           1226          42.00       153.44
 1272.49        2950.50           1229          52.00       197.04
 1272.52        2950.75           1232          43.00       157.80
 1272.56        2951.00           1236          45.00       166.52
 1272.59        2951.25           1239          47.00       175.24
 1272.62        2951.50           1242          46.00       170.88
 1272.65        2951.75           1246          40.00       144.73
 1272.68        2952.00           1249          49.00       183.96
 1272.71        2952.25           1252          44.00       162.16
 1272.74        2952.50           1256          38.00       136.01
 1272.77        2952.75           1259          50.00       188.32
 1272.80        2953.00           1262          47.00       175.24
 1272.83        2953.25           1266          41.00       149.09
 1272.86        2953.50           1269          41.00       149.09
 1272.89        2953.75           1272          53.00       201.40
 1272.93        2954.00           1276          47.00       175.24
 1272.96        2954.25           1279          46.00       170.88
 1272.99        2954.50           1282          47.00       175.24
 1273.02        2954.75           1286          39.00       140.37
 1273.05        2955.00           1289          51.00       192.68
 1273.08        2955.25           1292          45.00       166.52
 1273.11        2955.50           1296          48.00       179.60
 1273.14        2955.75           1299          42.00       153.44
 1273.17        2956.00           1302          54.00       205.76
 1273.20        2956.25           1306          40.00       144.73
 1273.23        2956.50           1309          44.00       162.16
 1273.26        2956.75           1312          50.00       188.32
 1273.29        2957.00           1316          41.00       149.09
 1273.32        2957.25           1319          40.00       144.73
 1273.35        2957.50           1322          47.00       175.24
 1273.38        2957.75           1326          47.00       175.24
 1273.41        2958.00           1329          53.00       201.40
 1273.44        2958.25           1332          44.00       162.16
 1273.47        2958.50           1336          47.00       175.24
 1273.50        2958.75           1339          39.00       140.37
 1273.54        2959.00           1342          47.00       175.24
 1273.57        2959.25           1346          53.00       201.40
 1273.60        2959.50           1349          48.00       179.60
 1273.63        2959.75           1352          59.00       227.55
 1273.66        2960.00           1356          92.00       371.41
 1273.69        2960.25           1359         130.00       537.06
 1273.72        2960.50           1362         178.00       746.31
 1273.75        2960.75           1366         218.00       920.69
 1273.78        2961.00           1369         260.00      1103.79
 1273.81        2961.25           1372         312.00      1330.48
 1273.84        2961.50           1376         374.00      1600.77
 1273.87        2961.75           1379         519.00      2232.93
 1273.91        2962.00           1382         863.00      3732.76
 1273.94        2962.25           1386        2155.00      9367.06
 1273.97        2962.50           1389        3756.00     16351.53
 1274.00        2962.75           1392        5454.00     23762.36
 1274.03        2963.00           1396        7696.00     33552.50
 1274.06        2963.25           1399        9459.00     41255.04
 1274.09        2963.50           1402       11263.00     49140.40
 1274.12        2963.75           1406       13768.00     60096.05
 1274.15        2964.00           1409       15743.00     68738.82
 1274.18        2964.25           1412       17262.00     75389.15
 1274.22        2964.50           1416       19743.00     86256.91
 1274.25        2964.75           1419       21432.00     93659.48
 1274.28        2965.00           1422       23214.00    101473.20
 1274.31        2965.25           1426       25717.00    112454.60
 1274.34        2965.50           1429       27323.00    119504.40
 1274.37        2965.75           1432       29181.00    127664.10
 1274.40        2966.00           1436       31448.00    137625.50
 1274.43        2966.25           1439       33068.00    144747.50
 1274.46        2966.50           1442       34626.00    151599.90
 1274.49        2966.75           1446       36652.00    160514.80
 1274.53        2967.00           1449       37380.00    163719.30
 1274.56        2967.25           1452       37905.00    166030.70
 1274.59        2967.50           1456       37899.00    166004.30
 1274.62        2967.75           1459       37878.00    165911.80
 1274.65        2968.00           1462       37682.00    165048.90
 1274.68        2968.25           1466       36971.00    161918.90
 1274.71        2968.50           1469       35972.00    157522.10
 1274.74        2968.75           1472       34574.00    151371.10
 1274.77        2969.00           1476       32058.00    140306.90
 1274.80        2969.25           1479       30604.00    133916.20
 1274.84        2969.50           1482       28685.00    125485.50
 1274.87        2969.75           1486       26424.00    115557.70
 1274.90        2970.00           1489       24773.00    108312.10
 1274.93        2970.25           1492       22893.00    100065.40
 1274.96        2970.50           1496       20608.00     90047.63
 1274.99        2970.75           1499       18954.00     82800.02
 1275.02        2971.00           1502       17193.00     75087.00
 1275.05        2971.25           1506       14899.00     65044.85
 1275.08        2971.50           1509       13053.00     56968.25
 1275.11        2971.75           1513       10935.00     47706.42
 1275.15        2972.00           1516        9252.00     40350.48
 1275.18        2972.25           1519        7321.00     31914.59
 1275.21        2972.50           1523        5190.00     22609.93
 1275.24        2972.75           1526        3522.00     15330.50
 1275.27        2973.00           1529        1994.00      8664.85
 1275.30        2973.25           1533         718.00      3100.55
 1275.33        2973.50           1536         387.00      1657.45
 1275.36        2973.75           1539         320.00      1365.36
 1275.40        2974.00           1543         267.00      1134.30
 1275.43        2974.25           1546         193.00       811.70
 1275.46        2974.50           1549         135.00       558.86
 1275.49        2974.75           1553          93.00       375.77
 1275.52        2975.00           1556          75.00       297.30
 1275.55        2975.25           1559          59.00       227.55
 1275.58        2975.50           1563          55.00       210.11
 1275.61        2975.75           1566          46.00       170.88
 1275.64        2976.00           1569          51.00       192.68
 1275.67        2976.25           1573          51.00       192.68
 1275.70        2976.50           1576          44.00       162.16
 1275.73        2976.75           1579          44.00       162.16
 1275.77        2977.00           1583          45.00       166.52
 1275.80        2977.25           1586          44.00       162.16
 1275.83        2977.50           1590          51.00       192.68
 1275.86        2977.75           1593          51.00       192.68
 1275.89        2978.00           1596          45.00       166.52
 1275.92        2978.25           1600          44.00       162.16
 1275.95        2978.50           1603          49.00       183.96
 1275.98        2978.75           1606          45.00       166.52
 1276.01        2979.00           1610          43.00       157.80
 1276.04        2979.25           1613          46.00       170.88
 1276.07        2979.50           1616          46.00       170.88
 1276.10        2979.75           1620          41.00       149.09
 1276.13        2980.00           1623          47.00       175.24
 1276.16        2980.25           1626          45.00       166.52
 1276.19        2980.50           1630          42.00       153.44
 1276.22        2980.75           1633          42.00       153.44
 1276.25        2981.00           1637          49.00       183.96
 1276.29        2981.25           1640          42.00       153.44
 1276.32        2981.50           1643          45.00       166.52
 1276.35        2981.75           1647          43.00       157.80
 1276.38        2982.00           1650          46.00       170.88
 1276.41        2982.25           1653          42.00       153.44
 1276.44        2982.50           1657          47.00       175.24
 1276.47        2982.75           1660          44.00       162.16
 1276.50        2983.00           1663          49.00       183.96
 1276.53        2983.25           1667          54.00       205.76
 1276.57        2983.50           1670          41.00       149.09
 1276.60        2983.75           1673          48.00       179.60
 1276.63        2984.00           1677          48.00       179.60
HS scan finished at 21:16:51
end
