************************************************************
  HS Scan of (1) Internal mercury lamp
************************************************************
Integration time is 0.2294 seconds per sample
dh130518Manchester 53.47 2.23 2.804185pr1000
************************************************************
Dead Time -------------------------  3E-08 
Number of Cycles Used -------------  4 
Starting Wavelength (Angstroms) ---  2950 
Final Wavelength (Angstoms) -------  2984 
Wavelength Increment (Angstroms) --  .25 
Filter Wheel #1 Position ---------- (1) Ground quartz diffuser (ND=2.32)
Filter Wheel #2 Position ---------- (1) Neutral Density 0.494



************************************************************
HS scan start time = 01:21:37
Dark Count =  6.9 


Time (GMT)  Wavelength (Ang)  Step Number  Raw Counts  Counts/Second

   81.98        2950.00           1222          59.00       227.12
   82.05        2950.25           1226          50.00       187.88
   82.08        2950.50           1229          62.00       240.19
   82.11        2950.75           1232          61.00       235.83
   82.14        2951.00           1236          56.00       214.04
   82.17        2951.25           1239          63.00       244.55
   82.20        2951.50           1242          60.00       231.48
   82.23        2951.75           1246          54.00       205.32
   82.26        2952.00           1249          68.00       266.35
   82.29        2952.25           1252          55.00       209.68
   82.32        2952.50           1256          51.00       192.24
   82.36        2952.75           1259          55.00       209.68
   82.39        2953.00           1262          57.00       218.40
   82.42        2953.25           1266          57.00       218.40
   82.45        2953.50           1269          57.00       218.40
   82.48        2953.75           1272          60.00       231.48
   82.51        2954.00           1276          55.00       209.68
   82.54        2954.25           1279          53.00       200.96
   82.57        2954.50           1282          64.00       248.91
   82.60        2954.75           1286          51.00       192.24
   82.63        2955.00           1289          57.00       218.40
   82.66        2955.25           1292          57.00       218.40
   82.69        2955.50           1296          62.00       240.19
   82.72        2955.75           1299          60.00       231.48
   82.75        2956.00           1302          54.00       205.32
   82.79        2956.25           1306          61.00       235.83
   82.82        2956.50           1309          66.00       257.63
   82.85        2956.75           1312          61.00       235.83
   82.88        2957.00           1316          62.00       240.19
   82.91        2957.25           1319          60.00       231.48
   82.94        2957.50           1322          62.00       240.19
   82.97        2957.75           1326          67.00       261.99
   83.00        2958.00           1329          53.00       200.96
   83.03        2958.25           1332          64.00       248.91
   83.07        2958.50           1336          54.00       205.32
   83.10        2958.75           1339          62.00       240.19
   83.13        2959.00           1342          59.00       227.12
   83.16        2959.25           1346          57.00       218.40
   83.19        2959.50           1349          59.00       227.12
   83.22        2959.75           1352          89.00       357.89
   83.25        2960.00           1356         103.00       418.92
   83.28        2960.25           1359         133.00       549.70
   83.31        2960.50           1362         169.00       706.64
   83.34        2960.75           1366         215.00       907.17
   83.37        2961.00           1369         251.00      1064.11
   83.41        2961.25           1372         302.00      1286.45
   83.44        2961.50           1376         356.00      1521.87
   83.47        2961.75           1379         433.00      1857.56
   83.50        2962.00           1382         724.00      3126.27
   83.53        2962.25           1386        2086.00      9065.68
   83.56        2962.50           1389        3386.00     14736.68
   83.59        2962.75           1392        4687.00     20413.98
   83.62        2963.00           1396        6445.00     28088.61
   83.65        2963.25           1399        8034.00     35028.51
   83.68        2963.50           1402        9581.00     41787.75
   83.72        2963.75           1406       11729.00     51177.47
   83.75        2964.00           1409       13194.00     57584.57
   83.78        2964.25           1412       14557.00     63547.81
   83.81        2964.50           1416       16590.00     72446.31
   83.84        2964.75           1419       17948.00     78392.95
   83.87        2965.00           1422       19503.00     85204.88
   83.90        2965.25           1426       21438.00     93685.34
   83.93        2965.50           1429       22899.00    100091.30
   83.96        2965.75           1432       24259.00    106056.60
   83.99        2966.00           1436       26340.00    115188.60
   84.02        2966.25           1439       27814.00    121659.90
   84.05        2966.50           1442       29255.00    127988.70
   84.08        2966.75           1446       30872.00    135093.50
   84.12        2967.00           1449       31361.00    137242.60
   84.15        2967.25           1452       31663.00    138570.10
   84.18        2967.50           1456       31718.00    138811.80
   84.21        2967.75           1459       31806.00    139198.70
   84.24        2968.00           1462       31718.00    138811.80
   84.27        2968.25           1466       31008.00    135691.20
   84.30        2968.50           1469       30205.00    132162.50
   84.33        2968.75           1472       28809.00    126029.70
   84.36        2969.00           1476       26978.00    117989.30
   84.39        2969.25           1479       25541.00    111681.80
   84.43        2969.50           1482       24067.00    105214.30
   84.46        2969.75           1486       22015.00     96214.98
   84.49        2970.00           1489       20803.00     90901.87
   84.52        2970.25           1492       19336.00     84473.18
   84.55        2970.50           1496       17313.00     75612.04
   84.58        2970.75           1499       15730.00     68681.47
   84.61        2971.00           1502       14584.00     63665.95
   84.64        2971.25           1506       12664.00     55266.36
   84.67        2971.50           1509       11151.00     48650.29
   84.71        2971.75           1513        9291.00     40520.46
   84.74        2972.00           1516        7906.00     34469.37
   84.77        2972.25           1519        6411.00     27940.15
   84.80        2972.50           1523        4387.00     19104.67
   84.83        2972.75           1526        2954.00     12851.95
   84.86        2973.00           1529        1629.00      7072.56
   84.89        2973.25           1533         562.00      2419.97
   84.92        2973.50           1536         339.00      1447.75
   84.95        2973.75           1539         278.00      1181.82
   84.98        2974.00           1543         244.00      1033.60
   85.01        2974.25           1546         174.00       728.44
   85.04        2974.50           1549         146.00       606.38
   85.07        2974.75           1553          96.00       388.41
   85.11        2975.00           1556          69.00       270.71
   85.14        2975.25           1559          57.00       218.40
   85.17        2975.50           1563          56.00       214.04
   85.20        2975.75           1566          55.00       209.68
   85.23        2976.00           1569          63.00       244.55
   85.26        2976.25           1573          54.00       205.32
   85.29        2976.50           1576          46.00       170.45
   85.32        2976.75           1579          55.00       209.68
   85.35        2977.00           1583          57.00       218.40
   85.38        2977.25           1586          55.00       209.68
   85.41        2977.50           1590          49.00       183.52
   85.44        2977.75           1593          55.00       209.68
   85.47        2978.00           1596          55.00       209.68
   85.50        2978.25           1600          60.00       231.48
   85.53        2978.50           1603          57.00       218.40
   85.57        2978.75           1606          48.00       179.16
   85.60        2979.00           1610          63.00       244.55
   85.63        2979.25           1613          51.00       192.24
   85.66        2979.50           1616          52.00       196.60
   85.69        2979.75           1620          49.00       183.52
   85.72        2980.00           1623          56.00       214.04
   85.75        2980.25           1626          52.00       196.60
   85.78        2980.50           1630          56.00       214.04
   85.81        2980.75           1633          47.00       174.80
   85.84        2981.00           1637          62.00       240.19
   85.87        2981.25           1640          59.00       227.12
   85.90        2981.50           1643          56.00       214.04
   85.93        2981.75           1647          50.00       187.88
   85.96        2982.00           1650          59.00       227.12
   86.00        2982.25           1653          50.00       187.88
   86.03        2982.50           1657          63.00       244.55
   86.06        2982.75           1660          55.00       209.68
   86.09        2983.00           1663          56.00       214.04
   86.12        2983.25           1667          48.00       179.16
   86.15        2983.50           1670          50.00       187.88
   86.18        2983.75           1673          54.00       205.32
   86.21        2984.00           1677          48.00       179.16
HS scan finished at 01:26:26
end
************************************************************
  HS Scan of (1) Internal mercury lamp
************************************************************
Integration time is 0.2294 seconds per sample
dh130518Manchester 53.47 2.23 2.804185pr1000
************************************************************
Dead Time -------------------------  3E-08 
Number of Cycles Used -------------  4 
Starting Wavelength (Angstroms) ---  2950 
Final Wavelength (Angstoms) -------  2984 
Wavelength Increment (Angstroms) --  .25 
Filter Wheel #1 Position ---------- (1) Ground quartz diffuser (ND=2.32)
Filter Wheel #2 Position ---------- (1) Neutral Density 0.494



************************************************************
HS scan start time = 21:12:01
Dark Count =  5.1 


Time (GMT)  Wavelength (Ang)  Step Number  Raw Counts  Counts/Second

 1272.38        2950.00           1222          63.00       252.40
 1272.45        2950.25           1226          65.00       261.12
 1272.48        2950.50           1229          56.00       221.88
 1272.51        2950.75           1232          54.00       213.17
 1272.54        2951.00           1236          59.00       234.96
 1272.57        2951.25           1239          59.00       234.96
 1272.60        2951.50           1242          59.00       234.96
 1272.63        2951.75           1246          62.00       248.04
 1272.66        2952.00           1249          53.00       208.81
 1272.69        2952.25           1252          52.00       204.45
 1272.72        2952.50           1256          59.00       234.96
 1272.75        2952.75           1259          65.00       261.12
 1272.79        2953.00           1262          64.00       256.76
 1272.82        2953.25           1266          58.00       230.60
 1272.85        2953.50           1269          55.00       217.53
 1272.88        2953.75           1272          64.00       256.76
 1272.91        2954.00           1276          66.00       265.48
 1272.94        2954.25           1279          55.00       217.53
 1272.97        2954.50           1282          57.00       226.24
 1273.00        2954.75           1286          53.00       208.81
 1273.03        2955.00           1289          55.00       217.53
 1273.06        2955.25           1292          60.00       239.32
 1273.09        2955.50           1296          48.00       187.01
 1273.12        2955.75           1299          53.00       208.81
 1273.16        2956.00           1302          65.00       261.12
 1273.19        2956.25           1306          56.00       221.88
 1273.22        2956.50           1309          60.00       239.32
 1273.25        2956.75           1312          59.00       234.96
 1273.28        2957.00           1316          68.00       274.20
 1273.31        2957.25           1319          64.00       256.76
 1273.34        2957.50           1322          66.00       265.48
 1273.37        2957.75           1326          54.00       213.17
 1273.40        2958.00           1329          49.00       191.37
 1273.43        2958.25           1332          58.00       230.60
 1273.47        2958.50           1336          54.00       213.17
 1273.50        2958.75           1339          56.00       221.88
 1273.53        2959.00           1342          59.00       234.96
 1273.56        2959.25           1346          60.00       239.32
 1273.59        2959.50           1349          73.00       295.99
 1273.62        2959.75           1352          88.00       361.38
 1273.65        2960.00           1356         120.00       500.88
 1273.68        2960.25           1359         137.00       574.99
 1273.71        2960.50           1362         166.00       701.41
 1273.74        2960.75           1366         236.00      1006.57
 1273.77        2961.00           1369         271.00      1159.15
 1273.81        2961.25           1372         305.00      1307.37
 1273.84        2961.50           1376         419.00      1804.37
 1273.87        2961.75           1379         645.00      2789.68
 1273.90        2962.00           1382        1554.00      6753.33
 1273.93        2962.25           1386        3343.00     14556.92
 1273.96        2962.50           1389        4618.00     20120.69
 1273.99        2962.75           1392        6146.00     26790.92
 1274.02        2963.00           1396        8094.00     35298.48
 1274.05        2963.25           1399        9507.00     41472.23
 1274.08        2963.50           1402       11123.00     48535.75
 1274.12        2963.75           1406       12953.00     56538.28
 1274.15        2964.00           1409       14477.00     63205.61
 1274.18        2964.25           1412       15707.00     68588.69
 1274.21        2964.50           1416       17647.00     77082.59
 1274.24        2964.75           1419       19286.00     84262.00
 1274.27        2965.00           1422       20746.00     90659.93
 1274.30        2965.25           1426       22854.00     99901.84
 1274.33        2965.50           1429       24315.00    106310.20
 1274.36        2965.75           1432       25987.00    113647.10
 1274.40        2966.00           1436       27826.00    121720.50
 1274.43        2966.25           1439       29166.00    127605.70
 1274.46        2966.50           1442       30430.00    133159.10
 1274.49        2966.75           1446       31496.00    137843.90
 1274.52        2967.00           1449       31923.00    139720.90
 1274.55        2967.25           1452       31804.00    139197.80
 1274.58        2967.50           1456       31784.00    139109.90
 1274.61        2967.75           1459       31729.00    138868.10
 1274.64        2968.00           1462       31621.00    138393.40
 1274.67        2968.25           1466       30300.00    132587.80
 1274.71        2968.50           1469       28987.00    126819.40
 1274.74        2968.75           1472       27410.00    119893.90
 1274.77        2969.00           1476       25645.00    112146.10
 1274.80        2969.25           1479       24115.00    105432.80
 1274.83        2969.50           1482       22661.00     99055.48
 1274.86        2969.75           1486       20955.00     91576.01
 1274.89        2970.00           1489       19614.00     85699.12
 1274.92        2970.25           1492       18017.00     78703.05
 1274.95        2970.50           1496       16199.00     70742.40
 1274.98        2970.75           1499       14545.00     63503.17
 1275.01        2971.00           1502       12937.00     56468.30
 1275.05        2971.25           1506       11127.00     48553.24
 1275.08        2971.50           1509        9635.00     42031.61
 1275.11        2971.75           1513        7749.00     33791.43
 1275.14        2972.00           1516        6218.00     27105.29
 1275.17        2972.25           1519        4776.00     20810.29
 1275.20        2972.50           1523        2889.00     12576.24
 1275.23        2972.75           1526        1549.00      6731.53
 1275.26        2973.00           1529         670.00      2898.68
 1275.29        2973.25           1533         372.00      1599.47
 1275.32        2973.50           1536         291.00      1246.34
 1275.36        2973.75           1539         250.00      1067.60
 1275.39        2974.00           1543         200.00       849.63
 1275.42        2974.25           1546         136.00       570.63
 1275.45        2974.50           1549         119.00       496.52
 1275.48        2974.75           1553          71.00       287.27
 1275.51        2975.00           1556          72.00       291.63
 1275.54        2975.25           1559          60.00       239.32
 1275.57        2975.50           1563          64.00       256.76
 1275.60        2975.75           1566          50.00       195.73
 1275.63        2976.00           1569          55.00       217.53
 1275.67        2976.25           1573          53.00       208.81
 1275.70        2976.50           1576          63.00       252.40
 1275.73        2976.75           1579          53.00       208.81
 1275.76        2977.00           1583          51.00       200.09
 1275.79        2977.25           1586          60.00       239.32
 1275.82        2977.50           1590          56.00       221.88
 1275.85        2977.75           1593          55.00       217.53
 1275.88        2978.00           1596          57.00       226.24
 1275.91        2978.25           1600          55.00       217.53
 1275.94        2978.50           1603          62.00       248.04
 1275.97        2978.75           1606          48.00       187.01
 1276.01        2979.00           1610          61.00       243.68
 1276.04        2979.25           1613          53.00       208.81
 1276.07        2979.50           1616          57.00       226.24
 1276.10        2979.75           1620          54.00       213.17
 1276.13        2980.00           1623          59.00       234.96
 1276.16        2980.25           1626          63.00       252.40
 1276.19        2980.50           1630          49.00       191.37
 1276.22        2980.75           1633          56.00       221.88
 1276.25        2981.00           1637          54.00       213.17
 1276.29        2981.25           1640          59.00       234.96
 1276.32        2981.50           1643          53.00       208.81
 1276.35        2981.75           1647          57.00       226.24
 1276.38        2982.00           1650          51.00       200.09
 1276.41        2982.25           1653          44.00       169.57
 1276.44        2982.50           1657          51.00       200.09
 1276.47        2982.75           1660          59.00       234.96
 1276.50        2983.00           1663          58.00       230.60
 1276.53        2983.25           1667          59.00       234.96
 1276.56        2983.50           1670          51.00       200.09
 1276.59        2983.75           1673          54.00       213.17
 1276.63        2984.00           1677          52.00       204.45
HS scan finished at 21:16:51
end
