************************************************************
  HS Scan of (1) Internal mercury lamp
************************************************************
Integration time is 0.2294 seconds per sample
dh140518Manchester 53.47 2.23 2.804185pr1000
************************************************************
Dead Time -------------------------  3E-08 
Number of Cycles Used -------------  4 
Starting Wavelength (Angstroms) ---  2950 
Final Wavelength (Angstoms) -------  2984 
Wavelength Increment (Angstroms) --  .25 
Filter Wheel #1 Position ---------- (1) Ground quartz diffuser (ND=2.32)
Filter Wheel #2 Position ---------- (1) Neutral Density 0.494



************************************************************
HS scan start time = 01:33:13
Dark Count =  7.9 


Time (GMT)  Wavelength (Ang)  Step Number  Raw Counts  Counts/Second

   93.59        2950.00           1222          63.00       240.19
   93.65        2950.25           1226          51.00       187.88
   93.68        2950.50           1229          56.00       209.68
   93.72        2950.75           1232          56.00       209.68
   93.75        2951.00           1236          57.00       214.04
   93.78        2951.25           1239          58.00       218.40
   93.81        2951.50           1242          54.00       200.96
   93.84        2951.75           1246          53.00       196.60
   93.87        2952.00           1249          56.00       209.68
   93.90        2952.25           1252          61.00       231.48
   93.93        2952.50           1256          66.00       253.27
   93.96        2952.75           1259          52.00       192.24
   93.99        2953.00           1262          55.00       205.32
   94.02        2953.25           1266          55.00       205.32
   94.05        2953.50           1269          58.00       218.40
   94.08        2953.75           1272          61.00       231.48
   94.12        2954.00           1276          52.00       192.24
   94.15        2954.25           1279          60.00       227.12
   94.18        2954.50           1282          53.00       196.60
   94.21        2954.75           1286          50.00       183.52
   94.24        2955.00           1289          52.00       192.24
   94.27        2955.25           1292          67.00       257.63
   94.30        2955.50           1296          65.00       248.91
   94.33        2955.75           1299          59.00       222.76
   94.36        2956.00           1302          54.00       200.96
   94.39        2956.25           1306          57.00       214.04
   94.42        2956.50           1309          61.00       231.48
   94.45        2956.75           1312          66.00       253.27
   94.48        2957.00           1316          63.00       240.19
   94.52        2957.25           1319          54.00       200.96
   94.55        2957.50           1322          59.00       222.76
   94.58        2957.75           1326          62.00       235.83
   94.61        2958.00           1329          63.00       240.19
   94.64        2958.25           1332          56.00       209.68
   94.67        2958.50           1336          59.00       222.76
   94.70        2958.75           1339          53.00       196.60
   94.73        2959.00           1342          59.00       222.76
   94.76        2959.25           1346          61.00       231.48
   94.79        2959.50           1349          66.00       253.27
   94.82        2959.75           1352          75.00       292.50
   94.86        2960.00           1356          89.00       353.53
   94.89        2960.25           1359         123.00       501.75
   94.92        2960.50           1362         166.00       689.20
   94.95        2960.75           1366         214.00       898.45
   94.98        2961.00           1369         255.00      1077.19
   95.01        2961.25           1372         284.00      1203.62
   95.04        2961.50           1376         364.00      1552.38
   95.07        2961.75           1379         502.00      2154.02
   95.10        2962.00           1382        1062.00      4595.66
   95.13        2962.25           1386        2668.00     11599.94
   95.16        2962.50           1389        4241.00     18463.15
   95.19        2962.75           1392        5659.00     24652.49
   95.23        2963.00           1396        7582.00     33049.76
   95.26        2963.25           1399        8922.00     38903.70
   95.29        2963.50           1402       10432.00     45502.79
   95.32        2963.75           1406       12381.00     54024.28
   95.35        2964.00           1409       13920.00     60756.24
   95.38        2964.25           1412       15474.00     67556.56
   95.41        2964.50           1416       17318.00     75629.55
   95.44        2964.75           1419       18788.00     82067.99
   95.47        2965.00           1422       20376.00     89026.03
   95.50        2965.25           1426       22224.00     97126.97
   95.54        2965.50           1429       23685.00    103534.30
   95.57        2965.75           1432       25341.00    110799.70
   95.60        2966.00           1436       27337.00    119561.00
   95.63        2966.25           1439       28604.00    125124.90
   95.66        2966.50           1442       29804.00    130396.20
   95.69        2966.75           1446       30896.00    135194.60
   95.72        2967.00           1449       31220.00    136618.50
   95.75        2967.25           1452       31206.00    136557.00
   95.78        2967.50           1456       31185.00    136464.70
   95.82        2967.75           1459       31178.00    136433.90
   95.85        2968.00           1462       30987.00    135594.50
   95.88        2968.25           1466       29863.00    130655.40
   95.91        2968.50           1469       28478.00    124571.50
   95.94        2968.75           1472       27293.00    119367.90
   95.97        2969.00           1476       25479.00    111405.30
   96.00        2969.25           1479       23953.00    104709.80
   96.03        2969.50           1482       22499.00     98332.81
   96.06        2969.75           1486       20646.00     90209.37
   96.09        2970.00           1489       19266.00     84162.09
   96.12        2970.25           1492       17704.00     77319.96
   96.15        2970.50           1496       15977.00     69758.31
   96.19        2970.75           1499       14396.00     62838.93
   96.22        2971.00           1502       13127.00     57287.12
   96.25        2971.25           1506       11210.00     48903.87
   96.28        2971.50           1509        9685.00     42237.88
   96.31        2971.75           1513        7773.00     33884.04
   96.34        2972.00           1516        6340.00     27625.76
   96.37        2972.25           1519        5019.00     21858.71
   96.40        2972.50           1523        3180.00     13833.55
   96.43        2972.75           1526        1921.00      8341.67
   96.46        2973.00           1529         898.00      3880.57
   96.49        2973.25           1533         433.00      1853.20
   96.53        2973.50           1536         317.00      1347.48
   96.56        2973.75           1539         270.00      1142.59
   96.59        2974.00           1543         244.00      1029.24
   96.62        2974.25           1546         171.00       711.00
   96.65        2974.50           1549         138.00       567.14
   96.68        2974.75           1553          97.00       388.41
   96.71        2975.00           1556          79.00       309.94
   96.74        2975.25           1559          69.00       266.35
   96.77        2975.50           1563          54.00       200.96
   96.80        2975.75           1566          57.00       214.04
   96.83        2976.00           1569          58.00       218.40
   96.86        2976.25           1573          60.00       227.12
   96.89        2976.50           1576          50.00       183.52
   96.92        2976.75           1579          52.00       192.24
   96.95        2977.00           1583          49.00       179.16
   96.99        2977.25           1586          52.00       192.24
   97.02        2977.50           1590          54.00       200.96
   97.05        2977.75           1593          50.00       183.52
   97.08        2978.00           1596          51.00       187.88
   97.11        2978.25           1600          58.00       218.40
   97.14        2978.50           1603          58.00       218.40
   97.17        2978.75           1606          63.00       240.19
   97.20        2979.00           1610          53.00       196.60
   97.23        2979.25           1613          50.00       183.52
   97.26        2979.50           1616          49.00       179.16
   97.29        2979.75           1620          49.00       179.16
   97.32        2980.00           1623          55.00       205.32
   97.36        2980.25           1626          55.00       205.32
   97.39        2980.50           1630          56.00       209.68
   97.42        2980.75           1633          52.00       192.24
   97.45        2981.00           1637          54.00       200.96
   97.48        2981.25           1640          51.00       187.88
   97.51        2981.50           1643          53.00       196.60
   97.54        2981.75           1647          55.00       205.32
   97.57        2982.00           1650          48.00       174.80
   97.60        2982.25           1653          44.00       157.37
   97.63        2982.50           1657          53.00       196.60
   97.66        2982.75           1660          54.00       200.96
   97.69        2983.00           1663          53.00       196.60
   97.73        2983.25           1667          49.00       179.16
   97.76        2983.50           1670          51.00       187.88
   97.79        2983.75           1673          55.00       205.32
   97.82        2984.00           1677          48.00       174.80
HS scan finished at 01:38:02
end
************************************************************
  HS Scan of (1) Internal mercury lamp
************************************************************
Integration time is 0.2294 seconds per sample
dh140518Manchester 53.47 2.23 2.804185pr1000
************************************************************
Dead Time -------------------------  3E-08 
Number of Cycles Used -------------  4 
Starting Wavelength (Angstroms) ---  2950 
Final Wavelength (Angstoms) -------  2984 
Wavelength Increment (Angstroms) --  .25 
Filter Wheel #1 Position ---------- (1) Ground quartz diffuser (ND=2.32)
Filter Wheel #2 Position ---------- (1) Neutral Density 0.494



************************************************************
HS scan start time = 21:12:01
Dark Count =  6.5 


Time (GMT)  Wavelength (Ang)  Step Number  Raw Counts  Counts/Second

 1272.39        2950.00           1222          55.00       211.42
 1272.45        2950.25           1226          60.00       233.22
 1272.48        2950.50           1229          61.00       237.58
 1272.52        2950.75           1232          58.00       224.50
 1272.55        2951.00           1236          60.00       233.22
 1272.58        2951.25           1239          67.00       263.73
 1272.61        2951.50           1242          61.00       237.58
 1272.64        2951.75           1246          75.00       298.61
 1272.67        2952.00           1249          53.00       202.70
 1272.70        2952.25           1252          63.00       246.30
 1272.73        2952.50           1256          62.00       241.94
 1272.76        2952.75           1259          59.00       228.86
 1272.79        2953.00           1262          57.00       220.14
 1272.83        2953.25           1266          58.00       224.50
 1272.86        2953.50           1269          62.00       241.94
 1272.89        2953.75           1272          54.00       207.06
 1272.92        2954.00           1276          61.00       237.58
 1272.95        2954.25           1279          62.00       241.94
 1272.98        2954.50           1282          59.00       228.86
 1273.01        2954.75           1286          52.00       198.34
 1273.04        2955.00           1289          58.00       224.50
 1273.07        2955.25           1292          57.00       220.14
 1273.10        2955.50           1296          54.00       207.06
 1273.14        2955.75           1299          56.00       215.78
 1273.17        2956.00           1302          63.00       246.30
 1273.20        2956.25           1306          57.00       220.14
 1273.23        2956.50           1309          55.00       211.42
 1273.26        2956.75           1312          64.00       250.66
 1273.29        2957.00           1316          51.00       193.99
 1273.32        2957.25           1319          58.00       224.50
 1273.35        2957.50           1322          71.00       281.17
 1273.38        2957.75           1326          53.00       202.70
 1273.41        2958.00           1329          63.00       246.30
 1273.44        2958.25           1332          52.00       198.34
 1273.48        2958.50           1336          65.00       255.02
 1273.51        2958.75           1339          63.00       246.30
 1273.54        2959.00           1342          57.00       220.14
 1273.57        2959.25           1346          58.00       224.50
 1273.60        2959.50           1349          64.00       250.66
 1273.63        2959.75           1352          83.00       333.48
 1273.66        2960.00           1356          93.00       377.07
 1273.69        2960.25           1359         116.00       477.34
 1273.72        2960.50           1362         147.00       612.48
 1273.75        2960.75           1366         209.00       882.76
 1273.78        2961.00           1369         254.00      1078.94
 1273.82        2961.25           1372         290.00      1235.88
 1273.85        2961.50           1376         353.00      1510.53
 1273.88        2961.75           1379         424.00      1820.06
 1273.91        2962.00           1382         883.00      3821.28
 1273.94        2962.25           1386        2342.00     10184.02
 1273.97        2962.50           1389        3797.00     16531.74
 1274.00        2962.75           1392        5101.00     22222.74
 1274.03        2963.00           1396        6918.00     30155.87
 1274.06        2963.25           1399        8342.00     36375.77
 1274.10        2963.50           1402        9949.00     43397.80
 1274.13        2963.75           1406       11967.00     52219.93
 1274.16        2964.00           1409       13343.00     58238.11
 1274.19        2964.25           1412       14878.00     64954.26
 1274.22        2964.50           1416       16825.00     73476.96
 1274.25        2964.75           1419       18278.00     79840.09
 1274.28        2965.00           1422       19898.00     86937.43
 1274.31        2965.25           1426       21919.00     95795.84
 1274.34        2965.50           1429       23462.00    102562.30
 1274.37        2965.75           1432       24762.00    108265.20
 1274.41        2966.00           1436       26839.00    117380.80
 1274.44        2966.25           1439       28255.00    123598.30
 1274.47        2966.50           1442       29483.00    128992.10
 1274.50        2966.75           1446       31085.00    136031.30
 1274.53        2967.00           1449       31880.00    139525.70
 1274.56        2967.25           1452       32031.00    140189.50
 1274.59        2967.50           1456       31784.00    139103.70
 1274.62        2967.75           1459       31828.00    139297.10
 1274.65        2968.00           1462       31748.00    138945.50
 1274.69        2968.25           1466       31106.00    136123.60
 1274.72        2968.50           1469       30113.00    131760.00
 1274.75        2968.75           1472       28593.00    125082.70
 1274.78        2969.00           1476       26752.00    116998.90
 1274.81        2969.25           1479       25215.00    110252.90
 1274.84        2969.50           1482       23704.00    103623.70
 1274.87        2969.75           1486       21904.00     95730.07
 1274.90        2970.00           1489       20424.00     89242.53
 1274.93        2970.25           1492       19050.00     83221.91
 1274.96        2970.50           1496       17377.00     75894.06
 1274.99        2970.75           1499       15613.00     68171.10
 1275.03        2971.00           1502       14185.00     61921.82
 1275.06        2971.25           1506       12055.00     52604.75
 1275.09        2971.50           1509       10582.00     46164.59
 1275.12        2971.75           1513        8758.00     38193.26
 1275.15        2972.00           1516        7209.00     31426.74
 1275.18        2972.25           1519        5885.00     25645.27
 1275.21        2972.50           1523        4001.00     17421.92
 1275.24        2972.75           1526        2675.00     11636.58
 1275.27        2973.00           1529        1403.00      6088.73
 1275.30        2973.25           1533         493.00      2120.88
 1275.34        2973.50           1536         337.00      1440.78
 1275.37        2973.75           1539         279.00      1187.92
 1275.40        2974.00           1543         216.00       913.28
 1275.43        2974.25           1546         187.00       786.85
 1275.46        2974.50           1549         118.00       486.06
 1275.49        2974.75           1553          94.00       381.43
 1275.52        2975.00           1556          72.00       285.53
 1275.55        2975.25           1559          61.00       237.58
 1275.58        2975.50           1563          54.00       207.06
 1275.62        2975.75           1566          67.00       263.73
 1275.65        2976.00           1569          55.00       211.42
 1275.68        2976.25           1573          58.00       224.50
 1275.71        2976.50           1576          61.00       237.58
 1275.74        2976.75           1579          53.00       202.70
 1275.77        2977.00           1583          61.00       237.58
 1275.80        2977.25           1586          65.00       255.02
 1275.83        2977.50           1590          59.00       228.86
 1275.86        2977.75           1593          50.00       189.63
 1275.89        2978.00           1596          57.00       220.14
 1275.93        2978.25           1600          58.00       224.50
 1275.96        2978.50           1603          51.00       193.99
 1275.99        2978.75           1606          53.00       202.70
 1276.02        2979.00           1610          62.00       241.94
 1276.05        2979.25           1613          56.00       215.78
 1276.08        2979.50           1616          56.00       215.78
 1276.11        2979.75           1620          54.00       207.06
 1276.14        2980.00           1623          56.00       215.78
 1276.17        2980.25           1626          55.00       211.42
 1276.20        2980.50           1630          59.00       228.86
 1276.23        2980.75           1633          51.00       193.99
 1276.26        2981.00           1637          54.00       207.06
 1276.30        2981.25           1640          50.00       189.63
 1276.33        2981.50           1643          49.00       185.27
 1276.36        2981.75           1647          52.00       198.34
 1276.39        2982.00           1650          56.00       215.78
 1276.42        2982.25           1653          51.00       193.99
 1276.45        2982.50           1657          52.00       198.34
 1276.48        2982.75           1660          55.00       211.42
 1276.51        2983.00           1663          58.00       224.50
 1276.54        2983.25           1667          43.00       159.11
 1276.58        2983.50           1670          49.00       185.27
 1276.62        2983.75           1673          53.00       202.70
 1276.66        2984.00           1677          54.00       207.06
HS scan finished at 21:16:52
end
