************************************************************
  HS Scan of (1) Internal mercury lamp
************************************************************
Integration time is 0.2294 seconds per sample
dh190518Manchester 53.47 2.23 2.804185pr1000
************************************************************
Dead Time -------------------------  3E-08 
Number of Cycles Used -------------  4 
Starting Wavelength (Angstroms) ---  2950 
Final Wavelength (Angstoms) -------  2984 
Wavelength Increment (Angstroms) --  .25 
Filter Wheel #1 Position ---------- (1) Ground quartz diffuser (ND=2.32)
Filter Wheel #2 Position ---------- (1) Neutral Density 0.494



************************************************************
HS scan start time = 01:19:38
Dark Count =  6.5 


Time (GMT)  Wavelength (Ang)  Step Number  Raw Counts  Counts/Second

   80.00        2950.00           1222          62.00       241.94
   80.07        2950.25           1226          62.00       241.94
   80.10        2950.50           1229          56.00       215.78
   80.13        2950.75           1232          57.00       220.14
   80.16        2951.00           1236          61.00       237.58
   80.19        2951.25           1239          50.00       189.63
   80.22        2951.50           1242          56.00       215.78
   80.25        2951.75           1246          51.00       193.99
   80.28        2952.00           1249          49.00       185.27
   80.31        2952.25           1252          62.00       241.94
   80.34        2952.50           1256          54.00       207.06
   80.37        2952.75           1259          63.00       246.30
   80.40        2953.00           1262          58.00       224.50
   80.43        2953.25           1266          57.00       220.14
   80.46        2953.50           1269          55.00       211.42
   80.50        2953.75           1272          58.00       224.50
   80.53        2954.00           1276          52.00       198.34
   80.56        2954.25           1279          60.00       233.22
   80.59        2954.50           1282          55.00       211.42
   80.62        2954.75           1286          60.00       233.22
   80.65        2955.00           1289          60.00       233.22
   80.68        2955.25           1292          51.00       193.99
   80.71        2955.50           1296          56.00       215.78
   80.74        2955.75           1299          56.00       215.78
   80.77        2956.00           1302          56.00       215.78
   80.80        2956.25           1306          61.00       237.58
   80.83        2956.50           1309          61.00       237.58
   80.86        2956.75           1312          63.00       246.30
   80.89        2957.00           1316          57.00       220.14
   80.93        2957.25           1319          55.00       211.42
   80.96        2957.50           1322          55.00       211.42
   80.99        2957.75           1326          61.00       237.58
   81.02        2958.00           1329          50.00       189.63
   81.05        2958.25           1332          67.00       263.73
   81.08        2958.50           1336          59.00       228.86
   81.11        2958.75           1339          64.00       250.66
   81.14        2959.00           1342          57.00       220.14
   81.17        2959.25           1346          56.00       215.78
   81.20        2959.50           1349          73.00       289.89
   81.23        2959.75           1352          70.00       276.81
   81.27        2960.00           1356          93.00       377.07
   81.30        2960.25           1359         129.00       534.01
   81.33        2960.50           1362         161.00       673.51
   81.36        2960.75           1366         218.00       922.00
   81.39        2961.00           1369         254.00      1078.94
   81.42        2961.25           1372         281.00      1196.64
   81.45        2961.50           1376         339.00      1449.50
   81.48        2961.75           1379         440.00      1889.82
   81.51        2962.00           1382         826.00      3572.75
   81.54        2962.25           1386        2189.00      9516.67
   81.57        2962.50           1389        3458.00     15052.57
   81.61        2962.75           1392        4888.00     21293.02
   81.64        2963.00           1396        6780.00     29553.22
   81.67        2963.25           1399        8093.00     35287.99
   81.70        2963.50           1402        9564.00     41715.21
   81.73        2963.75           1406       11604.00     50632.65
   81.76        2964.00           1409       12805.00     55884.82
   81.79        2964.25           1412       14457.00     63111.98
   81.82        2964.50           1416       16536.00     72211.63
   81.85        2964.75           1419       17976.00     78517.35
   81.88        2965.00           1422       19535.00     85346.84
   81.91        2965.25           1426       21540.00     94134.25
   81.95        2965.50           1429       22890.00    100053.60
   81.98        2965.75           1432       24270.00    106106.60
   82.01        2966.00           1436       26137.00    114299.30
   82.04        2966.25           1439       27581.00    120638.50
   82.07        2966.50           1442       28942.00    126615.60
   82.10        2966.75           1446       30492.00    133425.30
   82.13        2967.00           1449       31183.00    136462.10
   82.17        2967.25           1452       31485.00    137789.40
   82.20        2967.50           1456       31796.00    139156.40
   82.23        2967.75           1459       31584.00    138224.60
   82.26        2968.00           1462       31406.00    137442.20
   82.29        2968.25           1466       30905.00    135240.30
   82.32        2968.50           1469       29900.00    130824.10
   82.35        2968.75           1472       28485.00    124608.40
   82.38        2969.00           1476       26640.00    116507.20
   82.41        2969.25           1479       25267.00    110481.10
   82.44        2969.50           1482       23737.00    103768.50
   82.48        2969.75           1486       21861.00     95541.55
   82.51        2970.00           1489       20581.00     89930.62
   82.54        2970.25           1492       19130.00     83572.40
   82.57        2970.50           1496       17016.00     74313.27
   82.60        2970.75           1499       15573.00     67996.02
   82.63        2971.00           1502       14045.00     61309.26
   82.66        2971.25           1506       12172.00     53116.40
   82.69        2971.50           1509       10767.00     46973.30
   82.72        2971.75           1513        8800.00     38376.77
   82.75        2972.00           1516        7340.00     31998.88
   82.79        2972.25           1519        5919.00     25793.71
   82.82        2972.50           1523        4082.00     17775.39
   82.85        2972.75           1526        2688.00     11693.29
   82.88        2973.00           1529        1321.00      5731.15
   82.91        2973.25           1533         439.00      1885.46
   82.94        2973.50           1536         312.00      1331.79
   82.97        2973.75           1539         253.00      1074.58
   83.00        2974.00           1543         207.00       874.04
   83.03        2974.25           1546         147.00       612.48
   83.06        2974.50           1549         127.00       525.29
   83.09        2974.75           1553          96.00       390.15
   83.12        2975.00           1556          69.00       272.45
   83.16        2975.25           1559          60.00       233.22
   83.19        2975.50           1563          55.00       211.42
   83.22        2975.75           1566          59.00       228.86
   83.25        2976.00           1569          59.00       228.86
   83.28        2976.25           1573          52.00       198.34
   83.31        2976.50           1576          52.00       198.34
   83.34        2976.75           1579          53.00       202.70
   83.37        2977.00           1583          56.00       215.78
   83.40        2977.25           1586          53.00       202.70
   83.43        2977.50           1590          51.00       193.99
   83.46        2977.75           1593          47.00       176.55
   83.50        2978.00           1596          57.00       220.14
   83.53        2978.25           1600          58.00       224.50
   83.56        2978.50           1603          50.00       189.63
   83.59        2978.75           1606          51.00       193.99
   83.62        2979.00           1610          50.00       189.63
   83.65        2979.25           1613          54.00       207.06
   83.68        2979.50           1616          57.00       220.14
   83.71        2979.75           1620          55.00       211.42
   83.74        2980.00           1623          62.00       241.94
   83.77        2980.25           1626          59.00       228.86
   83.80        2980.50           1630          47.00       176.55
   83.84        2980.75           1633          46.00       172.19
   83.87        2981.00           1637          54.00       207.06
   83.90        2981.25           1640          51.00       193.99
   83.93        2981.50           1643          57.00       220.14
   83.96        2981.75           1647          51.00       193.99
   83.99        2982.00           1650          51.00       193.99
   84.02        2982.25           1653          49.00       185.27
   84.05        2982.50           1657          49.00       185.27
   84.08        2982.75           1660          53.00       202.70
   84.11        2983.00           1663          57.00       220.14
   84.14        2983.25           1667          55.00       211.42
   84.17        2983.50           1670          51.00       193.99
   84.20        2983.75           1673          55.00       211.42
   84.23        2984.00           1677          53.00       202.70
HS scan finished at 01:24:27
end
************************************************************
  HS Scan of (1) Internal mercury lamp
************************************************************
Integration time is 0.2294 seconds per sample
dh190518Manchester 53.47 2.23 2.965129pr1000
************************************************************
Dead Time -------------------------  3E-08 
Number of Cycles Used -------------  4 
Starting Wavelength (Angstroms) ---  2950 
Final Wavelength (Angstoms) -------  2984 
Wavelength Increment (Angstroms) --  .25 
Filter Wheel #1 Position ---------- (1) Ground quartz diffuser (ND=2.32)
Filter Wheel #2 Position ---------- (1) Neutral Density 0.494



************************************************************
HS scan start time = 21:13:19
Dark Count =  6 


Time (GMT)  Wavelength (Ang)  Step Number  Raw Counts  Counts/Second

 1273.68        2950.00           1222          55.00       213.60
 1273.75        2950.25           1226          64.00       252.84
 1273.78        2950.50           1229          58.00       226.68
 1273.81        2950.75           1232          60.00       235.40
 1273.84        2951.00           1236          57.00       222.32
 1273.87        2951.25           1239          65.00       257.19
 1273.90        2951.50           1242          57.00       222.32
 1273.93        2951.75           1246          63.00       248.48
 1273.96        2952.00           1249          62.00       244.12
 1274.00        2952.25           1252          55.00       213.60
 1274.03        2952.50           1256          56.00       217.96
 1274.06        2952.75           1259          62.00       244.12
 1274.09        2953.00           1262          56.00       217.96
 1274.12        2953.25           1266          67.00       265.91
 1274.15        2953.50           1269          58.00       226.68
 1274.18        2953.75           1272          52.00       200.52
 1274.21        2954.00           1276          56.00       217.96
 1274.24        2954.25           1279          55.00       213.60
 1274.27        2954.50           1282          63.00       248.48
 1274.31        2954.75           1286          63.00       248.48
 1274.34        2955.00           1289          56.00       217.96
 1274.37        2955.25           1292          53.00       204.88
 1274.40        2955.50           1296          60.00       235.40
 1274.43        2955.75           1299          61.00       239.76
 1274.46        2956.00           1302          57.00       222.32
 1274.49        2956.25           1306          51.00       196.17
 1274.52        2956.50           1309          64.00       252.84
 1274.55        2956.75           1312          55.00       213.60
 1274.58        2957.00           1316          55.00       213.60
 1274.62        2957.25           1319          61.00       239.76
 1274.65        2957.50           1322          54.00       209.24
 1274.68        2957.75           1326          53.00       204.88
 1274.71        2958.00           1329          64.00       252.84
 1274.74        2958.25           1332          56.00       217.96
 1274.77        2958.50           1336          67.00       265.91
 1274.80        2958.75           1339          62.00       244.12
 1274.83        2959.00           1342          63.00       248.48
 1274.86        2959.25           1346          63.00       248.48
 1274.89        2959.50           1349          58.00       226.68
 1274.92        2959.75           1352          80.00       322.58
 1274.95        2960.00           1356         100.00       409.77
 1274.98        2960.25           1359         126.00       523.11
 1275.01        2960.50           1362         157.00       658.25
 1275.05        2960.75           1366         212.00       898.02
 1275.08        2961.00           1369         250.00      1063.68
 1275.11        2961.25           1372         286.00      1220.62
 1275.14        2961.50           1376         372.00      1595.54
 1275.17        2961.75           1379         467.00      2009.71
 1275.20        2962.00           1382         918.00      3976.06
 1275.23        2962.25           1386        2456.00     10683.46
 1275.26        2962.50           1389        3947.00     17188.46
 1275.29        2962.75           1392        5319.00     23176.53
 1275.32        2963.00           1396        7525.00     32809.09
 1275.35        2963.25           1399        9165.00     39973.81
 1275.39        2963.50           1402       10657.00     46494.63
 1275.42        2963.75           1406       12680.00     55340.28
 1275.45        2964.00           1409       14375.00     62755.35
 1275.48        2964.25           1412       15977.00     69766.62
 1275.51        2964.50           1416       18113.00     79119.58
 1275.54        2964.75           1419       19402.00     84766.29
 1275.57        2965.00           1422       20969.00     91633.42
 1275.60        2965.25           1426       23114.00    101038.20
 1275.64        2965.50           1429       24623.00    107657.50
 1275.67        2965.75           1432       26287.00    114959.90
 1275.70        2966.00           1436       28643.00    125304.50
 1275.73        2966.25           1439       29986.00    131204.20
 1275.76        2966.50           1442       31431.00    137554.30
 1275.79        2966.75           1446       32954.00    144249.80
 1275.82        2967.00           1449       33378.00    146114.30
 1275.85        2967.25           1452       33407.00    146241.80
 1275.88        2967.50           1456       33587.00    147033.40
 1275.91        2967.75           1459       33512.00    146703.50
 1275.95        2968.00           1462       33387.00    146153.80
 1275.98        2968.25           1466       32733.00    143278.00
 1276.01        2968.50           1469       31354.00    137215.80
 1276.04        2968.75           1472       30065.00    131551.30
 1276.07        2969.00           1476       27835.00    121756.10
 1276.10        2969.25           1479       26518.00    115973.90
 1276.13        2969.50           1482       24787.00    108377.10
 1276.16        2969.75           1486       22690.00     99178.69
 1276.19        2970.00           1489       21060.00     92032.31
 1276.22        2970.25           1492       19606.00     85660.13
 1276.26        2970.50           1496       17515.00     76500.56
 1276.29        2970.75           1499       16136.00     70462.66
 1276.32        2971.00           1502       14733.00     64321.91
 1276.35        2971.25           1506       12676.00     55322.78
 1276.38        2971.50           1509       11205.00     48890.32
 1276.41        2971.75           1513        9153.00     39921.37
 1276.44        2972.00           1516        7546.00     32900.81
 1276.47        2972.25           1519        5965.00     25996.73
 1276.50        2972.50           1523        3956.00     17227.74
 1276.53        2972.75           1526        2521.00     10966.99
 1276.57        2973.00           1529        1196.00      5188.25
 1276.60        2973.25           1533         494.00      2127.42
 1276.63        2973.50           1536         344.00      1473.47
 1276.66        2973.75           1539         284.00      1211.90
 1276.69        2974.00           1543         243.00      1033.16
 1276.72        2974.25           1546         183.00       771.60
 1276.75        2974.50           1549         140.00       584.14
 1276.78        2974.75           1553          98.00       401.05
 1276.81        2975.00           1556          82.00       331.30
 1276.85        2975.25           1559          66.00       261.55
 1276.88        2975.50           1563          49.00       187.45
 1276.91        2975.75           1566          55.00       213.60
 1276.94        2976.00           1569          54.00       209.24
 1276.97        2976.25           1573          57.00       222.32
 1277.00        2976.50           1576          55.00       213.60
 1277.03        2976.75           1579          58.00       226.68
 1277.06        2977.00           1583          58.00       226.68
 1277.09        2977.25           1586          57.00       222.32
 1277.13        2977.50           1590          55.00       213.60
 1277.16        2977.75           1593          59.00       231.04
 1277.19        2978.00           1596          52.00       200.52
 1277.22        2978.25           1600          62.00       244.12
 1277.25        2978.50           1603          53.00       204.88
 1277.28        2978.75           1606          53.00       204.88
 1277.31        2979.00           1610          52.00       200.52
 1277.34        2979.25           1613          46.00       174.37
 1277.37        2979.50           1616          47.00       178.73
 1277.40        2979.75           1620          59.00       231.04
 1277.43        2980.00           1623          51.00       196.17
 1277.46        2980.25           1626          52.00       200.52
 1277.50        2980.50           1630          47.00       178.73
 1277.53        2980.75           1633          54.00       209.24
 1277.56        2981.00           1637          45.00       170.01
 1277.59        2981.25           1640          55.00       213.60
 1277.62        2981.50           1643          53.00       204.88
 1277.65        2981.75           1647          51.00       196.17
 1277.68        2982.00           1650          54.00       209.24
 1277.71        2982.25           1653          50.00       191.81
 1277.74        2982.50           1657          58.00       226.68
 1277.78        2982.75           1660          55.00       213.60
 1277.81        2983.00           1663          59.00       231.04
 1277.84        2983.25           1667          55.00       213.60
 1277.87        2983.50           1670          54.00       209.24
 1277.90        2983.75           1673          50.00       191.81
 1277.93        2984.00           1677          45.00       170.01
HS scan finished at 21:18:09
end
