************************************************************
  HS Scan of (1) Internal mercury lamp
************************************************************
Integration time is 0.2294 seconds per sample
dh290518Manchester 53.47 2.23 2.804185pr1000
************************************************************
Dead Time -------------------------  3E-08 
Number of Cycles Used -------------  4 
Starting Wavelength (Angstroms) ---  2950 
Final Wavelength (Angstoms) -------  2984 
Wavelength Increment (Angstroms) --  .25 
Filter Wheel #1 Position ---------- (1) Ground quartz diffuser (ND=2.32)
Filter Wheel #2 Position ---------- (1) Neutral Density 0.494



************************************************************
HS scan start time = 01:34:32
Dark Count =  7.3 


Time (GMT)  Wavelength (Ang)  Step Number  Raw Counts  Counts/Second

   94.90        2950.00           1222          61.00       234.09
   94.96        2950.25           1226          48.00       177.42
   95.00        2950.50           1229          53.00       199.22
   95.03        2950.75           1232          61.00       234.09
   95.06        2951.00           1236          57.00       216.65
   95.09        2951.25           1239          57.00       216.65
   95.12        2951.50           1242          55.00       207.94
   95.15        2951.75           1246          57.00       216.65
   95.18        2952.00           1249          54.00       203.58
   95.21        2952.25           1252          51.00       190.50
   95.24        2952.50           1256          56.00       212.29
   95.27        2952.75           1259          58.00       221.01
   95.31        2953.00           1262          53.00       199.22
   95.34        2953.25           1266          60.00       229.73
   95.37        2953.50           1269          57.00       216.65
   95.40        2953.75           1272          55.00       207.94
   95.43        2954.00           1276          61.00       234.09
   95.46        2954.25           1279          50.00       186.14
   95.49        2954.50           1282          58.00       221.01
   95.52        2954.75           1286          56.00       212.29
   95.55        2955.00           1289          56.00       212.29
   95.58        2955.25           1292          54.00       203.58
   95.61        2955.50           1296          61.00       234.09
   95.64        2955.75           1299          61.00       234.09
   95.68        2956.00           1302          51.00       190.50
   95.71        2956.25           1306          48.00       177.42
   95.74        2956.50           1309          56.00       212.29
   95.77        2956.75           1312          57.00       216.65
   95.80        2957.00           1316          61.00       234.09
   95.83        2957.25           1319          64.00       247.17
   95.86        2957.50           1322          50.00       186.14
   95.89        2957.75           1326          53.00       199.22
   95.92        2958.00           1329          59.00       225.37
   95.95        2958.25           1332          58.00       221.01
   95.98        2958.50           1336          53.00       199.22
   96.01        2958.75           1339          63.00       242.81
   96.05        2959.00           1342          57.00       216.65
   96.08        2959.25           1346          54.00       203.58
   96.11        2959.50           1349          65.00       251.53
   96.14        2959.75           1352          69.00       268.96
   96.17        2960.00           1356          95.00       382.31
   96.20        2960.25           1359         122.00       500.01
   96.23        2960.50           1362         152.00       630.79
   96.26        2960.75           1366         218.00       918.51
   96.29        2961.00           1369         241.00      1018.78
   96.32        2961.25           1372         300.00      1275.99
   96.36        2961.50           1376         422.00      1807.86
   96.39        2961.75           1379         867.00      3748.02
   96.42        2962.00           1382        1909.00      8291.95
   96.45        2962.25           1386        3691.00     16065.72
   96.48        2962.50           1389        5152.00     22441.87
   96.51        2962.75           1392        6607.00     28794.26
   96.54        2963.00           1396        8461.00     36892.16
   96.57        2963.25           1399        9705.00     42327.91
   96.60        2963.50           1402       11299.00     49295.61
   96.63        2963.75           1406       13058.00     56987.94
   96.67        2964.00           1409       14566.00     63585.44
   96.70        2964.25           1412       16008.00     69896.63
   96.73        2964.50           1416       18053.00     78851.08
   96.76        2964.75           1419       19475.00     85080.44
   96.79        2965.00           1422       21058.00     92017.83
   96.82        2965.25           1426       23132.00    101111.40
   96.85        2965.50           1429       24370.00    106541.80
   96.88        2965.75           1432       25837.00    112979.10
   96.91        2966.00           1436       27670.00    121025.80
   96.95        2966.25           1439       29149.00    127521.40
   96.98        2966.50           1442       30227.00    132257.40
   97.01        2966.75           1446       31030.00    135786.10
   97.04        2967.00           1449       31016.00    135724.60
   97.07        2967.25           1452       31263.00    136810.10
   97.10        2967.50           1456       31261.00    136801.40
   97.13        2967.75           1459       31111.00    136142.10
   97.16        2968.00           1462       30542.00    133641.50
   97.19        2968.25           1466       29077.00    127205.10
   97.23        2968.50           1469       27850.00    121816.20
   97.26        2968.75           1472       26576.00    116222.70
   97.29        2969.00           1476       24505.00    107134.10
   97.32        2969.25           1479       23447.00    102493.00
   97.35        2969.50           1482       22026.00     96261.46
   97.38        2969.75           1486       20086.00     87757.76
   97.41        2970.00           1489       18711.00     81733.29
   97.44        2970.25           1492       17160.00     74940.31
   97.47        2970.50           1496       15217.00     66434.37
   97.51        2970.75           1499       13673.00     59678.24
   97.54        2971.00           1502       12114.00     52859.26
   97.57        2971.25           1506       10448.00     45575.35
   97.60        2971.50           1509        8932.00     38950.02
   97.63        2971.75           1513        7023.00     30610.93
   97.66        2972.00           1516        5498.00     23952.26
   97.69        2972.25           1519        4234.00     18435.22
   97.72        2972.50           1523        2323.00     10097.65
   97.75        2972.75           1526        1172.00      5077.93
   97.78        2973.00           1529         596.00      2566.46
   97.82        2973.25           1533         354.00      1511.40
   97.85        2973.50           1536         292.00      1241.11
   97.88        2973.75           1539         249.00      1053.65
   97.91        2974.00           1543         223.00       940.31
   97.94        2974.25           1546         169.00       704.90
   97.97        2974.50           1549         131.00       539.24
   98.00        2974.75           1553          83.00       329.99
   98.03        2975.00           1556          69.00       268.96
   98.07        2975.25           1559          64.00       247.17
   98.10        2975.50           1563          52.00       194.86
   98.13        2975.75           1566          54.00       203.58
   98.16        2976.00           1569          50.00       186.14
   98.19        2976.25           1573          54.00       203.58
   98.22        2976.50           1576          53.00       199.22
   98.25        2976.75           1579          52.00       194.86
   98.28        2977.00           1583          59.00       225.37
   98.31        2977.25           1586          48.00       177.42
   98.35        2977.50           1590          56.00       212.29
   98.38        2977.75           1593          57.00       216.65
   98.41        2978.00           1596          46.00       168.70
   98.44        2978.25           1600          51.00       190.50
   98.47        2978.50           1603          54.00       203.58
   98.50        2978.75           1606          51.00       190.50
   98.53        2979.00           1610          53.00       199.22
   98.56        2979.25           1613          56.00       212.29
   98.59        2979.50           1616          55.00       207.94
   98.62        2979.75           1620          50.00       186.14
   98.65        2980.00           1623          51.00       190.50
   98.68        2980.25           1626          48.00       177.42
   98.72        2980.50           1630          61.00       234.09
   98.75        2980.75           1633          52.00       194.86
   98.78        2981.00           1637          52.00       194.86
   98.81        2981.25           1640          57.00       216.65
   98.84        2981.50           1643          55.00       207.94
   98.87        2981.75           1647          53.00       199.22
   98.90        2982.00           1650          48.00       177.42
   98.93        2982.25           1653          48.00       177.42
   98.96        2982.50           1657          53.00       199.22
   98.99        2982.75           1660          48.00       177.42
   99.03        2983.00           1663          55.00       207.94
   99.06        2983.25           1667          57.00       216.65
   99.09        2983.50           1670          52.00       194.86
   99.12        2983.75           1673          57.00       216.65
   99.15        2984.00           1677          50.00       186.14
HS scan finished at 01:39:22
end
************************************************************
  HS Scan of (1) Internal mercury lamp
************************************************************
Integration time is 0.2294 seconds per sample
dh290518Manchester 53.47 2.23 2.857833pr1000
************************************************************
Dead Time -------------------------  3E-08 
Number of Cycles Used -------------  4 
Starting Wavelength (Angstroms) ---  2950 
Final Wavelength (Angstoms) -------  2984 
Wavelength Increment (Angstroms) --  .25 
Filter Wheel #1 Position ---------- (1) Ground quartz diffuser (ND=2.32)
Filter Wheel #2 Position ---------- (1) Neutral Density 0.494



************************************************************
HS scan start time = 21:12:03
Dark Count =  7.8 


Time (GMT)  Wavelength (Ang)  Step Number  Raw Counts  Counts/Second

 1272.43        2950.00           1222          60.00       227.55
 1272.49        2950.25           1226          63.00       240.63
 1272.53        2950.50           1229          62.00       236.27
 1272.56        2950.75           1232          54.00       201.40
 1272.59        2951.00           1236          57.00       214.47
 1272.62        2951.25           1239          59.00       223.19
 1272.65        2951.50           1242          51.00       188.32
 1272.68        2951.75           1246          56.00       210.11
 1272.71        2952.00           1249          62.00       236.27
 1272.74        2952.25           1252          59.00       223.19
 1272.77        2952.50           1256          50.00       183.96
 1272.81        2952.75           1259          56.00       210.11
 1272.84        2953.00           1262          62.00       236.27
 1272.87        2953.25           1266          51.00       188.32
 1272.90        2953.50           1269          52.00       192.68
 1272.93        2953.75           1272          63.00       240.63
 1272.96        2954.00           1276          58.00       218.83
 1272.99        2954.25           1279          57.00       214.47
 1273.02        2954.50           1282          61.00       231.91
 1273.06        2954.75           1286          65.00       249.35
 1273.09        2955.00           1289          65.00       249.35
 1273.12        2955.25           1292          62.00       236.27
 1273.15        2955.50           1296          59.00       223.19
 1273.18        2955.75           1299          62.00       236.27
 1273.21        2956.00           1302          67.00       258.07
 1273.24        2956.25           1306          59.00       223.19
 1273.27        2956.50           1309          62.00       236.27
 1273.30        2956.75           1312          55.00       205.76
 1273.33        2957.00           1316          57.00       214.47
 1273.37        2957.25           1319          63.00       240.63
 1273.40        2957.50           1322          49.00       179.60
 1273.43        2957.75           1326          60.00       227.55
 1273.46        2958.00           1329          60.00       227.55
 1273.49        2958.25           1332          54.00       201.40
 1273.52        2958.50           1336          60.00       227.55
 1273.55        2958.75           1339          57.00       214.47
 1273.58        2959.00           1342          56.00       210.11
 1273.61        2959.25           1346          64.00       244.99
 1273.65        2959.50           1349          73.00       284.22
 1273.68        2959.75           1352          81.00       319.10
 1273.71        2960.00           1356         105.00       423.72
 1273.74        2960.25           1359         141.00       580.66
 1273.77        2960.50           1362         175.00       728.87
 1273.80        2960.75           1366         225.00       946.84
 1273.83        2961.00           1369         268.00      1134.30
 1273.86        2961.25           1372         297.00      1260.73
 1273.89        2961.50           1376         390.00      1666.17
 1273.92        2961.75           1379         616.00      2651.48
 1273.96        2962.00           1382        1339.00      5803.98
 1273.99        2962.25           1386        3077.00     13384.62
 1274.02        2962.50           1389        4519.00     19676.83
 1274.05        2962.75           1392        6058.00     26394.92
 1274.08        2963.00           1396        7874.00     34325.66
 1274.11        2963.25           1399        9339.00     40726.28
 1274.14        2963.50           1402       10920.00     47636.48
 1274.17        2963.75           1406       12854.00     56093.44
 1274.21        2964.00           1409       14327.00     62537.45
 1274.24        2964.25           1412       15967.00     69714.97
 1274.27        2964.50           1416       17796.00     77723.31
 1274.30        2964.75           1419       19166.00     83724.41
 1274.33        2965.00           1422       20658.00     90262.39
 1274.36        2965.25           1426       22693.00     99183.96
 1274.39        2965.50           1429       24168.00    105653.50
 1274.42        2965.75           1432       25329.00    110747.50
 1274.45        2966.00           1436       27318.00    119478.10
 1274.49        2966.25           1439       28973.00    126746.10
 1274.52        2966.50           1442       30270.00    132444.10
 1274.55        2966.75           1446       31663.00    138566.10
 1274.58        2967.00           1449       31787.00    139111.20
 1274.61        2967.25           1452       31868.00    139467.30
 1274.64        2967.50           1456       31866.00    139458.40
 1274.67        2967.75           1459       31863.00    139445.30
 1274.70        2968.00           1462       31602.00    138298.00
 1274.73        2968.25           1466       30583.00    133819.50
 1274.77        2968.50           1469       29279.00    128090.20
 1274.80        2968.75           1472       27840.00    121770.10
 1274.83        2969.00           1476       26000.00    113692.30
 1274.86        2969.25           1479       24489.00    107061.70
 1274.89        2969.50           1482       22947.00    100297.90
 1274.92        2969.75           1486       20998.00     91752.64
 1274.95        2970.00           1489       19626.00     85739.88
 1274.98        2970.25           1492       18189.00     79444.56
 1275.02        2970.50           1496       16251.00     70958.22
 1275.05        2970.75           1499       14784.00     64537.21
 1275.08        2971.00           1502       13367.00     58337.41
 1275.11        2971.25           1506       11384.00     49665.06
 1275.14        2971.50           1509        9828.00     42863.28
 1275.17        2971.75           1513        7868.00     34299.44
 1275.20        2972.00           1516        6437.00     28049.75
 1275.23        2972.25           1519        4970.00     21645.26
 1275.26        2972.50           1523        3081.00     13402.07
 1275.30        2972.75           1526        1630.00      7072.99
 1275.33        2973.00           1529         641.00      2760.47
 1275.36        2973.25           1533         361.00      1539.74
 1275.39        2973.50           1536         275.00      1164.82
 1275.42        2973.75           1539         240.00      1012.24
 1275.45        2974.00           1543         210.00       881.45
 1275.48        2974.25           1546         149.00       615.53
 1275.51        2974.50           1549         123.00       502.19
 1275.54        2974.75           1553          79.00       310.38
 1275.57        2975.00           1556          67.00       258.07
 1275.61        2975.25           1559          55.00       205.76
 1275.64        2975.50           1563          65.00       249.35
 1275.67        2975.75           1566          48.00       175.24
 1275.70        2976.00           1569          61.00       231.91
 1275.73        2976.25           1573          57.00       214.47
 1275.76        2976.50           1576          54.00       201.40
 1275.79        2976.75           1579          59.00       223.19
 1275.82        2977.00           1583          54.00       201.40
 1275.85        2977.25           1586          65.00       249.35
 1275.88        2977.50           1590          50.00       183.96
 1275.91        2977.75           1593          52.00       192.68
 1275.94        2978.00           1596          54.00       201.40
 1275.98        2978.25           1600          61.00       231.91
 1276.01        2978.50           1603          46.00       166.52
 1276.04        2978.75           1606          57.00       214.47
 1276.07        2979.00           1610          52.00       192.68
 1276.10        2979.25           1613          56.00       210.11
 1276.13        2979.50           1616          52.00       192.68
 1276.16        2979.75           1620          61.00       231.91
 1276.19        2980.00           1623          57.00       214.47
 1276.22        2980.25           1626          47.00       170.88
 1276.25        2980.50           1630          48.00       175.24
 1276.29        2980.75           1633          56.00       210.11
 1276.32        2981.00           1637          49.00       179.60
 1276.35        2981.25           1640          55.00       205.76
 1276.38        2981.50           1643          55.00       205.76
 1276.41        2981.75           1647          55.00       205.76
 1276.44        2982.00           1650          51.00       188.32
 1276.47        2982.25           1653          48.00       175.24
 1276.50        2982.50           1657          49.00       179.60
 1276.53        2982.75           1660          56.00       210.11
 1276.56        2983.00           1663          46.00       166.52
 1276.59        2983.25           1667          51.00       188.32
 1276.62        2983.50           1670          48.00       175.24
 1276.65        2983.75           1673          46.00       166.52
 1276.68        2984.00           1677          51.00       188.32
HS scan finished at 21:16:54
end
