************************************************************
  HS Scan of (1) Internal mercury lamp
************************************************************
Integration time is 0.2294 seconds per sample
dh250518Manchester 53.47 2.23 2.804185pr1000
************************************************************
Dead Time -------------------------  3E-08 
Number of Cycles Used -------------  4 
Starting Wavelength (Angstroms) ---  2950 
Final Wavelength (Angstoms) -------  2984 
Wavelength Increment (Angstroms) --  .25 
Filter Wheel #1 Position ---------- (1) Ground quartz diffuser (ND=2.32)
Filter Wheel #2 Position ---------- (1) Neutral Density 0.494



************************************************************
HS scan start time = 01:29:15
Dark Count =  6.9 


Time (GMT)  Wavelength (Ang)  Step Number  Raw Counts  Counts/Second

   89.62        2950.00           1222          55.00       209.68
   89.68        2950.25           1226          57.00       218.40
   89.71        2950.50           1229          51.00       192.24
   89.75        2950.75           1232          62.00       240.19
   89.78        2951.00           1236          60.00       231.48
   89.81        2951.25           1239          55.00       209.68
   89.84        2951.50           1242          57.00       218.40
   89.87        2951.75           1246          59.00       227.12
   89.90        2952.00           1249          61.00       235.83
   89.93        2952.25           1252          56.00       214.04
   89.96        2952.50           1256          58.00       222.76
   89.99        2952.75           1259          62.00       240.19
   90.02        2953.00           1262          66.00       257.63
   90.05        2953.25           1266          53.00       200.96
   90.08        2953.50           1269          52.00       196.60
   90.11        2953.75           1272          52.00       196.60
   90.14        2954.00           1276          59.00       227.12
   90.17        2954.25           1279          53.00       200.96
   90.21        2954.50           1282          53.00       200.96
   90.24        2954.75           1286          56.00       214.04
   90.27        2955.00           1289          54.00       205.32
   90.30        2955.25           1292          64.00       248.91
   90.33        2955.50           1296          54.00       205.32
   90.36        2955.75           1299          61.00       235.83
   90.39        2956.00           1302          58.00       222.76
   90.42        2956.25           1306          49.00       183.52
   90.45        2956.50           1309          56.00       214.04
   90.48        2956.75           1312          58.00       222.76
   90.52        2957.00           1316          62.00       240.19
   90.55        2957.25           1319          60.00       231.48
   90.58        2957.50           1322          58.00       222.76
   90.61        2957.75           1326          62.00       240.19
   90.64        2958.00           1329          62.00       240.19
   90.67        2958.25           1332          61.00       235.83
   90.70        2958.50           1336          58.00       222.76
   90.73        2958.75           1339          58.00       222.76
   90.76        2959.00           1342          58.00       222.76
   90.79        2959.25           1346          56.00       214.04
   90.83        2959.50           1349          59.00       227.12
   90.86        2959.75           1352          70.00       275.07
   90.89        2960.00           1356          97.00       392.77
   90.92        2960.25           1359         121.00       497.39
   90.95        2960.50           1362         167.00       697.92
   90.98        2960.75           1366         203.00       854.86
   91.01        2961.00           1369         240.00      1016.16
   91.04        2961.25           1372         286.00      1216.70
   91.08        2961.50           1376         355.00      1517.51
   91.11        2961.75           1379         483.00      2075.54
   91.14        2962.00           1382         993.00      4299.16
   91.17        2962.25           1386        2533.00     11015.41
   91.20        2962.50           1389        3900.00     16979.44
   91.23        2962.75           1392        5448.00     23735.73
   91.26        2963.00           1396        7318.00     31901.05
   91.29        2963.25           1399        8659.00     37758.97
   91.33        2963.50           1402       10092.00     44021.05
   91.36        2963.75           1406       11831.00     51623.48
   91.39        2964.00           1409       13254.00     57847.03
   91.42        2964.25           1412       14817.00     64685.56
   91.45        2964.50           1416       17017.00     74315.90
   91.48        2964.75           1419       18402.00     80381.49
   91.51        2965.00           1422       20031.00     87518.50
   91.54        2965.25           1426       21850.00     95491.57
   91.57        2965.50           1429       23376.00    102183.30
   91.60        2965.75           1432       24643.00    107741.30
   91.64        2966.00           1436       26384.00    115381.70
   91.67        2966.25           1439       27952.00    122265.90
   91.70        2966.50           1442       29146.00    127509.90
   91.73        2966.75           1446       30646.00    134100.30
   91.76        2967.00           1449       31214.00    136596.50
   91.79        2967.25           1452       31264.00    136816.30
   91.82        2967.50           1456       31253.00    136767.90
   91.86        2967.75           1459       31203.00    136548.20
   91.89        2968.00           1462       31079.00    136003.20
   91.92        2968.25           1466       30146.00    131903.20
   91.95        2968.50           1469       29021.00    126960.90
   91.98        2968.75           1472       27421.00    119934.30
   92.01        2969.00           1476       25859.00    113077.40
   92.04        2969.25           1479       24356.00    106482.20
   92.07        2969.50           1482       23135.00    101126.30
   92.10        2969.75           1486       21122.00     92300.12
   92.14        2970.00           1489       19766.00     86357.27
   92.17        2970.25           1492       18588.00     81196.25
   92.20        2970.50           1496       16391.00     71575.06
   92.23        2970.75           1499       15014.00     65547.69
   92.26        2971.00           1502       13452.00     58713.18
   92.29        2971.25           1506       11604.00     50630.90
   92.32        2971.50           1509       10075.00     43946.74
   92.35        2971.75           1513        8358.00     36443.92
   92.38        2972.00           1516        6893.00     30044.94
   92.42        2972.25           1519        5491.00     23923.44
   92.45        2972.50           1523        3734.00     16255.09
   92.48        2972.75           1526        2344.00     10191.00
   92.51        2973.00           1529        1135.00      4918.34
   92.54        2973.25           1533         437.00      1875.00
   92.57        2973.50           1536         320.00      1364.92
   92.60        2973.75           1539         269.00      1142.59
   92.63        2974.00           1543         229.00       968.21
   92.66        2974.25           1546         177.00       741.52
   92.70        2974.50           1549         147.00       610.73
   92.73        2974.75           1553          96.00       388.41
   92.76        2975.00           1556          72.00       283.79
   92.79        2975.25           1559          65.00       253.27
   92.82        2975.50           1563          55.00       209.68
   92.85        2975.75           1566          47.00       174.80
   92.88        2976.00           1569          51.00       192.24
   92.91        2976.25           1573          57.00       218.40
   92.94        2976.50           1576          58.00       222.76
   92.97        2976.75           1579          55.00       209.68
   93.00        2977.00           1583          60.00       231.48
   93.04        2977.25           1586          48.00       179.16
   93.07        2977.50           1590          56.00       214.04
   93.10        2977.75           1593          55.00       209.68
   93.13        2978.00           1596          61.00       235.83
   93.16        2978.25           1600          55.00       209.68
   93.19        2978.50           1603          56.00       214.04
   93.22        2978.75           1606          55.00       209.68
   93.25        2979.00           1610          50.00       187.88
   93.28        2979.25           1613          54.00       205.32
   93.31        2979.50           1616          57.00       218.40
   93.35        2979.75           1620          53.00       200.96
   93.38        2980.00           1623          59.00       227.12
   93.41        2980.25           1626          64.00       248.91
   93.44        2980.50           1630          55.00       209.68
   93.47        2980.75           1633          48.00       179.16
   93.50        2981.00           1637          51.00       192.24
   93.53        2981.25           1640          59.00       227.12
   93.56        2981.50           1643          53.00       200.96
   93.59        2981.75           1647          49.00       183.52
   93.62        2982.00           1650          50.00       187.88
   93.66        2982.25           1653          46.00       170.45
   93.69        2982.50           1657          50.00       187.88
   93.72        2982.75           1660          50.00       187.88
   93.75        2983.00           1663          48.00       179.16
   93.78        2983.25           1667          48.00       179.16
   93.81        2983.50           1670          57.00       218.40
   93.84        2983.75           1673          49.00       183.52
   93.87        2984.00           1677          66.00       257.63
HS scan finished at 01:34:05
end
************************************************************
  HS Scan of (1) Internal mercury lamp
************************************************************
Integration time is 0.2294 seconds per sample
dh250518Manchester 53.47 2.23 2.857833pr1000
************************************************************
Dead Time -------------------------  3E-08 
Number of Cycles Used -------------  4 
Starting Wavelength (Angstroms) ---  2950 
Final Wavelength (Angstoms) -------  2984 
Wavelength Increment (Angstroms) --  .25 
Filter Wheel #1 Position ---------- (1) Ground quartz diffuser (ND=2.32)
Filter Wheel #2 Position ---------- (1) Neutral Density 0.494



************************************************************
HS scan start time = 21:12:04
Dark Count =  6.6 


Time (GMT)  Wavelength (Ang)  Step Number  Raw Counts  Counts/Second

 1272.44        2950.00           1222          64.00       250.22
 1272.51        2950.25           1226          61.00       237.14
 1272.54        2950.50           1229          56.00       215.35
 1272.57        2950.75           1232          58.00       224.06
 1272.60        2951.00           1236          63.00       245.86
 1272.63        2951.25           1239          54.00       206.63
 1272.66        2951.50           1242          59.00       228.42
 1272.69        2951.75           1246          55.00       210.99
 1272.72        2952.00           1249          52.00       197.91
 1272.75        2952.25           1252          56.00       215.35
 1272.79        2952.50           1256          53.00       202.27
 1272.82        2952.75           1259          59.00       228.42
 1272.85        2953.00           1262          64.00       250.22
 1272.88        2953.25           1266          63.00       245.86
 1272.91        2953.50           1269          54.00       206.63
 1272.94        2953.75           1272          61.00       237.14
 1272.97        2954.00           1276          51.00       193.55
 1273.00        2954.25           1279          59.00       228.42
 1273.04        2954.50           1282          50.00       189.19
 1273.07        2954.75           1286          55.00       210.99
 1273.10        2955.00           1289          60.00       232.78
 1273.13        2955.25           1292          56.00       215.35
 1273.16        2955.50           1296          68.00       267.66
 1273.19        2955.75           1299          58.00       224.06
 1273.22        2956.00           1302          55.00       210.99
 1273.25        2956.25           1306          53.00       202.27
 1273.28        2956.50           1309          58.00       224.06
 1273.31        2956.75           1312          55.00       210.99
 1273.34        2957.00           1316          60.00       232.78
 1273.37        2957.25           1319          55.00       210.99
 1273.41        2957.50           1322          72.00       285.09
 1273.44        2957.75           1326          57.00       219.71
 1273.47        2958.00           1329          63.00       245.86
 1273.50        2958.25           1332          53.00       202.27
 1273.53        2958.50           1336          63.00       245.86
 1273.56        2958.75           1339          58.00       224.06
 1273.59        2959.00           1342          59.00       228.42
 1273.62        2959.25           1346          59.00       228.42
 1273.65        2959.50           1349          69.00       272.02
 1273.68        2959.75           1352          83.00       333.05
 1273.71        2960.00           1356         110.00       450.75
 1273.74        2960.25           1359         146.00       607.68
 1273.77        2960.50           1362         191.00       803.86
 1273.80        2960.75           1366         219.00       925.92
 1273.83        2961.00           1369         278.00      1183.13
 1273.86        2961.25           1372         309.00      1318.27
 1273.90        2961.50           1376         366.00      1566.77
 1273.93        2961.75           1379         462.00      1985.30
 1273.96        2962.00           1382         865.00      3742.36
 1273.99        2962.25           1386        2373.00     10318.80
 1274.02        2962.50           1389        3765.00     16391.67
 1274.05        2962.75           1392        5208.00     22689.37
 1274.08        2963.00           1396        6965.00     30360.68
 1274.11        2963.25           1399        8382.00     36550.08
 1274.14        2963.50           1402        9875.00     43073.94
 1274.17        2963.75           1406       11866.00     51777.84
 1274.21        2964.00           1409       13219.00     57695.24
 1274.24        2964.25           1412       14691.00     64135.50
 1274.27        2964.50           1416       16725.00     73038.69
 1274.30        2964.75           1419       18132.00     79200.16
 1274.33        2965.00           1422       19651.00     85854.68
 1274.36        2965.25           1426       21430.00     93651.59
 1274.39        2965.50           1429       22872.00     99974.21
 1274.42        2965.75           1432       24585.00    107488.20
 1274.45        2966.00           1436       26517.00    115966.80
 1274.49        2966.25           1439       27913.00    122095.90
 1274.52        2966.50           1442       29054.00    127107.10
 1274.55        2966.75           1446       30685.00    134273.00
 1274.58        2967.00           1449       31366.00    137265.90
 1274.61        2967.25           1452       31366.00    137265.90
 1274.64        2967.50           1456       31410.00    137459.30
 1274.67        2967.75           1459       31462.00    137687.90
 1274.70        2968.00           1462       31330.00    137107.70
 1274.73        2968.25           1466       30619.00    133983.00
 1274.77        2968.50           1469       29574.00    129391.50
 1274.80        2968.75           1472       28271.00    123668.10
 1274.83        2969.00           1476       26156.00    114382.20
 1274.86        2969.25           1479       24798.00    108422.70
 1274.89        2969.50           1482       23366.00    102140.80
 1274.92        2969.75           1486       21471.00     93831.33
 1274.95        2970.00           1489       20062.00     87655.66
 1274.98        2970.25           1492       18869.00     82428.52
 1275.01        2970.50           1496       16888.00     73752.37
 1275.05        2970.75           1499       15671.00     68424.54
 1275.08        2971.00           1502       14036.00     61269.45
 1275.11        2971.25           1506       11968.00     52223.87
 1275.14        2971.50           1509       10474.00     45692.07
 1275.17        2971.75           1513        8591.00     37463.18
 1275.20        2972.00           1516        7074.00     30836.71
 1275.23        2972.25           1519        5666.00     24688.72
 1275.26        2972.50           1523        3911.00     17028.75
 1275.29        2972.75           1526        2567.00     11165.03
 1275.32        2973.00           1529        1289.00      5591.17
 1275.35        2973.25           1533         448.00      1924.26
 1275.39        2973.50           1536         295.00      1257.24
 1275.42        2973.75           1539         258.00      1095.94
 1275.45        2974.00           1543         216.00       912.84
 1275.48        2974.25           1546         164.00       686.15
 1275.51        2974.50           1549         127.00       524.86
 1275.54        2974.75           1553          77.00       306.89
 1275.57        2975.00           1556          75.00       298.17
 1275.60        2975.25           1559          59.00       228.42
 1275.63        2975.50           1563          54.00       206.63
 1275.66        2975.75           1566          50.00       189.19
 1275.69        2976.00           1569          52.00       197.91
 1275.72        2976.25           1573          51.00       193.55
 1275.76        2976.50           1576          56.00       215.35
 1275.79        2976.75           1579          54.00       206.63
 1275.82        2977.00           1583          58.00       224.06
 1275.85        2977.25           1586          56.00       215.35
 1275.88        2977.50           1590          55.00       210.99
 1275.91        2977.75           1593          55.00       210.99
 1275.94        2978.00           1596          55.00       210.99
 1275.97        2978.25           1600          55.00       210.99
 1276.00        2978.50           1603          54.00       206.63
 1276.03        2978.75           1606          51.00       193.55
 1276.06        2979.00           1610          46.00       171.75
 1276.09        2979.25           1613          53.00       202.27
 1276.12        2979.50           1616          46.00       171.75
 1276.16        2979.75           1620          53.00       202.27
 1276.19        2980.00           1623          50.00       189.19
 1276.22        2980.25           1626          49.00       184.83
 1276.25        2980.50           1630          62.00       241.50
 1276.28        2980.75           1633          53.00       202.27
 1276.31        2981.00           1637          53.00       202.27
 1276.34        2981.25           1640          52.00       197.91
 1276.37        2981.50           1643          57.00       219.71
 1276.40        2981.75           1647          60.00       232.78
 1276.43        2982.00           1650          48.00       180.47
 1276.46        2982.25           1653          54.00       206.63
 1276.50        2982.50           1657          56.00       215.35
 1276.53        2982.75           1660          54.00       206.63
 1276.56        2983.00           1663          58.00       224.06
 1276.59        2983.25           1667          52.00       197.91
 1276.62        2983.50           1670          49.00       184.83
 1276.65        2983.75           1673          45.00       167.39
 1276.68        2984.00           1677          50.00       189.19
HS scan finished at 21:16:54
end
