************************************************************
  HS Scan of (1) Internal mercury lamp
************************************************************
Integration time is 0.2294 seconds per sample
dh200517Manchester 53.47 2.23 2.804185pr1000
************************************************************
Dead Time -------------------------  3E-08 
Number of Cycles Used -------------  4 
Starting Wavelength (Angstroms) ---  2950 
Final Wavelength (Angstoms) -------  2984 
Wavelength Increment (Angstroms) --  .25 
Filter Wheel #1 Position ---------- (1) Ground quartz diffuser (ND=2.32)
Filter Wheel #2 Position ---------- (1) Neutral Density 0.494



************************************************************
HS scan start time = 01:21:36
Dark Count =  6.4 


Time (GMT)  Wavelength (Ang)  Step Number  Raw Counts  Counts/Second

   81.96        2950.00           1222          37.00       133.39
   82.03        2950.25           1226          46.00       172.63
   82.06        2950.50           1229          45.00       168.27
   82.09        2950.75           1232          47.00       176.98
   82.12        2951.00           1236          43.00       159.55
   82.15        2951.25           1239          44.00       163.91
   82.18        2951.50           1242          40.00       146.47
   82.22        2951.75           1246          38.00       137.75
   82.25        2952.00           1249          46.00       172.63
   82.28        2952.25           1252          44.00       163.91
   82.31        2952.50           1256          53.00       203.14
   82.34        2952.75           1259          50.00       190.06
   82.37        2953.00           1262          40.00       146.47
   82.40        2953.25           1266          35.00       124.67
   82.43        2953.50           1269          44.00       163.91
   82.46        2953.75           1272          38.00       137.75
   82.49        2954.00           1276          49.00       185.70
   82.52        2954.25           1279          48.00       181.34
   82.56        2954.50           1282          45.00       168.27
   82.59        2954.75           1286          45.00       168.27
   82.62        2955.00           1289          49.00       185.70
   82.65        2955.25           1292          48.00       181.34
   82.68        2955.50           1296          38.00       137.75
   82.71        2955.75           1299          42.00       155.19
   82.74        2956.00           1302          44.00       163.91
   82.77        2956.25           1306          54.00       207.50
   82.80        2956.50           1309          42.00       155.19
   82.83        2956.75           1312          55.00       211.86
   82.86        2957.00           1316          52.00       198.78
   82.89        2957.25           1319          44.00       163.91
   82.92        2957.50           1322          49.00       185.70
   82.95        2957.75           1326          37.00       133.39
   82.98        2958.00           1329          47.00       176.98
   83.01        2958.25           1332          46.00       172.63
   83.04        2958.50           1336          56.00       216.22
   83.07        2958.75           1339          57.00       220.58
   83.11        2959.00           1342          45.00       168.27
   83.14        2959.25           1346          52.00       198.78
   83.17        2959.50           1349          55.00       211.86
   83.20        2959.75           1352          79.00       316.48
   83.23        2960.00           1356         116.00       477.77
   83.26        2960.25           1359         153.00       639.07
   83.29        2960.50           1362         178.00       748.06
   83.32        2960.75           1366         255.00      1083.73
   83.35        2961.00           1369         286.00      1218.88
   83.38        2961.25           1372         338.00      1445.57
   83.41        2961.50           1376         408.00      1750.75
   83.44        2961.75           1379         589.00      2539.86
   83.47        2962.00           1382        1167.00      5060.05
   83.50        2962.25           1386        2826.00     12295.73
   83.54        2962.50           1389        4520.00     19687.30
   83.57        2962.75           1392        6086.00     26523.28
   83.60        2963.00           1396        8360.00     36454.85
   83.63        2963.25           1399        9985.00     43555.57
   83.66        2963.50           1402       11636.00     50773.01
   83.69        2963.75           1406       14001.00     61117.19
   83.72        2964.00           1409       15729.00     68679.28
   83.75        2964.25           1412       17446.00     76196.65
   83.78        2964.50           1416       19860.00     86771.36
   83.81        2964.75           1419       21382.00     93442.04
   83.85        2965.00           1422       23414.00    102352.20
   83.88        2965.25           1426       25772.00    112697.70
   83.91        2965.50           1429       27261.00    119233.90
   83.94        2965.75           1432       28845.00    126190.00
   83.97        2966.00           1436       31146.00    136299.90
   84.00        2966.25           1439       32633.00    142836.60
   84.03        2966.50           1442       34059.00    149107.50
   84.06        2966.75           1446       35757.00    156577.70
   84.09        2967.00           1449       36514.00    159909.10
   84.12        2967.25           1452       36748.00    160939.10
   84.16        2967.50           1456       36888.00    161555.30
   84.19        2967.75           1459       36858.00    161423.30
   84.22        2968.00           1462       36751.00    160952.30
   84.25        2968.25           1466       35798.00    156758.10
   84.28        2968.50           1469       34672.00    151804.00
   84.31        2968.75           1472       33296.00    145751.90
   84.34        2969.00           1476       30793.00    134748.50
   84.37        2969.25           1479       29275.00    128078.80
   84.40        2969.50           1482       27554.00    120520.40
   84.43        2969.75           1486       25448.00    111275.80
   84.46        2970.00           1489       23731.00    103742.60
   84.50        2970.25           1492       21945.00     95910.27
   84.53        2970.50           1496       19605.00     85653.99
   84.56        2970.75           1499       18076.00     78955.76
   84.59        2971.00           1502       16327.00     71297.06
   84.62        2971.25           1506       13836.00     60395.30
   84.65        2971.50           1509       12244.00     53431.70
   84.68        2971.75           1513       10016.00     43691.06
   84.71        2972.00           1516        8400.00     36629.60
   84.74        2972.25           1519        6650.00     28985.96
   84.77        2972.50           1523        4536.00     19757.13
   84.80        2972.75           1526        2846.00     12382.98
   84.84        2973.00           1529        1436.00      6233.07
   84.87        2973.25           1533         503.00      2164.92
   84.90        2973.50           1536         342.00      1463.01
   84.93        2973.75           1539         290.00      1236.31
   84.96        2974.00           1543         232.00       983.46
   84.99        2974.25           1546         170.00       713.18
   85.02        2974.50           1549         139.00       578.04
   85.05        2974.75           1553          93.00       377.51
   85.08        2975.00           1556          61.00       238.01
   85.11        2975.25           1559          61.00       238.01
   85.14        2975.50           1563          56.00       216.22
   85.17        2975.75           1566          44.00       163.91
   85.20        2976.00           1569          40.00       146.47
   85.23        2976.25           1573          49.00       185.70
   85.26        2976.50           1576          50.00       190.06
   85.29        2976.75           1579          48.00       181.34
   85.33        2977.00           1583          47.00       176.98
   85.36        2977.25           1586          44.00       163.91
   85.39        2977.50           1590          46.00       172.63
   85.42        2977.75           1593          47.00       176.98
   85.45        2978.00           1596          46.00       172.63
   85.48        2978.25           1600          46.00       172.63
   85.51        2978.50           1603          45.00       168.27
   85.54        2978.75           1606          43.00       159.55
   85.57        2979.00           1610          49.00       185.70
   85.60        2979.25           1613          47.00       176.98
   85.63        2979.50           1616          45.00       168.27
   85.66        2979.75           1620          37.00       133.39
   85.70        2980.00           1623          47.00       176.98
   85.73        2980.25           1626          42.00       155.19
   85.76        2980.50           1630          65.00       255.45
   85.79        2980.75           1633          44.00       163.91
   85.82        2981.00           1637          44.00       163.91
   85.85        2981.25           1640          48.00       181.34
   85.88        2981.50           1643          35.00       124.67
   85.91        2981.75           1647          44.00       163.91
   85.94        2982.00           1650          45.00       168.27
   85.97        2982.25           1653          41.00       150.83
   86.01        2982.50           1657          44.00       163.91
   86.04        2982.75           1660          40.00       146.47
   86.07        2983.00           1663          42.00       155.19
   86.10        2983.25           1667          47.00       176.98
   86.13        2983.50           1670          43.00       159.55
   86.16        2983.75           1673          45.00       168.27
   86.19        2984.00           1677          46.00       172.63
HS scan finished at 01:26:24
end
************************************************************
  HS Scan of (1) Internal mercury lamp
************************************************************
Integration time is 0.2294 seconds per sample
dh200517Manchester 53.47 2.23 2.804185pr1000
************************************************************
Dead Time -------------------------  3E-08 
Number of Cycles Used -------------  4 
Starting Wavelength (Angstroms) ---  2950 
Final Wavelength (Angstoms) -------  2984 
Wavelength Increment (Angstroms) --  .25 
Filter Wheel #1 Position ---------- (1) Ground quartz diffuser (ND=2.32)
Filter Wheel #2 Position ---------- (1) Neutral Density 0.494



************************************************************
HS scan start time = 21:12:00
Dark Count =  6.1 


Time (GMT)  Wavelength (Ang)  Step Number  Raw Counts  Counts/Second

 1272.37        2950.00           1222          45.00       169.57
 1272.44        2950.25           1226          51.00       195.73
 1272.47        2950.50           1229          45.00       169.57
 1272.50        2950.75           1232          52.00       200.09
 1272.53        2951.00           1236          45.00       169.57
 1272.56        2951.25           1239          43.00       160.86
 1272.59        2951.50           1242          54.00       208.81
 1272.62        2951.75           1246          46.00       173.93
 1272.65        2952.00           1249          50.00       191.37
 1272.68        2952.25           1252          42.00       156.50
 1272.71        2952.50           1256          47.00       178.29
 1272.74        2952.75           1259          47.00       178.29
 1272.78        2953.00           1262          47.00       178.29
 1272.81        2953.25           1266          48.00       182.65
 1272.84        2953.50           1269          38.00       139.06
 1272.87        2953.75           1272          44.00       165.21
 1272.90        2954.00           1276          40.00       147.78
 1272.93        2954.25           1279          49.00       187.01
 1272.96        2954.50           1282          51.00       195.73
 1272.99        2954.75           1286          49.00       187.01
 1273.02        2955.00           1289          43.00       160.86
 1273.05        2955.25           1292          42.00       156.50
 1273.08        2955.50           1296          34.00       121.62
 1273.11        2955.75           1299          45.00       169.57
 1273.14        2956.00           1302          44.00       165.21
 1273.17        2956.25           1306          52.00       200.09
 1273.20        2956.50           1309          44.00       165.21
 1273.23        2956.75           1312          47.00       178.29
 1273.26        2957.00           1316          43.00       160.86
 1273.30        2957.25           1319          48.00       182.65
 1273.33        2957.50           1322          37.00       134.70
 1273.36        2957.75           1326          46.00       173.93
 1273.39        2958.00           1329          45.00       169.57
 1273.42        2958.25           1332          41.00       152.14
 1273.45        2958.50           1336          48.00       182.65
 1273.48        2958.75           1339          46.00       173.93
 1273.51        2959.00           1342          50.00       191.37
 1273.54        2959.25           1346          53.00       204.45
 1273.57        2959.50           1349          53.00       204.45
 1273.60        2959.75           1352          64.00       252.40
 1273.63        2960.00           1356          99.00       404.97
 1273.66        2960.25           1359         126.00       522.68
 1273.70        2960.50           1362         182.00       766.80
 1273.73        2960.75           1366         225.00       954.26
 1273.76        2961.00           1369         282.00      1202.75
 1273.79        2961.25           1372         323.00      1381.49
 1273.82        2961.50           1376         425.00      1826.17
 1273.85        2961.75           1379         620.00      2676.33
 1273.88        2962.00           1382        1316.00      5711.09
 1273.91        2962.25           1386        3164.00     13771.60
 1273.94        2962.50           1389        4857.00     21159.46
 1273.97        2962.75           1392        6448.00     28105.21
 1274.01        2963.00           1396        8439.00     36801.29
 1274.04        2963.25           1399       10145.00     44256.19
 1274.07        2963.50           1402       11744.00     51246.57
 1274.10        2963.75           1406       14068.00     61411.65
 1274.13        2964.00           1409       15613.00     68172.85
 1274.16        2964.25           1412       17577.00     76771.65
 1274.19        2964.50           1416       19935.00     87101.32
 1274.22        2964.75           1419       21654.00     94635.78
 1274.25        2965.00           1422       23187.00    101357.90
 1274.29        2965.25           1426       25511.00    111553.60
 1274.32        2965.50           1429       26968.00    117948.90
 1274.35        2965.75           1432       28906.00    126459.20
 1274.38        2966.00           1436       31065.00    135945.20
 1274.41        2966.25           1439       32624.00    142798.30
 1274.44        2966.50           1442       34013.00    148906.50
 1274.47        2966.75           1446       35672.00    156205.00
 1274.50        2967.00           1449       36327.00    159087.40
 1274.53        2967.25           1452       36565.00    160134.90
 1274.56        2967.50           1456       36606.00    160315.40
 1274.60        2967.75           1459       36364.00    159250.30
 1274.63        2968.00           1462       36221.00    158620.90
 1274.66        2968.25           1466       35329.00    154695.80
 1274.69        2968.50           1469       34042.00    149034.10
 1274.72        2968.75           1472       32511.00    142301.50
 1274.75        2969.00           1476       30288.00    132530.70
 1274.78        2969.25           1479       28750.00    125774.00
 1274.81        2969.50           1482       27193.00    118936.70
 1274.84        2969.75           1486       24910.00    108916.30
 1274.87        2970.00           1489       23144.00    101169.30
 1274.91        2970.25           1492       21334.00     93232.96
 1274.94        2970.50           1496       19060.00     83267.47
 1274.97        2970.75           1499       17456.00     76241.76
 1275.00        2971.00           1502       15696.00     68536.15
 1275.03        2971.25           1506       13537.00     59088.53
 1275.06        2971.50           1509       11853.00     51723.19
 1275.09        2971.75           1513        9683.00     42237.01
 1275.12        2972.00           1516        7932.00     34586.43
 1275.15        2972.25           1519        6341.00     27637.99
 1275.19        2972.50           1523        4038.00     17585.13
 1275.22        2972.75           1526        2512.00     10927.30
 1275.25        2973.00           1529        1293.00      5610.80
 1275.28        2973.25           1533         507.00      2183.67
 1275.31        2973.50           1536         329.00      1407.64
 1275.34        2973.75           1539         292.00      1246.34
 1275.37        2974.00           1543         234.00       993.49
 1275.40        2974.25           1546         173.00       727.57
 1275.43        2974.50           1549         141.00       588.07
 1275.46        2974.75           1553          94.00       383.18
 1275.49        2975.00           1556          71.00       282.91
 1275.53        2975.25           1559          62.00       243.68
 1275.56        2975.50           1563          48.00       182.65
 1275.59        2975.75           1566          53.00       204.45
 1275.62        2976.00           1569          44.00       165.21
 1275.65        2976.25           1573          48.00       182.65
 1275.68        2976.50           1576          48.00       182.65
 1275.71        2976.75           1579          40.00       147.78
 1275.74        2977.00           1583          39.00       143.42
 1275.77        2977.25           1586          51.00       195.73
 1275.80        2977.50           1590          42.00       156.50
 1275.83        2977.75           1593          49.00       187.01
 1275.86        2978.00           1596          43.00       160.86
 1275.89        2978.25           1600          45.00       169.57
 1275.92        2978.50           1603          47.00       178.29
 1275.95        2978.75           1606          42.00       156.50
 1275.98        2979.00           1610          48.00       182.65
 1276.02        2979.25           1613          49.00       187.01
 1276.05        2979.50           1616          42.00       156.50
 1276.08        2979.75           1620          48.00       182.65
 1276.11        2980.00           1623          45.00       169.57
 1276.14        2980.25           1626          41.00       152.14
 1276.17        2980.50           1630          38.00       139.06
 1276.20        2980.75           1633          48.00       182.65
 1276.23        2981.00           1637          42.00       156.50
 1276.26        2981.25           1640          37.00       134.70
 1276.29        2981.50           1643          46.00       173.93
 1276.32        2981.75           1647          43.00       160.86
 1276.36        2982.00           1650          41.00       152.14
 1276.39        2982.25           1653          51.00       195.73
 1276.42        2982.50           1657          46.00       173.93
 1276.45        2982.75           1660          43.00       160.86
 1276.48        2983.00           1663          42.00       156.50
 1276.51        2983.25           1667          46.00       173.93
 1276.54        2983.50           1670          43.00       160.86
 1276.57        2983.75           1673          36.00       130.34
 1276.60        2984.00           1677          41.00       152.14
HS scan finished at 21:16:49
end
