************************************************************
  HS Scan of (1) Internal mercury lamp
************************************************************
Integration time is 0.2294 seconds per sample
dh200518Manchester 53.47 2.23 2.804185pr1000
************************************************************
Dead Time -------------------------  3E-08 
Number of Cycles Used -------------  4 
Starting Wavelength (Angstroms) ---  2950 
Final Wavelength (Angstoms) -------  2984 
Wavelength Increment (Angstroms) --  .25 
Filter Wheel #1 Position ---------- (1) Ground quartz diffuser (ND=2.32)
Filter Wheel #2 Position ---------- (1) Neutral Density 0.494



************************************************************
HS scan start time = 01:21:39
Dark Count =  6.6 


Time (GMT)  Wavelength (Ang)  Step Number  Raw Counts  Counts/Second

   82.02        2950.00           1222          58.00       224.06
   82.09        2950.25           1226          50.00       189.19
   82.12        2950.50           1229          56.00       215.35
   82.15        2950.75           1232          57.00       219.71
   82.18        2951.00           1236          49.00       184.83
   82.21        2951.25           1239          55.00       210.99
   82.24        2951.50           1242          57.00       219.71
   82.28        2951.75           1246          63.00       245.86
   82.31        2952.00           1249          49.00       184.83
   82.34        2952.25           1252          58.00       224.06
   82.37        2952.50           1256          56.00       215.35
   82.40        2952.75           1259          56.00       215.35
   82.43        2953.00           1262          58.00       224.06
   82.46        2953.25           1266          64.00       250.22
   82.49        2953.50           1269          61.00       237.14
   82.52        2953.75           1272          60.00       232.78
   82.55        2954.00           1276          55.00       210.99
   82.58        2954.25           1279          57.00       219.71
   82.62        2954.50           1282          56.00       215.35
   82.65        2954.75           1286          57.00       219.71
   82.68        2955.00           1289          60.00       232.78
   82.71        2955.25           1292          51.00       193.55
   82.74        2955.50           1296          57.00       219.71
   82.77        2955.75           1299          58.00       224.06
   82.80        2956.00           1302          57.00       219.71
   82.83        2956.25           1306          70.00       276.38
   82.86        2956.50           1309          57.00       219.71
   82.89        2956.75           1312          55.00       210.99
   82.93        2957.00           1316          62.00       241.50
   82.96        2957.25           1319          56.00       215.35
   82.99        2957.50           1322          55.00       210.99
   83.02        2957.75           1326          51.00       193.55
   83.05        2958.00           1329          56.00       215.35
   83.08        2958.25           1332          60.00       232.78
   83.11        2958.50           1336          54.00       206.63
   83.14        2958.75           1339          60.00       232.78
   83.17        2959.00           1342          62.00       241.50
   83.20        2959.25           1346          56.00       215.35
   83.24        2959.50           1349          70.00       276.38
   83.27        2959.75           1352          72.00       285.09
   83.30        2960.00           1356         107.00       437.67
   83.33        2960.25           1359         126.00       520.50
   83.36        2960.50           1362         184.00       773.34
   83.39        2960.75           1366         229.00       969.51
   83.42        2961.00           1369         253.00      1074.14
   83.45        2961.25           1372         292.00      1244.16
   83.48        2961.50           1376         343.00      1466.50
   83.51        2961.75           1379         449.00      1928.62
   83.55        2962.00           1382         822.00      3554.87
   83.58        2962.25           1386        2210.00      9607.83
   83.61        2962.50           1389        3659.00     15929.15
   83.64        2962.75           1392        4917.00     21419.17
   83.67        2963.00           1396        6739.00     29373.74
   83.70        2963.25           1399        8214.00     35816.15
   83.73        2963.50           1402        9682.00     42230.45
   83.76        2963.75           1406       11731.00     51187.53
   83.79        2964.00           1409       13157.00     57424.05
   83.83        2964.25           1412       14613.00     63794.17
   83.86        2964.50           1416       16780.00     73279.50
   83.89        2964.75           1419       18054.00     78858.53
   83.92        2965.00           1422       19780.00     86419.93
   83.95        2965.25           1426       21661.00     94664.28
   83.98        2965.50           1429       22949.00    100311.90
   84.01        2965.75           1432       24523.00    107216.10
   84.04        2966.00           1436       26261.00    114843.10
   84.07        2966.25           1439       27745.00    121358.20
   84.11        2966.50           1442       29010.00    126913.90
   84.14        2966.75           1446       30671.00    134211.50
   84.17        2967.00           1449       31482.00    137775.80
   84.20        2967.25           1452       31610.00    138338.40
   84.23        2967.50           1456       31433.00    137560.40
   84.26        2967.75           1459       31564.00    138136.20
   84.29        2968.00           1462       31593.00    138263.70
   84.32        2968.25           1466       30763.00    134615.80
   84.35        2968.50           1469       29599.00    129501.30
   84.39        2968.75           1472       28290.00    123751.50
   84.42        2969.00           1476       26592.00    116296.10
   84.45        2969.25           1479       25075.00    109638.20
   84.48        2969.50           1482       23634.00    103316.30
   84.51        2969.75           1486       21798.00     95264.90
   84.54        2970.00           1489       20225.00     88369.98
   84.57        2970.25           1492       18858.00     82380.33
   84.60        2970.50           1496       17019.00     74325.97
   84.63        2970.75           1499       15559.00     67934.31
   84.66        2971.00           1502       14114.00     61610.73
   84.70        2971.25           1506       12177.00     53137.83
   84.73        2971.50           1509       10817.00     47191.44
   84.76        2971.75           1513        8915.00     38878.80
   84.79        2972.00           1516        7519.00     32780.26
   84.82        2972.25           1519        6155.00     26823.67
   84.85        2972.50           1523        4174.00     18176.43
   84.88        2972.75           1526        2823.00     12281.77
   84.91        2973.00           1529        1536.00      6668.29
   84.94        2973.25           1533         519.00      2233.80
   84.98        2973.50           1536         310.00      1322.63
   85.01        2973.75           1539         267.00      1135.17
   85.04        2974.00           1543         205.00       864.89
   85.07        2974.25           1546         157.00       655.64
   85.10        2974.50           1549         113.00       463.83
   85.13        2974.75           1553          80.00       319.97
   85.16        2975.00           1556          68.00       267.66
   85.19        2975.25           1559          64.00       250.22
   85.23        2975.50           1563          61.00       237.14
   85.26        2975.75           1566          55.00       210.99
   85.29        2976.00           1569          50.00       189.19
   85.32        2976.25           1573          74.00       293.81
   85.35        2976.50           1576          57.00       219.71
   85.38        2976.75           1579          56.00       215.35
   85.41        2977.00           1583          55.00       210.99
   85.44        2977.25           1586          61.00       237.14
   85.48        2977.50           1590          58.00       224.06
   85.51        2977.75           1593          54.00       206.63
   85.54        2978.00           1596          54.00       206.63
   85.57        2978.25           1600          64.00       250.22
   85.60        2978.50           1603          45.00       167.39
   85.63        2978.75           1606          50.00       189.19
   85.66        2979.00           1610          48.00       180.47
   85.69        2979.25           1613          53.00       202.27
   85.72        2979.50           1616          53.00       202.27
   85.75        2979.75           1620          52.00       197.91
   85.78        2980.00           1623          47.00       176.11
   85.82        2980.25           1626          63.00       245.86
   85.85        2980.50           1630          57.00       219.71
   85.88        2980.75           1633          55.00       210.99
   85.91        2981.00           1637          54.00       206.63
   85.94        2981.25           1640          56.00       215.35
   85.97        2981.50           1643          49.00       184.83
   86.00        2981.75           1647          45.00       167.39
   86.03        2982.00           1650          53.00       202.27
   86.06        2982.25           1653          52.00       197.91
   86.09        2982.50           1657          43.00       158.68
   86.12        2982.75           1660          54.00       206.63
   86.15        2983.00           1663          53.00       202.27
   86.19        2983.25           1667          51.00       193.55
   86.22        2983.50           1670          55.00       210.99
   86.25        2983.75           1673          56.00       215.35
   86.28        2984.00           1677          54.00       206.63
HS scan finished at 01:26:30
end
************************************************************
  HS Scan of (1) Internal mercury lamp
************************************************************
Integration time is 0.2294 seconds per sample
dh200518Manchester 53.47 2.23 3.018777pr1000
************************************************************
Dead Time -------------------------  3E-08 
Number of Cycles Used -------------  4 
Starting Wavelength (Angstroms) ---  2950 
Final Wavelength (Angstoms) -------  2984 
Wavelength Increment (Angstroms) --  .25 
Filter Wheel #1 Position ---------- (1) Ground quartz diffuser (ND=2.32)
Filter Wheel #2 Position ---------- (1) Neutral Density 0.494



************************************************************
HS scan start time = 21:12:07
Dark Count =  7.6 


Time (GMT)  Wavelength (Ang)  Step Number  Raw Counts  Counts/Second

 1272.48        2950.00           1222          65.00       250.22
 1272.55        2950.25           1226          61.00       232.78
 1272.58        2950.50           1229          53.00       197.91
 1272.61        2950.75           1232          50.00       184.83
 1272.65        2951.00           1236          63.00       241.50
 1272.68        2951.25           1239          58.00       219.71
 1272.71        2951.50           1242          61.00       232.78
 1272.74        2951.75           1246          65.00       250.22
 1272.77        2952.00           1249          55.00       206.63
 1272.80        2952.25           1252          60.00       228.42
 1272.83        2952.50           1256          60.00       228.42
 1272.86        2952.75           1259          57.00       215.35
 1272.89        2953.00           1262          61.00       232.78
 1272.92        2953.25           1266          60.00       228.42
 1272.95        2953.50           1269          56.00       210.99
 1272.99        2953.75           1272          54.00       202.27
 1273.02        2954.00           1276          55.00       206.63
 1273.05        2954.25           1279          51.00       189.19
 1273.08        2954.50           1282          61.00       232.78
 1273.11        2954.75           1286          55.00       206.63
 1273.14        2955.00           1289          56.00       210.99
 1273.17        2955.25           1292          58.00       219.71
 1273.20        2955.50           1296          56.00       210.99
 1273.23        2955.75           1299          61.00       232.78
 1273.27        2956.00           1302          50.00       184.83
 1273.30        2956.25           1306          57.00       215.35
 1273.33        2956.50           1309          63.00       241.50
 1273.36        2956.75           1312          57.00       215.35
 1273.39        2957.00           1316          60.00       228.42
 1273.42        2957.25           1319          60.00       228.42
 1273.45        2957.50           1322          61.00       232.78
 1273.48        2957.75           1326          51.00       189.19
 1273.51        2958.00           1329          61.00       232.78
 1273.55        2958.25           1332          54.00       202.27
 1273.58        2958.50           1336          50.00       184.83
 1273.61        2958.75           1339          56.00       210.99
 1273.64        2959.00           1342          57.00       215.35
 1273.67        2959.25           1346          66.00       254.58
 1273.70        2959.50           1349          73.00       285.09
 1273.73        2959.75           1352          84.00       333.05
 1273.76        2960.00           1356         105.00       424.59
 1273.79        2960.25           1359         141.00       581.53
 1273.82        2960.50           1362         175.00       729.75
 1273.86        2960.75           1366         247.00      1043.62
 1273.89        2961.00           1369         296.00      1257.24
 1273.92        2961.25           1372         314.00      1335.71
 1273.95        2961.50           1376         390.00      1667.04
 1273.98        2961.75           1379         504.00      2164.05
 1274.01        2962.00           1382        1065.00      4610.05
 1274.04        2962.25           1386        2738.00     11906.61
 1274.07        2962.50           1389        4243.00     18473.18
 1274.10        2962.75           1392        5705.00     24854.62
 1274.14        2963.00           1396        7712.00     33618.90
 1274.17        2963.25           1399        9369.00     40858.25
 1274.20        2963.50           1402       11045.00     48183.82
 1274.23        2963.75           1406       13322.00     58141.44
 1274.26        2964.00           1409       14914.00     65107.00
 1274.29        2964.25           1412       16696.00     72907.33
 1274.32        2964.50           1416       18654.00     81482.29
 1274.35        2964.75           1419       20342.00     88878.34
 1274.38        2965.00           1422       21930.00     95839.24
 1274.42        2965.25           1426       24101.00    105360.40
 1274.45        2965.50           1429       25622.00    112034.20
 1274.48        2965.75           1432       27235.00    119114.50
 1274.51        2966.00           1436       29477.00    128960.90
 1274.54        2966.25           1439       31110.00    136136.40
 1274.57        2966.50           1442       32638.00    142853.30
 1274.60        2966.75           1446       33870.00    148271.00
 1274.63        2967.00           1449       34406.00    150628.60
 1274.66        2967.25           1452       34658.00    151737.10
 1274.69        2967.50           1456       34459.00    150861.70
 1274.73        2967.75           1459       34485.00    150976.10
 1274.76        2968.00           1462       34496.00    151024.50
 1274.79        2968.25           1466       33684.00    147452.90
 1274.82        2968.50           1469       32242.00    141112.30
 1274.85        2968.75           1472       30909.00    135253.00
 1274.88        2969.00           1476       28788.00    125934.40
 1274.91        2969.25           1479       27177.00    118859.90
 1274.94        2969.50           1482       25532.00    111639.20
 1274.97        2969.75           1486       23404.00    102303.00
 1275.01        2970.00           1489       21886.00     95646.34
 1275.04        2970.25           1492       20304.00     88711.81
 1275.07        2970.50           1496       17957.00     78429.31
 1275.10        2970.75           1499       16627.00     72605.24
 1275.13        2971.00           1502       15067.00     65776.58
 1275.16        2971.25           1506       13052.00     56960.38
 1275.19        2971.50           1509       11496.00     50155.63
 1275.22        2971.75           1513        9503.00     41443.83
 1275.25        2972.00           1516        7801.00     34007.65
 1275.28        2972.25           1519        6154.00     26814.94
 1275.31        2972.50           1523        4108.00     17884.05
 1275.35        2972.75           1526        2526.00     10981.82
 1275.38        2973.00           1529        1238.00      5364.42
 1275.41        2973.25           1533         460.00      1972.22
 1275.44        2973.50           1536         336.00      1431.62
 1275.47        2973.75           1539         300.00      1274.68
 1275.50        2974.00           1543         251.00      1061.06
 1275.53        2974.25           1546         166.00       690.51
 1275.56        2974.50           1549         155.00       642.56
 1275.59        2974.75           1553          98.00       394.08
 1275.62        2975.00           1556          66.00       254.58
 1275.66        2975.25           1559          68.00       263.30
 1275.69        2975.50           1563          54.00       202.27
 1275.72        2975.75           1566          52.00       193.55
 1275.75        2976.00           1569          55.00       206.63
 1275.78        2976.25           1573          59.00       224.06
 1275.81        2976.50           1576          55.00       206.63
 1275.84        2976.75           1579          57.00       215.35
 1275.87        2977.00           1583          52.00       193.55
 1275.90        2977.25           1586          53.00       197.91
 1275.94        2977.50           1590          63.00       241.50
 1275.97        2977.75           1593          43.00       154.32
 1276.00        2978.00           1596          59.00       224.06
 1276.03        2978.25           1600          49.00       180.47
 1276.06        2978.50           1603          50.00       184.83
 1276.09        2978.75           1606          51.00       189.19
 1276.12        2979.00           1610          52.00       193.55
 1276.15        2979.25           1613          48.00       176.11
 1276.18        2979.50           1616          50.00       184.83
 1276.22        2979.75           1620          55.00       206.63
 1276.25        2980.00           1623          52.00       193.55
 1276.28        2980.25           1626          51.00       189.19
 1276.31        2980.50           1630          48.00       176.11
 1276.34        2980.75           1633          60.00       228.42
 1276.37        2981.00           1637          55.00       206.63
 1276.40        2981.25           1640          52.00       193.55
 1276.43        2981.50           1643          48.00       176.11
 1276.46        2981.75           1647          57.00       215.35
 1276.49        2982.00           1650          55.00       206.63
 1276.52        2982.25           1653          56.00       210.99
 1276.56        2982.50           1657          57.00       215.35
 1276.59        2982.75           1660          51.00       189.19
 1276.62        2983.00           1663          53.00       197.91
 1276.65        2983.25           1667          54.00       202.27
 1276.68        2983.50           1670          53.00       197.91
 1276.71        2983.75           1673          49.00       180.47
 1276.74        2984.00           1677          56.00       210.99
HS scan finished at 21:16:57
end
