************************************************************
  HS Scan of (1) Internal mercury lamp
************************************************************
Integration time is 0.2294 seconds per sample
dh230517Manchester 53.47 2.23 2.804185pr1000
************************************************************
Dead Time -------------------------  3E-08 
Number of Cycles Used -------------  4 
Starting Wavelength (Angstroms) ---  2950 
Final Wavelength (Angstoms) -------  2984 
Wavelength Increment (Angstroms) --  .25 
Filter Wheel #1 Position ---------- (1) Ground quartz diffuser (ND=2.32)
Filter Wheel #2 Position ---------- (1) Neutral Density 0.494



************************************************************
HS scan start time = 02:53:20
Dark Count =  6.4 


Time (GMT)  Wavelength (Ang)  Step Number  Raw Counts  Counts/Second

  173.71        2950.00           1222          43.00       159.55
  173.78        2950.25           1226          55.00       211.86
  173.81        2950.50           1229          47.00       176.98
  173.84        2950.75           1232          43.00       159.55
  173.87        2951.00           1236          41.00       150.83
  173.90        2951.25           1239          40.00       146.47
  173.93        2951.50           1242          41.00       150.83
  173.96        2951.75           1246          40.00       146.47
  173.99        2952.00           1249          45.00       168.27
  174.03        2952.25           1252          45.00       168.27
  174.06        2952.50           1256          41.00       150.83
  174.09        2952.75           1259          56.00       216.22
  174.12        2953.00           1262          47.00       176.98
  174.15        2953.25           1266          52.00       198.78
  174.18        2953.50           1269          46.00       172.63
  174.21        2953.75           1272          48.00       181.34
  174.24        2954.00           1276          48.00       181.34
  174.27        2954.25           1279          41.00       150.83
  174.30        2954.50           1282          48.00       181.34
  174.33        2954.75           1286          51.00       194.42
  174.37        2955.00           1289          48.00       181.34
  174.40        2955.25           1292          42.00       155.19
  174.43        2955.50           1296          48.00       181.34
  174.46        2955.75           1299          51.00       194.42
  174.49        2956.00           1302          43.00       159.55
  174.52        2956.25           1306          42.00       155.19
  174.55        2956.50           1309          48.00       181.34
  174.58        2956.75           1312          46.00       172.63
  174.61        2957.00           1316          44.00       163.91
  174.64        2957.25           1319          47.00       176.98
  174.67        2957.50           1322          46.00       172.63
  174.70        2957.75           1326          44.00       163.91
  174.73        2958.00           1329          52.00       198.78
  174.76        2958.25           1332          45.00       168.27
  174.79        2958.50           1336          44.00       163.91
  174.83        2958.75           1339          45.00       168.27
  174.86        2959.00           1342          53.00       203.14
  174.89        2959.25           1346          48.00       181.34
  174.92        2959.50           1349          51.00       194.42
  174.95        2959.75           1352          68.00       268.53
  174.98        2960.00           1356         123.00       508.29
  175.01        2960.25           1359         152.00       634.71
  175.04        2960.50           1362         189.00       796.01
  175.07        2960.75           1366         261.00      1109.89
  175.10        2961.00           1369         291.00      1240.67
  175.14        2961.25           1372         343.00      1467.37
  175.17        2961.50           1376         460.00      1977.45
  175.20        2961.75           1379         723.00      3124.09
  175.23        2962.00           1382        1478.00      6416.23
  175.26        2962.25           1386        3435.00     14952.65
  175.29        2962.50           1389        5028.00     21904.54
  175.32        2962.75           1392        6763.00     29479.42
  175.35        2963.00           1396        8963.00     39089.40
  175.38        2963.25           1399       10581.00     46160.66
  175.42        2963.50           1402       12312.00     53729.08
  175.45        2963.75           1406       14613.00     63795.04
  175.48        2964.00           1409       16265.00     71025.63
  175.51        2964.25           1412       18019.00     78706.11
  175.54        2964.50           1416       20375.00     89028.22
  175.57        2964.75           1419       21983.00     96076.87
  175.60        2965.00           1422       24018.00    105001.60
  175.63        2965.25           1426       26169.00    114440.20
  175.66        2965.50           1429       27630.00    120854.10
  175.70        2965.75           1432       29368.00    128487.30
  175.73        2966.00           1436       31368.00    137275.60
  175.76        2966.25           1439       33219.00    145413.30
  175.79        2966.50           1442       34793.00    152336.30
  175.82        2966.75           1446       36249.00    158742.90
  175.85        2967.00           1449       36791.00    161128.40
  175.88        2967.25           1452       36833.00    161313.20
  175.91        2967.50           1456       36936.00    161766.60
  175.94        2967.75           1459       36794.00    161141.60
  175.98        2968.00           1462       36597.00    160274.50
  176.01        2968.25           1466       35384.00    154936.50
  176.04        2968.50           1469       33906.00    148434.60
  176.07        2968.75           1472       32587.00    142634.30
  176.10        2969.00           1476       30223.00    132243.80
  176.13        2969.25           1479       28814.00    126053.80
  176.16        2969.50           1482       27136.00    118685.10
  176.19        2969.75           1486       24962.00    109143.20
  176.22        2970.00           1489       23025.00    100646.10
  176.26        2970.25           1492       21502.00     93968.10
  176.29        2970.50           1496       19134.00     83590.35
  176.32        2970.75           1499       17451.00     76218.54
  176.35        2971.00           1502       15798.00     68981.32
  176.38        2971.25           1506       13306.00     58076.69
  176.41        2971.50           1509       11545.00     50375.11
  176.44        2971.75           1513        9396.00     40981.48
  176.47        2972.00           1516        7715.00     33637.24
  176.50        2972.25           1519        6163.00     26859.47
  176.53        2972.50           1523        4014.00     17479.09
  176.56        2972.75           1526        2439.00     10607.56
  176.60        2973.00           1529        1107.00      4798.42
  176.63        2973.25           1533         472.00      2029.77
  176.66        2973.50           1536         354.00      1515.33
  176.69        2973.75           1539         313.00      1336.58
  176.72        2974.00           1543         244.00      1035.78
  176.75        2974.25           1546         173.00       726.26
  176.78        2974.50           1549         120.00       495.21
  176.81        2974.75           1553          91.00       368.79
  176.84        2975.00           1556          59.00       229.30
  176.87        2975.25           1559          50.00       190.06
  176.90        2975.50           1563          48.00       181.34
  176.93        2975.75           1566          44.00       163.91
  176.96        2976.00           1569          43.00       159.55
  177.00        2976.25           1573          46.00       172.63
  177.03        2976.50           1576          50.00       190.06
  177.06        2976.75           1579          46.00       172.63
  177.09        2977.00           1583          46.00       172.63
  177.12        2977.25           1586          48.00       181.34
  177.15        2977.50           1590          46.00       172.63
  177.18        2977.75           1593          48.00       181.34
  177.21        2978.00           1596          46.00       172.63
  177.24        2978.25           1600          47.00       176.98
  177.27        2978.50           1603          49.00       185.70
  177.30        2978.75           1606          43.00       159.55
  177.33        2979.00           1610          47.00       176.98
  177.37        2979.25           1613          43.00       159.55
  177.40        2979.50           1616          43.00       159.55
  177.43        2979.75           1620          48.00       181.34
  177.46        2980.00           1623          48.00       181.34
  177.49        2980.25           1626          38.00       137.75
  177.52        2980.50           1630          41.00       150.83
  177.55        2980.75           1633          42.00       155.19
  177.58        2981.00           1637          46.00       172.63
  177.61        2981.25           1640          43.00       159.55
  177.64        2981.50           1643          40.00       146.47
  177.67        2981.75           1647          42.00       155.19
  177.70        2982.00           1650          38.00       137.75
  177.73        2982.25           1653          38.00       137.75
  177.76        2982.50           1657          46.00       172.63
  177.80        2982.75           1660          60.00       233.65
  177.83        2983.00           1663          43.00       159.55
  177.86        2983.25           1667          43.00       159.55
  177.89        2983.50           1670          51.00       194.42
  177.92        2983.75           1673          53.00       203.14
  177.95        2984.00           1677          40.00       146.47
HS scan finished at 02:58:10
end
************************************************************
  HS Scan of (1) Internal mercury lamp
************************************************************
Integration time is 0.2294 seconds per sample
dh230517Manchester 53.47 2.23 2.911481pr1000
************************************************************
Dead Time -------------------------  3E-08 
Number of Cycles Used -------------  4 
Starting Wavelength (Angstroms) ---  2950 
Final Wavelength (Angstoms) -------  2984 
Wavelength Increment (Angstroms) --  .25 
Filter Wheel #1 Position ---------- (1) Ground quartz diffuser (ND=2.32)
Filter Wheel #2 Position ---------- (1) Neutral Density 0.494



************************************************************
HS scan start time = 21:12:02
Dark Count =  7.3 


Time (GMT)  Wavelength (Ang)  Step Number  Raw Counts  Counts/Second

 1272.41        2950.00           1222          43.00       155.62
 1272.47        2950.25           1226          44.00       159.98
 1272.51        2950.50           1229          43.00       155.62
 1272.54        2950.75           1232          53.00       199.22
 1272.57        2951.00           1236          45.00       164.34
 1272.60        2951.25           1239          45.00       164.34
 1272.63        2951.50           1242          42.00       151.26
 1272.66        2951.75           1246          43.00       155.62
 1272.69        2952.00           1249          45.00       164.34
 1272.72        2952.25           1252          47.00       173.06
 1272.75        2952.50           1256          42.00       151.26
 1272.78        2952.75           1259          41.00       146.91
 1272.81        2953.00           1262          42.00       151.26
 1272.84        2953.25           1266          41.00       146.91
 1272.87        2953.50           1269          49.00       181.78
 1272.90        2953.75           1272          47.00       173.06
 1272.93        2954.00           1276          48.00       177.42
 1272.96        2954.25           1279          48.00       177.42
 1273.00        2954.50           1282          39.00       138.19
 1273.03        2954.75           1286          51.00       190.50
 1273.06        2955.00           1289          48.00       177.42
 1273.09        2955.25           1292          38.00       133.83
 1273.12        2955.50           1296          47.00       173.06
 1273.15        2955.75           1299          42.00       151.26
 1273.18        2956.00           1302          40.00       142.55
 1273.21        2956.25           1306          48.00       177.42
 1273.24        2956.50           1309          48.00       177.42
 1273.27        2956.75           1312          48.00       177.42
 1273.30        2957.00           1316          45.00       164.34
 1273.33        2957.25           1319          45.00       164.34
 1273.36        2957.50           1322          45.00       164.34
 1273.39        2957.75           1326          45.00       164.34
 1273.43        2958.00           1329          41.00       146.91
 1273.46        2958.25           1332          47.00       173.06
 1273.49        2958.50           1336          53.00       199.22
 1273.52        2958.75           1339          41.00       146.91
 1273.55        2959.00           1342          62.00       238.45
 1273.58        2959.25           1346          53.00       199.22
 1273.61        2959.50           1349          49.00       181.78
 1273.64        2959.75           1352          72.00       282.04
 1273.67        2960.00           1356         121.00       495.65
 1273.70        2960.25           1359         164.00       683.10
 1273.73        2960.50           1362         194.00       813.88
 1273.76        2960.75           1366         246.00      1040.57
 1273.79        2961.00           1369         296.00      1258.55
 1273.83        2961.25           1372         348.00      1485.25
 1273.86        2961.50           1376         446.00      1912.49
 1273.89        2961.75           1379         582.00      2505.42
 1273.92        2962.00           1382        1084.00      4694.21
 1273.95        2962.25           1386        2768.00     12038.78
 1273.98        2962.50           1389        4461.00     19425.88
 1274.01        2962.75           1392        6095.00     26558.64
 1274.04        2963.00           1396        8248.00     35961.62
 1274.07        2963.25           1399        9961.00     43446.74
 1274.10        2963.50           1402       11888.00     51870.98
 1274.13        2963.75           1406       14323.00     62522.14
 1274.16        2964.00           1409       16362.00     71446.35
 1274.20        2964.25           1412       17993.00     78588.30
 1274.23        2964.50           1416       20308.00     88730.65
 1274.26        2964.75           1419       22152.00     96813.91
 1274.29        2965.00           1422       23941.00    104659.80
 1274.32        2965.25           1426       26351.00    115235.10
 1274.35        2965.50           1429       28134.00    123063.40
 1274.38        2965.75           1432       29932.00    130961.20
 1274.41        2966.00           1436       32266.00    141219.10
 1274.44        2966.25           1439       34086.00    149222.30
 1274.47        2966.50           1442       35606.00    155909.30
 1274.50        2966.75           1446       37251.00    163149.20
 1274.54        2967.00           1449       37995.00    166424.80
 1274.57        2967.25           1452       38071.00    166759.40
 1274.60        2967.50           1456       38032.00    166587.70
 1274.63        2967.75           1459       37932.00    166147.40
 1274.66        2968.00           1462       37993.00    166416.00
 1274.69        2968.25           1466       37129.00    162612.20
 1274.72        2968.50           1469       35711.00    156371.40
 1274.75        2968.75           1472       34264.00    150005.30
 1274.78        2969.00           1476       31877.00    139509.00
 1274.81        2969.25           1479       30104.00    131716.90
 1274.84        2969.50           1482       28396.00    124214.00
 1274.87        2969.75           1486       25983.00    113619.90
 1274.90        2970.00           1489       24234.00    105945.20
 1274.94        2970.25           1492       22511.00     98388.06
 1274.97        2970.50           1496       20190.00     88213.52
 1275.00        2970.75           1499       18450.00     80589.99
 1275.03        2971.00           1502       16831.00     73499.72
 1275.06        2971.25           1506       14572.00     63611.70
 1275.09        2971.50           1509       12740.00     55597.02
 1275.12        2971.75           1513       10554.00     46038.70
 1275.15        2972.00           1516        8744.00     38128.60
 1275.18        2972.25           1519        6889.00     30025.73
 1275.21        2972.50           1523        4720.00     20556.27
 1275.24        2972.75           1526        3023.00     13151.22
 1275.27        2973.00           1529        1474.00      6394.86
 1275.30        2973.25           1533         548.00      2357.18
 1275.34        2973.50           1536         341.00      1454.73
 1275.37        2973.75           1539         271.00      1149.56
 1275.40        2974.00           1543         242.00      1023.14
 1275.43        2974.25           1546         158.00       656.94
 1275.46        2974.50           1549         132.00       543.60
 1275.49        2974.75           1553          81.00       321.28
 1275.52        2975.00           1556          61.00       234.09
 1275.55        2975.25           1559          50.00       186.14
 1275.58        2975.50           1563          44.00       159.98
 1275.61        2975.75           1566          44.00       159.98
 1275.64        2976.00           1569          57.00       216.65
 1275.67        2976.25           1573          53.00       199.22
 1275.70        2976.50           1576          36.00       125.11
 1275.73        2976.75           1579          58.00       221.01
 1275.76        2977.00           1583          43.00       155.62
 1275.79        2977.25           1586          44.00       159.98
 1275.82        2977.50           1590          50.00       186.14
 1275.85        2977.75           1593          40.00       142.55
 1275.89        2978.00           1596          48.00       177.42
 1275.92        2978.25           1600          44.00       159.98
 1275.95        2978.50           1603          42.00       151.26
 1275.98        2978.75           1606          37.00       129.47
 1276.01        2979.00           1610          45.00       164.34
 1276.04        2979.25           1613          42.00       151.26
 1276.07        2979.50           1616          47.00       173.06
 1276.10        2979.75           1620          46.00       168.70
 1276.13        2980.00           1623          49.00       181.78
 1276.16        2980.25           1626          47.00       173.06
 1276.19        2980.50           1630          53.00       199.22
 1276.22        2980.75           1633          42.00       151.26
 1276.25        2981.00           1637          45.00       164.34
 1276.28        2981.25           1640          38.00       133.83
 1276.32        2981.50           1643          41.00       146.91
 1276.35        2981.75           1647          39.00       138.19
 1276.38        2982.00           1650          45.00       164.34
 1276.41        2982.25           1653          49.00       181.78
 1276.44        2982.50           1657          50.00       186.14
 1276.47        2982.75           1660          41.00       146.91
 1276.50        2983.00           1663          43.00       155.62
 1276.53        2983.25           1667          37.00       129.47
 1276.56        2983.50           1670          43.00       155.62
 1276.59        2983.75           1673          42.00       151.26
 1276.62        2984.00           1677          46.00       168.70
HS scan finished at 21:16:50
end
