************************************************************
  HS Scan of (1) Internal mercury lamp
************************************************************
Integration time is 0.2294 seconds per sample
dh260518Manchester 53.47 2.23 2.804185pr1000
************************************************************
Dead Time -------------------------  3E-08 
Number of Cycles Used -------------  4 
Starting Wavelength (Angstroms) ---  2950 
Final Wavelength (Angstoms) -------  2984 
Wavelength Increment (Angstroms) --  .25 
Filter Wheel #1 Position ---------- (1) Ground quartz diffuser (ND=2.32)
Filter Wheel #2 Position ---------- (1) Neutral Density 0.494



************************************************************
HS scan start time = 01:20:04
Dark Count =  7.7 


Time (GMT)  Wavelength (Ang)  Step Number  Raw Counts  Counts/Second

   80.43        2950.00           1222          50.00       184.40
   80.50        2950.25           1226          55.00       206.19
   80.53        2950.50           1229          58.00       219.27
   80.56        2950.75           1232          58.00       219.27
   80.59        2951.00           1236          59.00       223.63
   80.62        2951.25           1239          58.00       219.27
   80.65        2951.50           1242          61.00       232.35
   80.68        2951.75           1246          51.00       188.75
   80.71        2952.00           1249          61.00       232.35
   80.74        2952.25           1252          61.00       232.35
   80.77        2952.50           1256          55.00       206.19
   80.80        2952.75           1259          48.00       175.68
   80.83        2953.00           1262          64.00       245.42
   80.86        2953.25           1266          60.00       227.99
   80.89        2953.50           1269          53.00       197.47
   80.92        2953.75           1272          59.00       223.63
   80.96        2954.00           1276          56.00       210.55
   80.99        2954.25           1279          58.00       219.27
   81.02        2954.50           1282          55.00       206.19
   81.05        2954.75           1286          62.00       236.71
   81.08        2955.00           1289          62.00       236.71
   81.11        2955.25           1292          54.00       201.83
   81.14        2955.50           1296          62.00       236.71
   81.17        2955.75           1299          61.00       232.35
   81.20        2956.00           1302          59.00       223.63
   81.23        2956.25           1306          58.00       219.27
   81.26        2956.50           1309          51.00       188.75
   81.29        2956.75           1312          52.00       193.11
   81.32        2957.00           1316          53.00       197.47
   81.36        2957.25           1319          58.00       219.27
   81.39        2957.50           1322          63.00       241.07
   81.42        2957.75           1326          58.00       219.27
   81.45        2958.00           1329          60.00       227.99
   81.48        2958.25           1332          61.00       232.35
   81.51        2958.50           1336          53.00       197.47
   81.54        2958.75           1339          57.00       214.91
   81.57        2959.00           1342          63.00       241.07
   81.60        2959.25           1346          67.00       258.50
   81.63        2959.50           1349          63.00       241.07
   81.66        2959.75           1352          75.00       293.38
   81.69        2960.00           1356         110.00       445.95
   81.73        2960.25           1359         136.00       559.29
   81.76        2960.50           1362         169.00       703.15
   81.79        2960.75           1366         211.00       886.25
   81.82        2961.00           1369         249.00      1051.91
   81.85        2961.25           1372         311.00      1322.20
   81.88        2961.50           1376         376.00      1605.57
   81.91        2961.75           1379         535.00      2298.76
   81.94        2962.00           1382        1132.00      4901.77
   81.97        2962.25           1386        2687.00     11683.69
   82.00        2962.50           1389        4056.00     17656.69
   82.03        2962.75           1392        5548.00     24168.78
   82.06        2963.00           1396        7245.00     31578.73
   82.09        2963.25           1399        8693.00     37904.02
   82.13        2963.50           1402       10280.00     44839.27
   82.16        2963.75           1406       12065.00     52643.24
   82.19        2964.00           1409       13581.00     59274.01
   82.22        2964.25           1412       15106.00     65946.81
   82.25        2964.50           1416       16815.00     73427.93
   82.28        2964.75           1419       18541.00     80986.86
   82.31        2965.00           1422       20002.00     87387.92
   82.34        2965.25           1426       21945.00     95904.57
   82.38        2965.50           1429       23401.00    102289.50
   82.41        2965.75           1432       24850.00    108646.10
   82.44        2966.00           1436       26542.00    116071.70
   82.47        2966.25           1439       27983.00    122398.50
   82.50        2966.50           1442       29294.00    128156.60
   82.53        2966.75           1446       30725.00    134444.00
   82.56        2967.00           1449       31329.00    137098.50
   82.59        2967.25           1452       31360.00    137234.70
   82.62        2967.50           1456       31375.00    137300.70
   82.66        2967.75           1459       31337.00    137133.60
   82.69        2968.00           1462       31268.00    136830.40
   82.72        2968.25           1466       30358.00    132831.30
   82.75        2968.50           1469       29206.00    127770.00
   82.78        2968.75           1472       27892.00    121998.90
   82.81        2969.00           1476       26098.00    114122.80
   82.84        2969.25           1479       24617.00    107623.70
   82.87        2969.50           1482       23175.00    101298.20
   82.90        2969.75           1486       21279.00     92984.84
   82.94        2970.00           1489       19946.00     87142.52
   82.97        2970.25           1492       18542.00     80991.24
   83.00        2970.50           1496       16435.00     71764.21
   83.03        2970.75           1499       14883.00     64970.89
   83.06        2971.00           1502       13371.00     58355.34
   83.09        2971.25           1506       11646.00     50811.05
   83.12        2971.50           1509        9984.00     43545.52
   83.15        2971.75           1513        8128.00     35435.65
   83.18        2972.00           1516        6698.00     29189.89
   83.21        2972.25           1519        5265.00     22933.38
   83.24        2972.50           1523        3434.00     14942.62
   83.28        2972.75           1526        2076.00      9018.57
   83.31        2973.00           1529         969.00      4191.02
   83.34        2973.25           1533         412.00      1762.52
   83.37        2973.50           1536         305.00      1296.04
   83.40        2973.75           1539         258.00      1091.14
   83.43        2974.00           1543         212.00       890.61
   83.46        2974.25           1546         164.00       681.36
   83.49        2974.50           1549         110.00       445.95
   83.52        2974.75           1553          87.00       345.69
   83.55        2975.00           1556          64.00       245.42
   83.59        2975.25           1559          57.00       214.91
   83.62        2975.50           1563          63.00       241.07
   83.65        2975.75           1566          58.00       219.27
   83.68        2976.00           1569          60.00       227.99
   83.71        2976.25           1573          57.00       214.91
   83.74        2976.50           1576          50.00       184.40
   83.77        2976.75           1579          56.00       210.55
   83.80        2977.00           1583          57.00       214.91
   83.83        2977.25           1586          59.00       223.63
   83.86        2977.50           1590          58.00       219.27
   83.89        2977.75           1593          55.00       206.19
   83.92        2978.00           1596          53.00       197.47
   83.95        2978.25           1600          52.00       193.11
   83.98        2978.50           1603          58.00       219.27
   84.01        2978.75           1606          63.00       241.07
   84.04        2979.00           1610          52.00       193.11
   84.08        2979.25           1613          57.00       214.91
   84.11        2979.50           1616          52.00       193.11
   84.14        2979.75           1620          53.00       197.47
   84.17        2980.00           1623          54.00       201.83
   84.20        2980.25           1626          48.00       175.68
   84.23        2980.50           1630          48.00       175.68
   84.26        2980.75           1633          53.00       197.47
   84.29        2981.00           1637          52.00       193.11
   84.32        2981.25           1640          56.00       210.55
   84.35        2981.50           1643          52.00       193.11
   84.38        2981.75           1647          55.00       206.19
   84.41        2982.00           1650          56.00       210.55
   84.44        2982.25           1653          53.00       197.47
   84.47        2982.50           1657          56.00       210.55
   84.51        2982.75           1660          58.00       219.27
   84.54        2983.00           1663          53.00       197.47
   84.57        2983.25           1667          54.00       201.83
   84.60        2983.50           1670          54.00       201.83
   84.63        2983.75           1673          58.00       219.27
   84.66        2984.00           1677          50.00       184.40
HS scan finished at 01:24:52
end
************************************************************
  HS Scan of (1) Internal mercury lamp
************************************************************
Integration time is 0.2294 seconds per sample
dh260518Manchester 53.47 2.23 2.911481pr1000
************************************************************
Dead Time -------------------------  3E-08 
Number of Cycles Used -------------  4 
Starting Wavelength (Angstroms) ---  2950 
Final Wavelength (Angstoms) -------  2984 
Wavelength Increment (Angstroms) --  .25 
Filter Wheel #1 Position ---------- (1) Ground quartz diffuser (ND=2.32)
Filter Wheel #2 Position ---------- (1) Neutral Density 0.494



************************************************************
HS scan start time = 21:13:18
Dark Count =  6.8 


Time (GMT)  Wavelength (Ang)  Step Number  Raw Counts  Counts/Second

 1273.68        2950.00           1222          55.00       210.11
 1273.74        2950.25           1226          58.00       223.19
 1273.77        2950.50           1229          59.00       227.55
 1273.81        2950.75           1232          52.00       197.04
 1273.84        2951.00           1236          54.00       205.76
 1273.87        2951.25           1239          54.00       205.76
 1273.90        2951.50           1242          63.00       244.99
 1273.93        2951.75           1246          66.00       258.07
 1273.96        2952.00           1249          61.00       236.27
 1273.99        2952.25           1252          63.00       244.99
 1274.02        2952.50           1256          59.00       227.55
 1274.05        2952.75           1259          62.00       240.63
 1274.08        2953.00           1262          60.00       231.91
 1274.11        2953.25           1266          69.00       271.14
 1274.15        2953.50           1269          50.00       188.32
 1274.18        2953.75           1272          60.00       231.91
 1274.21        2954.00           1276          55.00       210.11
 1274.24        2954.25           1279          58.00       223.19
 1274.27        2954.50           1282          64.00       249.35
 1274.30        2954.75           1286          54.00       205.76
 1274.33        2955.00           1289          57.00       218.83
 1274.36        2955.25           1292          61.00       236.27
 1274.39        2955.50           1296          50.00       188.32
 1274.42        2955.75           1299          64.00       249.35
 1274.45        2956.00           1302          54.00       205.76
 1274.48        2956.25           1306          57.00       218.83
 1274.51        2956.50           1309          53.00       201.40
 1274.55        2956.75           1312          52.00       197.04
 1274.58        2957.00           1316          58.00       223.19
 1274.61        2957.25           1319          62.00       240.63
 1274.64        2957.50           1322          60.00       231.91
 1274.67        2957.75           1326          47.00       175.24
 1274.70        2958.00           1329          51.00       192.68
 1274.73        2958.25           1332          67.00       262.43
 1274.76        2958.50           1336          59.00       227.55
 1274.79        2958.75           1339          59.00       227.55
 1274.83        2959.00           1342          56.00       214.47
 1274.86        2959.25           1346          65.00       253.71
 1274.89        2959.50           1349          64.00       249.35
 1274.92        2959.75           1352          83.00       332.17
 1274.95        2960.00           1356         108.00       441.16
 1274.98        2960.25           1359         142.00       589.37
 1275.01        2960.50           1362         186.00       781.19
 1275.04        2960.75           1366         209.00       881.45
 1275.07        2961.00           1369         274.00      1164.82
 1275.10        2961.25           1372         299.00      1273.81
 1275.14        2961.50           1376         371.00      1587.70
 1275.17        2961.75           1379         435.00      1866.71
 1275.20        2962.00           1382         787.00      3401.39
 1275.23        2962.25           1386        2159.00      9384.51
 1275.26        2962.50           1389        3653.00     15902.09
 1275.29        2962.75           1392        5114.00     22278.18
 1275.32        2963.00           1396        6902.00     30084.68
 1275.35        2963.25           1399        8402.00     36636.59
 1275.38        2963.50           1402        9953.00     43413.97
 1275.41        2963.75           1406       12117.00     52874.57
 1275.44        2964.00           1409       13391.00     58446.78
 1275.48        2964.25           1412       14871.00     64922.32
 1275.51        2964.50           1416       16900.00     73804.03
 1275.54        2964.75           1419       18392.00     80338.12
 1275.57        2965.00           1422       19856.00     86752.08
 1275.60        2965.25           1426       21958.00     95965.51
 1275.63        2965.50           1429       23421.00    102381.10
 1275.66        2965.75           1432       24982.00    109229.20
 1275.69        2966.00           1436       26970.00    117954.60
 1275.72        2966.25           1439       28181.00    123272.00
 1275.76        2966.50           1442       29633.00    129649.80
 1275.79        2966.75           1446       31209.00    136575.00
 1275.82        2967.00           1449       32024.00    140157.40
 1275.85        2967.25           1452       31932.00    139753.00
 1275.88        2967.50           1456       31952.00    139840.90
 1275.91        2967.75           1459       32065.00    140337.60
 1275.94        2968.00           1462       31856.00    139418.90
 1275.97        2968.25           1466       31262.00    136808.00
 1276.00        2968.50           1469       30240.00    132316.70
 1276.04        2968.75           1472       28791.00    125951.00
 1276.07        2969.00           1476       26958.00    117901.90
 1276.10        2969.25           1479       25513.00    111559.30
 1276.13        2969.50           1482       24071.00    105232.30
 1276.16        2969.75           1486       21853.00     95505.15
 1276.19        2970.00           1489       20765.00     90735.76
 1276.22        2970.25           1492       19287.00     84258.92
 1276.25        2970.50           1496       17493.00     76400.72
 1276.28        2970.75           1499       15901.00     69430.44
 1276.32        2971.00           1502       14541.00     63478.23
 1276.35        2971.25           1506       12268.00     53534.91
 1276.38        2971.50           1509       10736.00     46836.47
 1276.41        2971.75           1513        8862.00     38646.35
 1276.44        2972.00           1516        7359.00     32080.56
 1276.47        2972.25           1519        5820.00     25360.18
 1276.50        2972.50           1523        4064.00     17695.53
 1276.53        2972.75           1526        2682.00     11665.81
 1276.56        2973.00           1529        1305.00      5660.07
 1276.60        2973.25           1533         482.00      2071.62
 1276.63        2973.50           1536         312.00      1330.48
 1276.66        2973.75           1539         262.00      1112.50
 1276.69        2974.00           1543         204.00       859.66
 1276.72        2974.25           1546         149.00       619.89
 1276.75        2974.50           1549         118.00       484.75
 1276.78        2974.75           1553          79.00       314.74
 1276.81        2975.00           1556          70.00       275.50
 1276.84        2975.25           1559          60.00       231.91
 1276.87        2975.50           1563          57.00       218.83
 1276.90        2975.75           1566          58.00       223.19
 1276.93        2976.00           1569          66.00       258.07
 1276.97        2976.25           1573          48.00       179.60
 1277.00        2976.50           1576          59.00       227.55
 1277.03        2976.75           1579          55.00       210.11
 1277.06        2977.00           1583          53.00       201.40
 1277.09        2977.25           1586          62.00       240.63
 1277.12        2977.50           1590          50.00       188.32
 1277.15        2977.75           1593          55.00       210.11
 1277.18        2978.00           1596          57.00       218.83
 1277.21        2978.25           1600          55.00       210.11
 1277.25        2978.50           1603          50.00       188.32
 1277.28        2978.75           1606          56.00       214.47
 1277.31        2979.00           1610          51.00       192.68
 1277.34        2979.25           1613          61.00       236.27
 1277.37        2979.50           1616          49.00       183.96
 1277.40        2979.75           1620          54.00       205.76
 1277.43        2980.00           1623          61.00       236.27
 1277.46        2980.25           1626          56.00       214.47
 1277.49        2980.50           1630          57.00       218.83
 1277.52        2980.75           1633          54.00       205.76
 1277.56        2981.00           1637          62.00       240.63
 1277.59        2981.25           1640          59.00       227.55
 1277.62        2981.50           1643          54.00       205.76
 1277.65        2981.75           1647          49.00       183.96
 1277.68        2982.00           1650          56.00       214.47
 1277.71        2982.25           1653          54.00       205.76
 1277.74        2982.50           1657          50.00       188.32
 1277.77        2982.75           1660          46.00       170.88
 1277.80        2983.00           1663          51.00       192.68
 1277.83        2983.25           1667          52.00       197.04
 1277.86        2983.50           1670          50.00       188.32
 1277.90        2983.75           1673          53.00       201.40
 1277.93        2984.00           1677          58.00       223.19
HS scan finished at 21:18:09
end
