************************************************************
  HS Scan of (1) Internal mercury lamp
************************************************************
Integration time is 0.2294 seconds per sample
dh210518Manchester 53.47 2.23 2.857833pr1000
************************************************************
Dead Time -------------------------  3E-08 
Number of Cycles Used -------------  4 
Starting Wavelength (Angstroms) ---  2950 
Final Wavelength (Angstoms) -------  2984 
Wavelength Increment (Angstroms) --  .25 
Filter Wheel #1 Position ---------- (1) Ground quartz diffuser (ND=2.32)
Filter Wheel #2 Position ---------- (1) Neutral Density 0.494



************************************************************
HS scan start time = 01:32:34
Dark Count =  5.1 


Time (GMT)  Wavelength (Ang)  Step Number  Raw Counts  Counts/Second

   92.93        2950.00           1222          64.00       256.76
   92.99        2950.25           1226          52.00       204.45
   93.03        2950.50           1229          54.00       213.17
   93.06        2950.75           1232          60.00       239.32
   93.09        2951.00           1236          57.00       226.24
   93.12        2951.25           1239          54.00       213.17
   93.15        2951.50           1242          54.00       213.17
   93.18        2951.75           1246          56.00       221.88
   93.21        2952.00           1249          54.00       213.17
   93.24        2952.25           1252          63.00       252.40
   93.27        2952.50           1256          56.00       221.88
   93.30        2952.75           1259          66.00       265.48
   93.33        2953.00           1262          53.00       208.81
   93.36        2953.25           1266          58.00       230.60
   93.39        2953.50           1269          63.00       252.40
   93.42        2953.75           1272          51.00       200.09
   93.45        2954.00           1276          60.00       239.32
   93.48        2954.25           1279          54.00       213.17
   93.51        2954.50           1282          58.00       230.60
   93.55        2954.75           1286          56.00       221.88
   93.58        2955.00           1289          55.00       217.53
   93.61        2955.25           1292          52.00       204.45
   93.64        2955.50           1296          59.00       234.96
   93.67        2955.75           1299          54.00       213.17
   93.70        2956.00           1302          57.00       226.24
   93.73        2956.25           1306          54.00       213.17
   93.76        2956.50           1309          60.00       239.32
   93.80        2956.75           1312          60.00       239.32
   93.83        2957.00           1316          59.00       234.96
   93.86        2957.25           1319          62.00       248.04
   93.89        2957.50           1322          52.00       204.45
   93.92        2957.75           1326          64.00       256.76
   93.95        2958.00           1329          60.00       239.32
   93.98        2958.25           1332          55.00       217.53
   94.01        2958.50           1336          56.00       221.88
   94.04        2958.75           1339          57.00       226.24
   94.07        2959.00           1342          54.00       213.17
   94.11        2959.25           1346          67.00       269.84
   94.14        2959.50           1349          69.00       278.56
   94.17        2959.75           1352          84.00       343.94
   94.20        2960.00           1356         115.00       479.08
   94.23        2960.25           1359         131.00       548.83
   94.26        2960.50           1362         164.00       692.69
   94.29        2960.75           1366         231.00       984.77
   94.32        2961.00           1369         252.00      1076.32
   94.36        2961.25           1372         289.00      1237.62
   94.39        2961.50           1376         359.00      1542.79
   94.42        2961.75           1379         534.00      2305.74
   94.45        2962.00           1382        1219.00      5292.47
   94.48        2962.25           1386        2842.00     12371.20
   94.51        2962.50           1389        4401.00     19173.63
   94.54        2962.75           1392        5700.00     24843.71
   94.57        2963.00           1396        7535.00     32856.70
   94.61        2963.25           1399        8978.00     39160.63
   94.64        2963.50           1402       10550.00     46030.83
   94.67        2963.75           1406       12457.00     54368.91
   94.70        2964.00           1409       14128.00     61678.54
   94.73        2964.25           1412       15504.00     67700.13
   94.76        2964.50           1416       17442.00     76184.82
   94.79        2964.75           1419       18873.00     82452.62
   94.82        2965.00           1422       20067.00     87684.14
   94.85        2965.25           1426       22143.00     96784.10
   94.89        2965.50           1429       23761.00    103879.90
   94.92        2965.75           1432       25089.00    109706.20
   94.95        2966.00           1436       27099.00    118528.40
   94.98        2966.25           1439       28319.00    123885.50
   95.01        2966.50           1442       29772.00    130267.90
   95.04        2966.75           1446       31204.00    136560.50
   95.07        2967.00           1449       31364.00    137263.70
   95.10        2967.25           1452       31441.00    137602.20
   95.13        2967.50           1456       31491.00    137822.00
   95.17        2967.75           1459       31348.00    137193.40
   95.20        2968.00           1462       31174.00    136428.70
   95.23        2968.25           1466       30241.00    132328.60
   95.26        2968.50           1469       28889.00    126389.00
   95.29        2968.75           1472       27398.00    119841.20
   95.32        2969.00           1476       25512.00    111562.40
   95.35        2969.25           1479       24105.00    105388.90
   95.38        2969.50           1482       22466.00     98200.38
   95.41        2969.75           1486       20642.00     90204.11
   95.45        2970.00           1489       19264.00     84165.61
   95.48        2970.25           1492       17893.00     78159.96
   95.51        2970.50           1496       16172.00     70624.20
   95.54        2970.75           1499       14494.00     63280.00
   95.57        2971.00           1502       13068.00     57041.30
   95.60        2971.25           1506       11232.00     49012.30
   95.63        2971.50           1509        9750.00     42534.19
   95.66        2971.75           1513        7833.00     34158.36
   95.69        2972.00           1516        6384.00     27830.12
   95.73        2972.25           1519        4921.00     21443.17
   95.76        2972.50           1523        3150.00     13714.88
   95.79        2972.75           1526        1750.00      7608.10
   95.82        2973.00           1529         697.00      3016.40
   95.85        2973.25           1533         361.00      1551.51
   95.88        2973.50           1536         319.00      1368.41
   95.91        2973.75           1539         269.00      1150.43
   95.94        2974.00           1543         221.00       941.18
   95.97        2974.25           1546         166.00       701.41
   96.01        2974.50           1549         120.00       500.88
   96.04        2974.75           1553          86.00       352.66
   96.07        2975.00           1556          72.00       291.63
   96.10        2975.25           1559          66.00       265.48
   96.13        2975.50           1563          64.00       256.76
   96.16        2975.75           1566          56.00       221.88
   96.19        2976.00           1569          54.00       213.17
   96.22        2976.25           1573          55.00       217.53
   96.25        2976.50           1576          57.00       226.24
   96.28        2976.75           1579          56.00       221.88
   96.32        2977.00           1583          55.00       217.53
   96.35        2977.25           1586          48.00       187.01
   96.38        2977.50           1590          53.00       208.81
   96.41        2977.75           1593          59.00       234.96
   96.44        2978.00           1596          57.00       226.24
   96.47        2978.25           1600          58.00       230.60
   96.50        2978.50           1603          56.00       221.88
   96.53        2978.75           1606          67.00       269.84
   96.56        2979.00           1610          55.00       217.53
   96.59        2979.25           1613          61.00       243.68
   96.62        2979.50           1616          57.00       226.24
   96.65        2979.75           1620          55.00       217.53
   96.68        2980.00           1623          56.00       221.88
   96.72        2980.25           1626          57.00       226.24
   96.75        2980.50           1630          55.00       217.53
   96.78        2980.75           1633          68.00       274.20
   96.81        2981.00           1637          59.00       234.96
   96.84        2981.25           1640          56.00       221.88
   96.87        2981.50           1643          49.00       191.37
   96.90        2981.75           1647          50.00       195.73
   96.93        2982.00           1650          57.00       226.24
   96.96        2982.25           1653          48.00       187.01
   96.99        2982.50           1657          50.00       195.73
   97.03        2982.75           1660          52.00       204.45
   97.06        2983.00           1663          55.00       217.53
   97.09        2983.25           1667          53.00       208.81
   97.12        2983.50           1670          57.00       226.24
   97.15        2983.75           1673          61.00       243.68
   97.18        2984.00           1677          53.00       208.81
HS scan finished at 01:37:24
end
************************************************************
  HS Scan of (1) Internal mercury lamp
************************************************************
Integration time is 0.2294 seconds per sample
dh210518Manchester 53.47 2.23 2.857833pr1000
************************************************************
Dead Time -------------------------  3E-08 
Number of Cycles Used -------------  4 
Starting Wavelength (Angstroms) ---  2950 
Final Wavelength (Angstoms) -------  2984 
Wavelength Increment (Angstroms) --  .25 
Filter Wheel #1 Position ---------- (1) Ground quartz diffuser (ND=2.32)
Filter Wheel #2 Position ---------- (1) Neutral Density 0.494



************************************************************
HS scan start time = 21:12:03
Dark Count =  6.9 


Time (GMT)  Wavelength (Ang)  Step Number  Raw Counts  Counts/Second

 1272.42        2950.00           1222          54.00       205.32
 1272.49        2950.25           1226          52.00       196.60
 1272.52        2950.50           1229          52.00       196.60
 1272.55        2950.75           1232          65.00       253.27
 1272.58        2951.00           1236          54.00       205.32
 1272.61        2951.25           1239          50.00       187.88
 1272.64        2951.50           1242          59.00       227.12
 1272.67        2951.75           1246          58.00       222.76
 1272.70        2952.00           1249          68.00       266.35
 1272.74        2952.25           1252          58.00       222.76
 1272.77        2952.50           1256          59.00       227.12
 1272.80        2952.75           1259          64.00       248.91
 1272.83        2953.00           1262          63.00       244.55
 1272.86        2953.25           1266          52.00       196.60
 1272.89        2953.50           1269          64.00       248.91
 1272.92        2953.75           1272          55.00       209.68
 1272.95        2954.00           1276          61.00       235.83
 1272.98        2954.25           1279          52.00       196.60
 1273.01        2954.50           1282          51.00       192.24
 1273.04        2954.75           1286          58.00       222.76
 1273.08        2955.00           1289          51.00       192.24
 1273.11        2955.25           1292          62.00       240.19
 1273.14        2955.50           1296          57.00       218.40
 1273.17        2955.75           1299          58.00       222.76
 1273.20        2956.00           1302          55.00       209.68
 1273.23        2956.25           1306          61.00       235.83
 1273.26        2956.50           1309          56.00       214.04
 1273.30        2956.75           1312          59.00       227.12
 1273.33        2957.00           1316          51.00       192.24
 1273.36        2957.25           1319          58.00       222.76
 1273.39        2957.50           1322          56.00       214.04
 1273.42        2957.75           1326          57.00       218.40
 1273.45        2958.00           1329          56.00       214.04
 1273.48        2958.25           1332          58.00       222.76
 1273.51        2958.50           1336          50.00       187.88
 1273.54        2958.75           1339          60.00       231.48
 1273.57        2959.00           1342          57.00       218.40
 1273.60        2959.25           1346          57.00       218.40
 1273.64        2959.50           1349          72.00       283.79
 1273.67        2959.75           1352          82.00       327.38
 1273.70        2960.00           1356         113.00       462.52
 1273.73        2960.25           1359         152.00       632.53
 1273.76        2960.50           1362         195.00       819.99
 1273.79        2960.75           1366         236.00       998.72
 1273.82        2961.00           1369         243.00      1029.24
 1273.85        2961.25           1372         322.00      1373.64
 1273.88        2961.50           1376         373.00      1595.98
 1273.92        2961.75           1379         525.00      2258.65
 1273.95        2962.00           1382        1036.00      4486.65
 1273.98        2962.25           1386        2574.00     11194.26
 1274.01        2962.50           1389        3996.00     17398.36
 1274.04        2962.75           1392        5377.00     23425.79
 1274.07        2963.00           1396        7319.00     31905.42
 1274.10        2963.25           1399        8716.00     38008.01
 1274.13        2963.50           1402       10263.00     44768.46
 1274.16        2963.75           1406       12301.00     53678.79
 1274.20        2964.00           1409       13907.00     60703.74
 1274.23        2964.25           1412       15548.00     67884.85
 1274.26        2964.50           1416       17441.00     76172.56
 1274.29        2964.75           1419       18785.00     82059.21
 1274.32        2965.00           1422       20575.00     89902.56
 1274.35        2965.25           1426       22359.00     97723.31
 1274.38        2965.50           1429       23911.00    104530.00
 1274.41        2965.75           1432       25364.00    110905.00
 1274.44        2966.00           1436       27366.00    119692.80
 1274.48        2966.25           1439       28557.00    124922.80
 1274.51        2966.50           1442       29964.00    131103.60
 1274.54        2966.75           1446       31750.00    138952.50
 1274.57        2967.00           1449       32169.00    140794.40
 1274.60        2967.25           1452       32236.00    141088.90
 1274.63        2967.50           1456       32209.00    140970.20
 1274.66        2967.75           1459       32117.00    140565.80
 1274.69        2968.00           1462       31948.00    139822.90
 1274.72        2968.25           1466       31087.00    136038.40
 1274.76        2968.50           1469       30163.00    131977.90
 1274.79        2968.75           1472       28665.00    125397.20
 1274.82        2969.00           1476       26565.00    116176.20
 1274.85        2969.25           1479       25145.00    109944.00
 1274.88        2969.50           1482       23450.00    102507.90
 1274.91        2969.75           1486       21676.00     94728.72
 1274.94        2970.00           1489       20233.00     88403.72
 1274.97        2970.25           1492       18722.00     81783.25
 1275.00        2970.50           1496       16860.00     73628.46
 1275.04        2970.75           1499       15417.00     67311.46
 1275.07        2971.00           1502       14027.00     61228.76
 1275.10        2971.25           1506       11900.00     51925.21
 1275.13        2971.50           1509       10497.00     45791.29
 1275.16        2971.75           1513        8545.00     37260.89
 1275.19        2972.00           1516        6958.00     30328.81
 1275.22        2972.25           1519        5533.00     24106.79
 1275.25        2972.50           1523        3645.00     15866.75
 1275.28        2972.75           1526        2240.00      9737.37
 1275.32        2973.00           1529        1087.00      4709.03
 1275.35        2973.25           1533         409.00      1752.93
 1275.38        2973.50           1536         303.00      1290.81
 1275.41        2973.75           1539         264.00      1120.79
 1275.44        2974.00           1543         211.00       889.74
 1275.47        2974.25           1546         170.00       711.00
 1275.50        2974.50           1549         134.00       554.06
 1275.53        2974.75           1553          84.00       336.10
 1275.56        2975.00           1556          64.00       248.91
 1275.59        2975.25           1559          66.00       257.63
 1275.63        2975.50           1563          59.00       227.12
 1275.66        2975.75           1566          56.00       214.04
 1275.69        2976.00           1569          53.00       200.96
 1275.72        2976.25           1573          54.00       205.32
 1275.75        2976.50           1576          55.00       209.68
 1275.78        2976.75           1579          60.00       231.48
 1275.81        2977.00           1583          56.00       214.04
 1275.84        2977.25           1586          58.00       222.76
 1275.87        2977.50           1590          52.00       196.60
 1275.90        2977.75           1593          55.00       209.68
 1275.93        2978.00           1596          65.00       253.27
 1275.97        2978.25           1600          58.00       222.76
 1276.00        2978.50           1603          54.00       205.32
 1276.03        2978.75           1606          47.00       174.80
 1276.06        2979.00           1610          53.00       200.96
 1276.09        2979.25           1613          50.00       187.88
 1276.12        2979.50           1616          53.00       200.96
 1276.15        2979.75           1620          59.00       227.12
 1276.18        2980.00           1623          57.00       218.40
 1276.21        2980.25           1626          49.00       183.52
 1276.25        2980.50           1630          56.00       214.04
 1276.28        2980.75           1633          52.00       196.60
 1276.31        2981.00           1637          51.00       192.24
 1276.34        2981.25           1640          54.00       205.32
 1276.37        2981.50           1643          51.00       192.24
 1276.40        2981.75           1647          59.00       227.12
 1276.43        2982.00           1650          49.00       183.52
 1276.46        2982.25           1653          52.00       196.60
 1276.49        2982.50           1657          50.00       187.88
 1276.52        2982.75           1660          59.00       227.12
 1276.56        2983.00           1663          59.00       227.12
 1276.59        2983.25           1667          45.00       166.09
 1276.62        2983.50           1670          52.00       196.60
 1276.65        2983.75           1673          50.00       187.88
 1276.68        2984.00           1677          56.00       214.04
HS scan finished at 21:16:54
end
