************************************************************
  HS Scan of (1) Internal mercury lamp
************************************************************
Integration time is 0.2294 seconds per sample
dh230518Manchester 53.47 2.23 2.804185pr1000
************************************************************
Dead Time -------------------------  3E-08 
Number of Cycles Used -------------  4 
Starting Wavelength (Angstroms) ---  2950 
Final Wavelength (Angstoms) -------  2984 
Wavelength Increment (Angstroms) --  .25 
Filter Wheel #1 Position ---------- (1) Ground quartz diffuser (ND=2.32)
Filter Wheel #2 Position ---------- (1) Neutral Density 0.494



************************************************************
HS scan start time = 01:34:06
Dark Count =  5.7 


Time (GMT)  Wavelength (Ang)  Step Number  Raw Counts  Counts/Second

   94.46        2950.00           1222          54.00       210.55
   94.53        2950.25           1226          53.00       206.19
   94.56        2950.50           1229          56.00       219.27
   94.59        2950.75           1232          62.00       245.42
   94.62        2951.00           1236          50.00       193.11
   94.65        2951.25           1239          57.00       223.63
   94.69        2951.50           1242          59.00       232.35
   94.72        2951.75           1246          54.00       210.55
   94.75        2952.00           1249          56.00       219.27
   94.78        2952.25           1252          56.00       219.27
   94.81        2952.50           1256          51.00       197.47
   94.84        2952.75           1259          64.00       254.14
   94.87        2953.00           1262          57.00       223.63
   94.90        2953.25           1266          62.00       245.42
   94.93        2953.50           1269          60.00       236.71
   94.96        2953.75           1272          61.00       241.07
   94.99        2954.00           1276          55.00       214.91
   95.03        2954.25           1279          53.00       206.19
   95.06        2954.50           1282          52.00       201.83
   95.09        2954.75           1286          58.00       227.99
   95.12        2955.00           1289          57.00       223.63
   95.15        2955.25           1292          64.00       254.14
   95.18        2955.50           1296          58.00       227.99
   95.21        2955.75           1299          50.00       193.11
   95.24        2956.00           1302          67.00       267.22
   95.27        2956.25           1306          58.00       227.99
   95.30        2956.50           1309          54.00       210.55
   95.33        2956.75           1312          59.00       232.35
   95.36        2957.00           1316          52.00       201.83
   95.40        2957.25           1319          52.00       201.83
   95.43        2957.50           1322          50.00       193.11
   95.46        2957.75           1326          52.00       201.83
   95.49        2958.00           1329          50.00       193.11
   95.52        2958.25           1332          61.00       241.07
   95.55        2958.50           1336          57.00       223.63
   95.58        2958.75           1339          59.00       232.35
   95.61        2959.00           1342          50.00       193.11
   95.64        2959.25           1346          62.00       245.42
   95.67        2959.50           1349          72.00       289.02
   95.70        2959.75           1352          72.00       289.02
   95.74        2960.00           1356          92.00       376.20
   95.77        2960.25           1359         112.00       463.39
   95.80        2960.50           1362         148.00       620.33
   95.83        2960.75           1366         199.00       842.65
   95.86        2961.00           1369         225.00       956.00
   95.89        2961.25           1372         271.00      1156.54
   95.92        2961.50           1376         331.00      1418.11
   95.95        2961.75           1379         409.00      1758.16
   95.98        2962.00           1382         836.00      3619.84
   96.01        2962.25           1386        2185.00      9502.71
   96.04        2962.50           1389        3546.00     15440.02
   96.07        2962.75           1392        4958.00     21602.05
   96.10        2963.00           1396        6955.00     30320.94
   96.14        2963.25           1399        8370.00     36501.59
   96.17        2963.50           1402        9862.00     43021.06
   96.20        2963.75           1406       11844.00     51685.57
   96.23        2964.00           1409       13305.00     58075.38
   96.26        2964.25           1412       14739.00     64349.48
   96.29        2964.50           1416       16758.00     73187.10
   96.32        2964.75           1419       18100.00     79063.96
   96.35        2965.00           1422       19551.00     85420.46
   96.38        2965.25           1426       21575.00     94291.21
   96.42        2965.50           1429       22959.00    100359.70
   96.45        2965.75           1432       24499.00    107114.80
   96.48        2966.00           1436       26554.00    116133.20
   96.51        2966.25           1439       27929.00    122170.20
   96.54        2966.50           1442       29444.00    128824.30
   96.57        2966.75           1446       30899.00    135217.40
   96.60        2967.00           1449       31285.00    136913.90
   96.63        2967.25           1452       31541.00    138039.10
   96.66        2967.50           1456       31458.00    137674.30
   96.70        2967.75           1459       31478.00    137762.20
   96.73        2968.00           1462       31395.00    137397.40
   96.76        2968.25           1466       30635.00    134057.30
   96.79        2968.50           1469       29640.00    129685.40
   96.82        2968.75           1472       28200.00    123360.20
   96.85        2969.00           1476       26298.00    115009.50
   96.88        2969.25           1479       24814.00    108496.90
   96.91        2969.50           1482       23281.00    101771.90
   96.94        2969.75           1486       21375.00     93414.43
   96.98        2970.00           1489       19825.00     86621.06
   97.01        2970.25           1492       18490.00     80772.22
   97.04        2970.50           1496       16721.00     73025.11
   97.07        2970.75           1499       15308.00     66839.66
   97.10        2971.00           1502       13865.00     60525.24
   97.13        2971.25           1506       12102.00     52813.78
   97.16        2971.50           1509       10663.00     46522.17
   97.19        2971.75           1513        8681.00     37860.33
   97.22        2972.00           1516        7146.00     31155.09
   97.25        2972.25           1519        5721.00     24932.77
   97.29        2972.50           1523        3875.00     16875.59
   97.32        2972.75           1526        2502.00     10885.42
   97.35        2973.00           1529        1308.00      5677.95
   97.38        2973.25           1533         469.00      2019.74
   97.41        2973.50           1536         322.00      1378.87
   97.44        2973.75           1539         268.00      1143.46
   97.47        2974.00           1543         228.00       969.08
   97.50        2974.25           1546         159.00       668.28
   97.53        2974.50           1549         122.00       506.98
   97.56        2974.75           1553          88.00       358.77
   97.59        2975.00           1556          69.00       275.94
   97.63        2975.25           1559          53.00       206.19
   97.66        2975.50           1563          58.00       227.99
   97.69        2975.75           1566          54.00       210.55
   97.72        2976.00           1569          61.00       241.07
   97.75        2976.25           1573          49.00       188.75
   97.78        2976.50           1576          56.00       219.27
   97.81        2976.75           1579          54.00       210.55
   97.84        2977.00           1583          57.00       223.63
   97.87        2977.25           1586          51.00       197.47
   97.90        2977.50           1590          59.00       232.35
   97.93        2977.75           1593          51.00       197.47
   97.96        2978.00           1596          57.00       223.63
   98.00        2978.25           1600          58.00       227.99
   98.03        2978.50           1603          52.00       201.83
   98.06        2978.75           1606          52.00       201.83
   98.09        2979.00           1610          52.00       201.83
   98.12        2979.25           1613          54.00       210.55
   98.15        2979.50           1616          48.00       184.40
   98.18        2979.75           1620          57.00       223.63
   98.21        2980.00           1623          43.00       162.60
   98.24        2980.25           1626          54.00       210.55
   98.27        2980.50           1630          52.00       201.83
   98.30        2980.75           1633          57.00       223.63
   98.33        2981.00           1637          52.00       201.83
   98.36        2981.25           1640          58.00       227.99
   98.39        2981.50           1643          50.00       193.11
   98.43        2981.75           1647          49.00       188.75
   98.46        2982.00           1650          59.00       232.35
   98.49        2982.25           1653          45.00       171.32
   98.52        2982.50           1657          45.00       171.32
   98.55        2982.75           1660          47.00       180.04
   98.58        2983.00           1663          44.00       166.96
   98.61        2983.25           1667          58.00       227.99
   98.64        2983.50           1670          56.00       219.27
   98.67        2983.75           1673          48.00       184.40
   98.70        2984.00           1677          52.00       201.83
HS scan finished at 01:38:55
end
************************************************************
  HS Scan of (1) Internal mercury lamp
************************************************************
Integration time is 0.2294 seconds per sample
dh230518Manchester 53.47 2.23 2.857833pr1000
************************************************************
Dead Time -------------------------  3E-08 
Number of Cycles Used -------------  4 
Starting Wavelength (Angstroms) ---  2950 
Final Wavelength (Angstoms) -------  2984 
Wavelength Increment (Angstroms) --  .25 
Filter Wheel #1 Position ---------- (1) Ground quartz diffuser (ND=2.32)
Filter Wheel #2 Position ---------- (1) Neutral Density 0.494



************************************************************
HS scan start time = 21:12:07
Dark Count =  7.2 


Time (GMT)  Wavelength (Ang)  Step Number  Raw Counts  Counts/Second

 1272.48        2950.00           1222          47.00       173.50
 1272.55        2950.25           1226          65.00       251.96
 1272.58        2950.50           1229          59.00       225.81
 1272.61        2950.75           1232          52.00       195.29
 1272.64        2951.00           1236          57.00       217.09
 1272.68        2951.25           1239          57.00       217.09
 1272.71        2951.50           1242          65.00       251.96
 1272.74        2951.75           1246          58.00       221.45
 1272.77        2952.00           1249          60.00       230.17
 1272.80        2952.25           1252          61.00       234.53
 1272.83        2952.50           1256          58.00       221.45
 1272.86        2952.75           1259          55.00       208.37
 1272.89        2953.00           1262          61.00       234.53
 1272.92        2953.25           1266          64.00       247.60
 1272.95        2953.50           1269          60.00       230.17
 1272.99        2953.75           1272          53.00       199.65
 1273.02        2954.00           1276          59.00       225.81
 1273.05        2954.25           1279          57.00       217.09
 1273.08        2954.50           1282          58.00       221.45
 1273.11        2954.75           1286          58.00       221.45
 1273.14        2955.00           1289          58.00       221.45
 1273.17        2955.25           1292          64.00       247.60
 1273.20        2955.50           1296          55.00       208.37
 1273.23        2955.75           1299          59.00       225.81
 1273.26        2956.00           1302          62.00       238.89
 1273.30        2956.25           1306          61.00       234.53
 1273.33        2956.50           1309          60.00       230.17
 1273.36        2956.75           1312          63.00       243.25
 1273.39        2957.00           1316          63.00       243.25
 1273.42        2957.25           1319          56.00       212.73
 1273.45        2957.50           1322          68.00       265.04
 1273.48        2957.75           1326          67.00       260.68
 1273.51        2958.00           1329          68.00       265.04
 1273.54        2958.25           1332          64.00       247.60
 1273.57        2958.50           1336          57.00       217.09
 1273.60        2958.75           1339          53.00       199.65
 1273.63        2959.00           1342          57.00       217.09
 1273.67        2959.25           1346          63.00       243.25
 1273.70        2959.50           1349          72.00       282.48
 1273.73        2959.75           1352          87.00       347.87
 1273.76        2960.00           1356         122.00       500.44
 1273.79        2960.25           1359         156.00       648.66
 1273.82        2960.50           1362         189.00       792.52
 1273.85        2960.75           1366         248.00      1049.73
 1273.88        2961.00           1369         289.00      1228.47
 1273.91        2961.25           1372         324.00      1381.05
 1273.94        2961.50           1376         389.00      1664.42
 1273.97        2961.75           1379         499.00      2143.99
 1274.00        2962.00           1382         918.00      3970.83
 1274.03        2962.25           1386        2377.00     10333.63
 1274.07        2962.50           1389        3677.00     16005.07
 1274.10        2962.75           1392        5017.00     21853.03
 1274.13        2963.00           1396        6788.00     29585.10
 1274.16        2963.25           1399        8349.00     36403.29
 1274.19        2963.50           1402        9876.00     43075.68
 1274.22        2963.75           1406       11923.00     52024.47
 1274.25        2964.00           1409       13312.00     58099.44
 1274.28        2964.25           1412       14702.00     64181.00
 1274.32        2964.50           1416       16866.00     73653.41
 1274.35        2964.75           1419       18178.00     79399.02
 1274.38        2965.00           1422       19663.00     85904.62
 1274.41        2965.25           1426       21500.00     93955.83
 1274.44        2965.50           1429       23223.00    101510.90
 1274.47        2965.75           1432       24626.00    107665.40
 1274.50        2966.00           1436       26515.00    115955.40
 1274.53        2966.25           1439       27985.00    122409.50
 1274.56        2966.50           1442       29365.00    128470.70
 1274.60        2966.75           1446       30838.00    134942.70
 1274.63        2967.00           1449       31401.00    137417.10
 1274.66        2967.25           1452       31712.00    138784.10
 1274.69        2967.50           1456       31695.00    138709.40
 1274.72        2967.75           1459       31685.00    138665.50
 1274.75        2968.00           1462       31579.00    138199.50
 1274.78        2968.25           1466       31126.00    136208.50
 1274.81        2968.50           1469       29971.00    131133.00
 1274.84        2968.75           1472       28664.00    125391.50
 1274.88        2969.00           1476       26881.00    117562.10
 1274.91        2969.25           1479       25481.00    111417.10
 1274.94        2969.50           1482       24034.00    105068.20
 1274.97        2969.75           1486       22006.00     96174.21
 1275.00        2970.00           1489       20717.00     90523.62
 1275.03        2970.25           1492       19195.00     83854.10
 1275.06        2970.50           1496       17413.00     76048.65
 1275.09        2970.75           1499       15952.00     69651.93
 1275.12        2971.00           1502       14474.00     63183.30
 1275.16        2971.25           1506       12507.00     54578.39
 1275.19        2971.50           1509       10944.00     47744.01
 1275.22        2971.75           1513        9111.00     39732.60
 1275.25        2972.00           1516        7548.00     32904.31
 1275.28        2972.25           1519        6186.00     26956.40
 1275.31        2972.50           1523        4332.00     18863.33
 1275.34        2972.75           1526        2932.00     12754.66
 1275.37        2973.00           1529        1593.00      6914.25
 1275.40        2973.25           1533         514.00      2209.39
 1275.44        2973.50           1536         302.00      1285.14
 1275.47        2973.75           1539         254.00      1075.88
 1275.50        2974.00           1543         195.00       818.68
 1275.53        2974.25           1546         139.00       574.55
 1275.56        2974.50           1549         108.00       439.41
 1275.59        2974.75           1553          84.00       334.79
 1275.62        2975.00           1556          59.00       225.81
 1275.65        2975.25           1559          59.00       225.81
 1275.68        2975.50           1563          57.00       217.09
 1275.71        2975.75           1566          68.00       265.04
 1275.74        2976.00           1569          55.00       208.37
 1275.78        2976.25           1573          60.00       230.17
 1275.81        2976.50           1576          59.00       225.81
 1275.84        2976.75           1579          55.00       208.37
 1275.87        2977.00           1583          48.00       177.86
 1275.90        2977.25           1586          55.00       208.37
 1275.93        2977.50           1590          51.00       190.93
 1275.96        2977.75           1593          59.00       225.81
 1275.99        2978.00           1596          53.00       199.65
 1276.02        2978.25           1600          47.00       173.50
 1276.06        2978.50           1603          57.00       217.09
 1276.09        2978.75           1606          50.00       186.57
 1276.12        2979.00           1610          51.00       190.93
 1276.15        2979.25           1613          53.00       199.65
 1276.18        2979.50           1616          55.00       208.37
 1276.21        2979.75           1620          51.00       190.93
 1276.24        2980.00           1623          53.00       199.65
 1276.27        2980.25           1626          54.00       204.01
 1276.30        2980.50           1630          53.00       199.65
 1276.33        2980.75           1633          48.00       177.86
 1276.36        2981.00           1637          58.00       221.45
 1276.39        2981.25           1640          48.00       177.86
 1276.43        2981.50           1643          54.00       204.01
 1276.46        2981.75           1647          54.00       204.01
 1276.49        2982.00           1650          54.00       204.01
 1276.52        2982.25           1653          50.00       186.57
 1276.55        2982.50           1657          55.00       208.37
 1276.58        2982.75           1660          53.00       199.65
 1276.61        2983.00           1663          49.00       182.22
 1276.64        2983.25           1667          49.00       182.22
 1276.67        2983.50           1670          54.00       204.01
 1276.71        2983.75           1673          47.00       173.50
 1276.74        2984.00           1677          47.00       173.50
HS scan finished at 21:16:57
end
