************************************************************
  HS Scan of (1) Internal mercury lamp
************************************************************
Integration time is 0.2294 seconds per sample
dh240517Manchester 53.47 2.23 2.965129pr1000
************************************************************
Dead Time -------------------------  3E-08 
Number of Cycles Used -------------  4 
Starting Wavelength (Angstroms) ---  2950 
Final Wavelength (Angstoms) -------  2984 
Wavelength Increment (Angstroms) --  .25 
Filter Wheel #1 Position ---------- (1) Ground quartz diffuser (ND=2.32)
Filter Wheel #2 Position ---------- (1) Neutral Density 0.494



************************************************************
HS scan start time = 02:11:22
Dark Count =  5 


Time (GMT)  Wavelength (Ang)  Step Number  Raw Counts  Counts/Second

  131.74        2950.00           1222          48.00       187.45
  131.81        2950.25           1226          46.00       178.73
  131.84        2950.50           1229          43.00       165.65
  131.87        2950.75           1232          44.00       170.01
  131.90        2951.00           1236          39.00       148.21
  131.93        2951.25           1239          44.00       170.01
  131.96        2951.50           1242          41.00       156.93
  131.99        2951.75           1246          47.00       183.09
  132.02        2952.00           1249          47.00       183.09
  132.06        2952.25           1252          38.00       143.85
  132.09        2952.50           1256          51.00       200.52
  132.12        2952.75           1259          43.00       165.65
  132.15        2953.00           1262          38.00       143.85
  132.18        2953.25           1266          42.00       161.29
  132.21        2953.50           1269          43.00       165.65
  132.24        2953.75           1272          50.00       196.17
  132.27        2954.00           1276          42.00       161.29
  132.30        2954.25           1279          40.00       152.57
  132.33        2954.50           1282          47.00       183.09
  132.36        2954.75           1286          48.00       187.45
  132.39        2955.00           1289          41.00       156.93
  132.43        2955.25           1292          51.00       200.52
  132.46        2955.50           1296          43.00       165.65
  132.49        2955.75           1299          41.00       156.93
  132.52        2956.00           1302          44.00       170.01
  132.55        2956.25           1306          44.00       170.01
  132.58        2956.50           1309          45.00       174.37
  132.61        2956.75           1312          40.00       152.57
  132.64        2957.00           1316          40.00       152.57
  132.67        2957.25           1319          47.00       183.09
  132.71        2957.50           1322          42.00       161.29
  132.74        2957.75           1326          47.00       183.09
  132.77        2958.00           1329          51.00       200.52
  132.80        2958.25           1332          49.00       191.81
  132.83        2958.50           1336          45.00       174.37
  132.86        2958.75           1339          41.00       156.93
  132.89        2959.00           1342          48.00       187.45
  132.92        2959.25           1346          47.00       183.09
  132.95        2959.50           1349          60.00       239.76
  132.98        2959.75           1352          81.00       331.30
  133.01        2960.00           1356         123.00       514.39
  133.05        2960.25           1359         158.00       666.97
  133.08        2960.50           1362         198.00       841.35
  133.11        2960.75           1366         271.00      1159.59
  133.14        2961.00           1369         321.00      1377.56
  133.17        2961.25           1372         389.00      1674.02
  133.20        2961.50           1376         526.00      2271.30
  133.23        2961.75           1379         951.00      4124.31
  133.26        2962.00           1382        2101.00      9139.38
  133.29        2962.25           1386        4257.00     18545.63
  133.32        2962.50           1389        6131.00     26725.87
  133.36        2962.75           1392        7879.00     34359.72
  133.39        2963.00           1396       10098.00     44055.58
  133.42        2963.25           1399       12070.00     52676.90
  133.45        2963.50           1402       13883.00     60607.05
  133.48        2963.75           1406       16258.00     71001.12
  133.51        2964.00           1409       18118.00     79145.85
  133.54        2964.25           1412       20031.00     87526.83
  133.57        2964.50           1416       22423.00     98012.27
  133.60        2964.75           1419       24367.00    106538.80
  133.64        2965.00           1422       26021.00    113796.70
  133.67        2965.25           1426       28418.00    124320.70
  133.70        2965.50           1429       30333.00    132733.30
  133.73        2965.75           1432       32299.00    141374.30
  133.76        2966.00           1436       34781.00    152289.70
  133.79        2966.25           1439       36413.00    159470.80
  133.82        2966.50           1442       37921.00    166109.10
  133.85        2966.75           1446       39064.00    171142.40
  133.88        2967.00           1449       39395.00    172600.20
  133.92        2967.25           1452       39323.00    172283.10
  133.95        2967.50           1456       39422.00    172719.20
  133.98        2967.75           1459       39221.00    171833.90
  134.01        2968.00           1462       38723.00    169640.60
  134.04        2968.25           1466       37291.00    163335.50
  134.07        2968.50           1469       35518.00    155532.20
  134.10        2968.75           1472       33772.00    147851.40
  134.13        2969.00           1476       31354.00    137220.20
  134.16        2969.25           1479       29594.00    129486.40
  134.19        2969.50           1482       27774.00    121492.60
  134.22        2969.75           1486       25382.00    110992.30
  134.25        2970.00           1489       23684.00    103542.60
  134.29        2970.25           1492       21891.00     95679.65
  134.32        2970.50           1496       19413.00     84818.87
  134.35        2970.75           1499       17736.00     77472.79
  134.38        2971.00           1502       15882.00     69355.15
  134.41        2971.25           1506       13489.00     58883.36
  134.44        2971.50           1509       11456.00     49992.10
  134.47        2971.75           1513        9259.00     40388.93
  134.50        2972.00           1516        7369.00     32132.10
  134.53        2972.25           1519        5413.00     23591.23
  134.57        2972.50           1523        3139.00     13667.33
  134.60        2972.75           1526        1623.00      7054.68
  134.63        2973.00           1529         714.00      3090.96
  134.66        2973.25           1533         423.00      1822.24
  134.69        2973.50           1536         329.00      1412.44
  134.72        2973.75           1539         267.00      1142.15
  134.75        2974.00           1543         228.00       972.13
  134.78        2974.25           1546         166.00       701.85
  134.81        2974.50           1549         129.00       540.55
  134.84        2974.75           1553          84.00       344.38
  134.87        2975.00           1556          60.00       239.76
  134.90        2975.25           1559          58.00       231.04
  134.94        2975.50           1563          49.00       191.81
  134.97        2975.75           1566          47.00       183.09
  135.00        2976.00           1569          44.00       170.01
  135.03        2976.25           1573          52.00       204.88
  135.06        2976.50           1576          50.00       196.17
  135.09        2976.75           1579          45.00       174.37
  135.12        2977.00           1583          48.00       187.45
  135.15        2977.25           1586          50.00       196.17
  135.18        2977.50           1590          51.00       200.52
  135.21        2977.75           1593          45.00       174.37
  135.24        2978.00           1596          46.00       178.73
  135.27        2978.25           1600          49.00       191.81
  135.31        2978.50           1603          48.00       187.45
  135.34        2978.75           1606          52.00       204.88
  135.37        2979.00           1610          45.00       174.37
  135.40        2979.25           1613          46.00       178.73
  135.43        2979.50           1616          48.00       187.45
  135.46        2979.75           1620          46.00       178.73
  135.49        2980.00           1623          47.00       183.09
  135.52        2980.25           1626          43.00       165.65
  135.55        2980.50           1630          44.00       170.01
  135.58        2980.75           1633          54.00       213.60
  135.62        2981.00           1637          42.00       161.29
  135.65        2981.25           1640          41.00       156.93
  135.68        2981.50           1643          41.00       156.93
  135.71        2981.75           1647          40.00       152.57
  135.74        2982.00           1650          46.00       178.73
  135.77        2982.25           1653          37.00       139.49
  135.80        2982.50           1657          43.00       165.65
  135.83        2982.75           1660          38.00       143.85
  135.86        2983.00           1663          48.00       187.45
  135.89        2983.25           1667          35.00       130.78
  135.92        2983.50           1670          46.00       178.73
  135.95        2983.75           1673          45.00       174.37
  135.99        2984.00           1677          46.00       178.73
HS scan finished at 02:16:12
end
************************************************************
  HS Scan of (1) Internal mercury lamp
************************************************************
Integration time is 0.2294 seconds per sample
dh240517Manchester 53.47 2.23 2.965129pr1000
************************************************************
Dead Time -------------------------  3E-08 
Number of Cycles Used -------------  4 
Starting Wavelength (Angstroms) ---  2950 
Final Wavelength (Angstoms) -------  2984 
Wavelength Increment (Angstroms) --  .25 
Filter Wheel #1 Position ---------- (1) Ground quartz diffuser (ND=2.32)
Filter Wheel #2 Position ---------- (1) Neutral Density 0.494



************************************************************
HS scan start time = 21:12:02
Dark Count =  7.3 


Time (GMT)  Wavelength (Ang)  Step Number  Raw Counts  Counts/Second

 1272.41        2950.00           1222          40.00       142.55
 1272.48        2950.25           1226          44.00       159.98
 1272.51        2950.50           1229          36.00       125.11
 1272.54        2950.75           1232          43.00       155.62
 1272.57        2951.00           1236          39.00       138.19
 1272.60        2951.25           1239          47.00       173.06
 1272.63        2951.50           1242          40.00       142.55
 1272.66        2951.75           1246          42.00       151.26
 1272.69        2952.00           1249          42.00       151.26
 1272.72        2952.25           1252          43.00       155.62
 1272.75        2952.50           1256          40.00       142.55
 1272.78        2952.75           1259          42.00       151.26
 1272.81        2953.00           1262          45.00       164.34
 1272.84        2953.25           1266          39.00       138.19
 1272.88        2953.50           1269          41.00       146.91
 1272.91        2953.75           1272          36.00       125.11
 1272.94        2954.00           1276          43.00       155.62
 1272.97        2954.25           1279          43.00       155.62
 1273.00        2954.50           1282          48.00       177.42
 1273.03        2954.75           1286          35.00       120.75
 1273.06        2955.00           1289          51.00       190.50
 1273.09        2955.25           1292          42.00       151.26
 1273.12        2955.50           1296          49.00       181.78
 1273.15        2955.75           1299          47.00       173.06
 1273.18        2956.00           1302          51.00       190.50
 1273.21        2956.25           1306          46.00       168.70
 1273.24        2956.50           1309          45.00       164.34
 1273.27        2956.75           1312          47.00       173.06
 1273.31        2957.00           1316          49.00       181.78
 1273.34        2957.25           1319          40.00       142.55
 1273.37        2957.50           1322          42.00       151.26
 1273.40        2957.75           1326          56.00       212.29
 1273.43        2958.00           1329          52.00       194.86
 1273.46        2958.25           1332          45.00       164.34
 1273.49        2958.50           1336          42.00       151.26
 1273.52        2958.75           1339          52.00       194.86
 1273.55        2959.00           1342          47.00       173.06
 1273.58        2959.25           1346          55.00       207.94
 1273.61        2959.50           1349          59.00       225.37
 1273.64        2959.75           1352          78.00       308.20
 1273.67        2960.00           1356         117.00       478.21
 1273.70        2960.25           1359         156.00       648.23
 1273.74        2960.50           1362         200.00       840.04
 1273.77        2960.75           1366         246.00      1040.57
 1273.80        2961.00           1369         327.00      1393.69
 1273.83        2961.25           1372         351.00      1498.32
 1273.86        2961.50           1376         453.00      1943.01
 1273.89        2961.75           1379         609.00      2623.14
 1273.92        2962.00           1382        1112.00      4816.30
 1273.95        2962.25           1386        2710.00     11785.77
 1273.98        2962.50           1389        4380.00     19072.38
 1274.01        2962.75           1392        6118.00     26659.07
 1274.04        2963.00           1396        8419.00     36708.67
 1274.08        2963.25           1399       10329.00     45055.19
 1274.11        2963.50           1402       12138.00     52964.21
 1274.14        2963.75           1406       14666.00     64023.03
 1274.17        2964.00           1409       16673.00     72807.95
 1274.20        2964.25           1412       18413.00     80427.91
 1274.23        2964.50           1416       20987.00     91706.62
 1274.26        2964.75           1419       22844.00     99848.34
 1274.29        2965.00           1422       24697.00    107976.50
 1274.32        2965.25           1426       27144.00    118716.30
 1274.36        2965.50           1429       28909.00    126467.10
 1274.39        2965.75           1432       30726.00    134450.10
 1274.42        2966.00           1436       33095.00    144864.00
 1274.45        2966.25           1439       34628.00    151606.50
 1274.48        2966.50           1442       36607.00    160314.50
 1274.51        2966.75           1446       38387.00    168150.80
 1274.54        2967.00           1449       39197.00    171718.00
 1274.57        2967.25           1452       39400.00    172612.10
 1274.60        2967.50           1456       39360.00    172435.90
 1274.63        2967.75           1459       39346.00    172374.30
 1274.66        2968.00           1462       39101.00    171295.20
 1274.69        2968.25           1466       38244.00    167521.10
 1274.73        2968.50           1469       37126.00    162599.00
 1274.76        2968.75           1472       35315.00    154628.90
 1274.79        2969.00           1476       33009.00    144485.90
 1274.82        2969.25           1479       31339.00    137144.20
 1274.85        2969.50           1482       29482.00    128984.20
 1274.88        2969.75           1486       26902.00    117653.90
 1274.91        2970.00           1489       25189.00    110135.30
 1274.94        2970.25           1492       23320.00    101935.90
 1274.97        2970.50           1496       20927.00     91443.62
 1275.01        2970.75           1499       19153.00     83669.65
 1275.04        2971.00           1502       17400.00     75991.27
 1275.07        2971.25           1506       15102.00     65931.07
 1275.10        2971.50           1509       13172.00     57486.59
 1275.13        2971.75           1513       11018.00     48067.09
 1275.16        2972.00           1516        9226.00     40234.68
 1275.19        2972.25           1519        7331.00     31956.08
 1275.22        2972.50           1523        5016.00     21848.23
 1275.25        2972.75           1526        3309.00     14398.98
 1275.28        2973.00           1529        1741.00      7559.26
 1275.32        2973.25           1533         585.00      2518.50
 1275.35        2973.50           1536         376.00      1607.31
 1275.38        2973.75           1539         308.00      1310.86
 1275.41        2974.00           1543         251.00      1062.37
 1275.44        2974.25           1546         166.00       691.82
 1275.47        2974.50           1549         136.00       561.04
 1275.50        2974.75           1553          79.00       312.56
 1275.53        2975.00           1556          62.00       238.45
 1275.56        2975.25           1559          48.00       177.42
 1275.60        2975.50           1563          54.00       203.58
 1275.63        2975.75           1566          49.00       181.78
 1275.66        2976.00           1569          48.00       177.42
 1275.69        2976.25           1573          60.00       229.73
 1275.72        2976.50           1576          44.00       159.98
 1275.75        2976.75           1579          44.00       159.98
 1275.78        2977.00           1583          48.00       177.42
 1275.81        2977.25           1586          46.00       168.70
 1275.84        2977.50           1590          49.00       181.78
 1275.87        2977.75           1593          54.00       203.58
 1275.91        2978.00           1596          45.00       164.34
 1275.94        2978.25           1600          42.00       151.26
 1275.97        2978.50           1603          50.00       186.14
 1276.00        2978.75           1606          38.00       133.83
 1276.03        2979.00           1610          40.00       142.55
 1276.06        2979.25           1613          45.00       164.34
 1276.09        2979.50           1616          44.00       159.98
 1276.12        2979.75           1620          44.00       159.98
 1276.15        2980.00           1623          51.00       190.50
 1276.18        2980.25           1626          38.00       133.83
 1276.21        2980.50           1630          37.00       129.47
 1276.24        2980.75           1633          61.00       234.09
 1276.27        2981.00           1637          44.00       159.98
 1276.30        2981.25           1640          48.00       177.42
 1276.34        2981.50           1643          44.00       159.98
 1276.37        2981.75           1647          46.00       168.70
 1276.40        2982.00           1650          48.00       177.42
 1276.43        2982.25           1653          43.00       155.62
 1276.46        2982.50           1657          47.00       173.06
 1276.49        2982.75           1660          42.00       151.26
 1276.52        2983.00           1663          47.00       173.06
 1276.55        2983.25           1667          43.00       155.62
 1276.58        2983.50           1670          44.00       159.98
 1276.61        2983.75           1673          42.00       151.26
 1276.65        2984.00           1677          45.00       164.34
HS scan finished at 21:16:52
end
