************************************************************
  HS Scan of (1) Internal mercury lamp
************************************************************
Integration time is 0.2294 seconds per sample
dh280518Manchester 53.47 2.23 2.911481pr1000
************************************************************
Dead Time -------------------------  3E-08 
Number of Cycles Used -------------  4 
Starting Wavelength (Angstroms) ---  2950 
Final Wavelength (Angstoms) -------  2984 
Wavelength Increment (Angstroms) --  .25 
Filter Wheel #1 Position ---------- (1) Ground quartz diffuser (ND=2.32)
Filter Wheel #2 Position ---------- (1) Neutral Density 0.494



************************************************************
HS scan start time = 01:34:18
Dark Count =  5.2 


Time (GMT)  Wavelength (Ang)  Step Number  Raw Counts  Counts/Second

   94.67        2950.00           1222          61.00       243.25
   94.74        2950.25           1226          62.00       247.60
   94.77        2950.50           1229          65.00       260.68
   94.80        2950.75           1232          62.00       247.60
   94.83        2951.00           1236          56.00       221.45
   94.86        2951.25           1239          51.00       199.65
   94.89        2951.50           1242          59.00       234.53
   94.92        2951.75           1246          53.00       208.37
   94.95        2952.00           1249          54.00       212.73
   94.98        2952.25           1252          51.00       199.65
   95.01        2952.50           1256          53.00       208.37
   95.04        2952.75           1259          55.00       217.09
   95.07        2953.00           1262          53.00       208.37
   95.11        2953.25           1266          53.00       208.37
   95.14        2953.50           1269          58.00       230.17
   95.17        2953.75           1272          58.00       230.17
   95.20        2954.00           1276          61.00       243.25
   95.23        2954.25           1279          52.00       204.01
   95.26        2954.50           1282          55.00       217.09
   95.29        2954.75           1286          59.00       234.53
   95.32        2955.00           1289          54.00       212.73
   95.35        2955.25           1292          57.00       225.81
   95.38        2955.50           1296          65.00       260.68
   95.41        2955.75           1299          61.00       243.25
   95.44        2956.00           1302          55.00       217.09
   95.48        2956.25           1306          62.00       247.60
   95.51        2956.50           1309          55.00       217.09
   95.54        2956.75           1312          55.00       217.09
   95.57        2957.00           1316          62.00       247.60
   95.60        2957.25           1319          57.00       225.81
   95.63        2957.50           1322          56.00       221.45
   95.66        2957.75           1326          50.00       195.29
   95.69        2958.00           1329          64.00       256.32
   95.72        2958.25           1332          52.00       204.01
   95.75        2958.50           1336          59.00       234.53
   95.78        2958.75           1339          56.00       221.45
   95.81        2959.00           1342          65.00       260.68
   95.84        2959.25           1346          58.00       230.17
   95.88        2959.50           1349          67.00       269.40
   95.91        2959.75           1352          74.00       299.92
   95.94        2960.00           1356          95.00       391.46
   95.97        2960.25           1359         120.00       500.44
   96.00        2960.50           1362         148.00       622.51
   96.03        2960.75           1366         192.00       814.32
   96.06        2961.00           1369         249.00      1062.81
   96.09        2961.25           1372         292.00      1250.26
   96.12        2961.50           1376         361.00      1551.07
   96.15        2961.75           1379         522.00      2252.99
   96.18        2962.00           1382        1228.00      5331.28
   96.21        2962.25           1386        2953.00     12855.00
   96.24        2962.50           1389        4391.00     19129.55
   96.27        2962.75           1392        5711.00     24891.29
   96.31        2963.00           1396        7592.00     33105.22
   96.34        2963.25           1399        9070.00     39562.18
   96.37        2963.50           1402       10635.00     46401.96
   96.40        2963.75           1406       12725.00     55540.59
   96.43        2964.00           1409       14318.00     62509.44
   96.46        2964.25           1412       15839.00     69166.04
   96.49        2964.50           1416       18000.00     78628.16
   96.52        2964.75           1419       19421.00     84853.05
   96.55        2965.00           1422       20854.00     91132.88
   96.59        2965.25           1426       22973.00    100423.30
   96.62        2965.50           1429       24489.00    107073.10
   96.65        2965.75           1432       25827.00    112944.40
   96.68        2966.00           1436       27701.00    121171.20
   96.71        2966.25           1439       29231.00    127890.80
   96.74        2966.50           1442       30550.00    133685.90
   96.77        2966.75           1446       31854.00    139417.10
   96.80        2967.00           1449       32057.00    140309.50
   96.83        2967.25           1452       32123.00    140599.70
   96.86        2967.50           1456       32073.00    140379.90
   96.90        2967.75           1459       32147.00    140705.10
   96.93        2968.00           1462       31870.00    139487.50
   96.96        2968.25           1466       30793.00    134753.80
   96.99        2968.50           1469       29587.00    129454.70
   97.02        2968.75           1472       28114.00    122984.70
   97.05        2969.00           1476       26208.00    114616.60
   97.08        2969.25           1479       24783.00    108363.10
   97.11        2969.50           1482       23327.00    101975.80
   97.14        2969.75           1486       21321.00     93179.91
   97.17        2970.00           1489       19744.00     86268.32
   97.21        2970.25           1492       18479.00     80726.22
   97.24        2970.50           1496       16509.00     72099.12
   97.27        2970.75           1499       14883.00     64981.83
   97.30        2971.00           1502       13599.00     59363.70
   97.33        2971.25           1506       11545.00     50380.36
   97.36        2971.50           1509       10061.00     43892.98
   97.39        2971.75           1513        8161.00     35590.73
   97.42        2972.00           1516        6773.00     29528.33
   97.45        2972.25           1519        5319.00     23180.02
   97.48        2972.50           1523        3397.00     14792.09
   97.52        2972.75           1526        2040.00      8872.46
   97.55        2973.00           1529         862.00      3735.38
   97.58        2973.25           1533         421.00      1812.65
   97.61        2973.50           1536         337.00      1446.44
   97.64        2973.75           1539         295.00      1263.34
   97.67        2974.00           1543         236.00      1006.13
   97.70        2974.25           1546         183.00       775.08
   97.73        2974.50           1549         137.00       574.55
   97.76        2974.75           1553         100.00       413.26
   97.79        2975.00           1556          76.00       308.63
   97.83        2975.25           1559          75.00       304.27
   97.86        2975.50           1563          57.00       225.81
   97.89        2975.75           1566          54.00       212.73
   97.92        2976.00           1569          52.00       204.01
   97.95        2976.25           1573          59.00       234.53
   97.98        2976.50           1576          59.00       234.53
   98.01        2976.75           1579          70.00       282.48
   98.04        2977.00           1583          56.00       221.45
   98.07        2977.25           1586          59.00       234.53
   98.10        2977.50           1590          63.00       251.96
   98.13        2977.75           1593          54.00       212.73
   98.16        2978.00           1596          46.00       177.86
   98.19        2978.25           1600          54.00       212.73
   98.23        2978.50           1603          59.00       234.53
   98.26        2978.75           1606          59.00       234.53
   98.29        2979.00           1610          49.00       190.93
   98.32        2979.25           1613          52.00       204.01
   98.35        2979.50           1616          45.00       173.50
   98.38        2979.75           1620          51.00       199.65
   98.41        2980.00           1623          45.00       173.50
   98.44        2980.25           1626          52.00       204.01
   98.47        2980.50           1630          51.00       199.65
   98.50        2980.75           1633          55.00       217.09
   98.53        2981.00           1637          53.00       208.37
   98.57        2981.25           1640          46.00       177.86
   98.60        2981.50           1643          52.00       204.01
   98.63        2981.75           1647          52.00       204.01
   98.66        2982.00           1650          49.00       190.93
   98.69        2982.25           1653          51.00       199.65
   98.72        2982.50           1657          50.00       195.29
   98.75        2982.75           1660          43.00       164.78
   98.78        2983.00           1663          50.00       195.29
   98.81        2983.25           1667          49.00       190.93
   98.84        2983.50           1670          54.00       212.73
   98.88        2983.75           1673          49.00       190.93
   98.91        2984.00           1677          42.00       160.42
HS scan finished at 01:39:07
end
************************************************************
  HS Scan of (1) Internal mercury lamp
************************************************************
Integration time is 0.2294 seconds per sample
dh280518Manchester 53.47 2.23 3.072425pr1000
************************************************************
Dead Time -------------------------  3E-08 
Number of Cycles Used -------------  4 
Starting Wavelength (Angstroms) ---  2950 
Final Wavelength (Angstoms) -------  2984 
Wavelength Increment (Angstroms) --  .25 
Filter Wheel #1 Position ---------- (1) Ground quartz diffuser (ND=2.32)
Filter Wheel #2 Position ---------- (1) Neutral Density 0.494



************************************************************
HS scan start time = 21:12:05
Dark Count =  6.7 


Time (GMT)  Wavelength (Ang)  Step Number  Raw Counts  Counts/Second

 1272.46        2950.00           1222          55.00       210.55
 1272.52        2950.25           1226          51.00       193.11
 1272.55        2950.50           1229          55.00       210.55
 1272.59        2950.75           1232          76.00       302.10
 1272.62        2951.00           1236          58.00       223.63
 1272.65        2951.25           1239          60.00       232.35
 1272.68        2951.50           1242          62.00       241.07
 1272.71        2951.75           1246          56.00       214.91
 1272.74        2952.00           1249          62.00       241.07
 1272.77        2952.25           1252          62.00       241.07
 1272.80        2952.50           1256          60.00       232.35
 1272.83        2952.75           1259          62.00       241.07
 1272.86        2953.00           1262          60.00       232.35
 1272.90        2953.25           1266          54.00       206.19
 1272.93        2953.50           1269          55.00       210.55
 1272.96        2953.75           1272          49.00       184.40
 1272.99        2954.00           1276          55.00       210.55
 1273.02        2954.25           1279          63.00       245.42
 1273.05        2954.50           1282          57.00       219.27
 1273.08        2954.75           1286          60.00       232.35
 1273.11        2955.00           1289          64.00       249.78
 1273.14        2955.25           1292          57.00       219.27
 1273.18        2955.50           1296          57.00       219.27
 1273.21        2955.75           1299          59.00       227.99
 1273.24        2956.00           1302          62.00       241.07
 1273.27        2956.25           1306          56.00       214.91
 1273.30        2956.50           1309          58.00       223.63
 1273.33        2956.75           1312          53.00       201.83
 1273.36        2957.00           1316          59.00       227.99
 1273.39        2957.25           1319          64.00       249.78
 1273.42        2957.50           1322          54.00       206.19
 1273.45        2957.75           1326          52.00       197.47
 1273.48        2958.00           1329          64.00       249.78
 1273.52        2958.25           1332          61.00       236.71
 1273.55        2958.50           1336          57.00       219.27
 1273.58        2958.75           1339          58.00       223.63
 1273.61        2959.00           1342          55.00       210.55
 1273.64        2959.25           1346          55.00       210.55
 1273.67        2959.50           1349          68.00       267.22
 1273.70        2959.75           1352          75.00       297.74
 1273.73        2960.00           1356         108.00       441.59
 1273.76        2960.25           1359         132.00       546.22
 1273.79        2960.50           1362         171.00       716.23
 1273.83        2960.75           1366         233.00       986.52
 1273.86        2961.00           1369         264.00      1121.66
 1273.89        2961.25           1372         312.00      1330.92
 1273.92        2961.50           1376         386.00      1653.53
 1273.95        2961.75           1379         511.00      2198.49
 1273.98        2962.00           1382        1173.00      5084.91
 1274.01        2962.25           1386        2884.00     12547.44
 1274.04        2962.50           1389        4454.00     19397.95
 1274.08        2962.75           1392        5897.00     25696.78
 1274.11        2963.00           1396        7972.00     34758.55
 1274.14        2963.25           1399        9468.00     41294.81
 1274.17        2963.50           1402       11077.00     48327.65
 1274.20        2963.75           1406       13223.00     57712.30
 1274.23        2964.00           1409       14939.00     65220.34
 1274.26        2964.25           1412       16518.00     72131.96
 1274.29        2964.50           1416       18688.00     81635.18
 1274.32        2964.75           1419       20272.00     88575.52
 1274.36        2965.00           1422       21800.00     95273.24
 1274.39        2965.25           1426       23961.00    104750.20
 1274.42        2965.50           1429       25509.00    111542.20
 1274.45        2965.75           1432       27166.00    118815.50
 1274.48        2966.00           1436       29222.00    127844.70
 1274.51        2966.25           1439       30886.00    135155.90
 1274.54        2966.50           1442       32313.00    141428.40
 1274.57        2966.75           1446       34002.00    148855.50
 1274.60        2967.00           1449       34264.00    150007.90
 1274.64        2967.25           1452       34349.00    150381.80
 1274.67        2967.50           1456       34392.00    150570.90
 1274.70        2967.75           1459       34188.00    149673.60
 1274.73        2968.00           1462       34086.00    149225.00
 1274.76        2968.25           1466       33128.00    145011.80
 1274.79        2968.50           1469       31685.00    138667.70
 1274.82        2968.75           1472       30254.00    132378.60
 1274.85        2969.00           1476       28322.00    123891.60
 1274.88        2969.25           1479       26711.00    116818.00
 1274.92        2969.50           1482       25233.00    110331.00
 1274.95        2969.75           1486       22994.00    100508.80
 1274.98        2970.00           1489       21434.00     93668.69
 1275.01        2970.25           1492       19716.00     86139.06
 1275.04        2970.50           1496       17682.00     77228.86
 1275.07        2970.75           1499       16193.00     70709.12
 1275.10        2971.00           1502       14597.00     63723.71
 1275.13        2971.25           1506       12766.00     55713.36
 1275.16        2971.50           1509       10900.00     47553.85
 1275.20        2971.75           1513        8957.00     39061.88
 1275.23        2972.00           1516        7382.00     32181.45
 1275.26        2972.25           1519        5588.00     24347.77
 1275.29        2972.50           1523        3595.00     15649.46
 1275.32        2972.75           1526        2086.00      9066.55
 1275.35        2973.00           1529         932.00      4034.05
 1275.38        2973.25           1533         416.00      1784.32
 1275.41        2973.50           1536         319.00      1361.43
 1275.44        2973.75           1539         290.00      1235.01
 1275.47        2974.00           1543         219.00       925.48
 1275.51        2974.25           1546         159.00       663.92
 1275.54        2974.50           1549         121.00       498.26
 1275.57        2974.75           1553          82.00       328.25
 1275.60        2975.00           1556          64.00       249.78
 1275.63        2975.25           1559          59.00       227.99
 1275.66        2975.50           1563          77.00       306.45
 1275.69        2975.75           1566          61.00       236.71
 1275.72        2976.00           1569          61.00       236.71
 1275.75        2976.25           1573          60.00       232.35
 1275.79        2976.50           1576          59.00       227.99
 1275.82        2976.75           1579          55.00       210.55
 1275.85        2977.00           1583          54.00       206.19
 1275.88        2977.25           1586          54.00       206.19
 1275.91        2977.50           1590          54.00       206.19
 1275.94        2977.75           1593          55.00       210.55
 1275.97        2978.00           1596          58.00       223.63
 1276.00        2978.25           1600          55.00       210.55
 1276.03        2978.50           1603          51.00       193.11
 1276.07        2978.75           1606          44.00       162.60
 1276.10        2979.00           1610          54.00       206.19
 1276.13        2979.25           1613          53.00       201.83
 1276.16        2979.50           1616          53.00       201.83
 1276.19        2979.75           1620          50.00       188.75
 1276.22        2980.00           1623          52.00       197.47
 1276.25        2980.25           1626          58.00       223.63
 1276.28        2980.50           1630          57.00       219.27
 1276.31        2980.75           1633          57.00       219.27
 1276.34        2981.00           1637          53.00       201.83
 1276.37        2981.25           1640          52.00       197.47
 1276.40        2981.50           1643          55.00       210.55
 1276.43        2981.75           1647          53.00       201.83
 1276.47        2982.00           1650          55.00       210.55
 1276.50        2982.25           1653          51.00       193.11
 1276.53        2982.50           1657          51.00       193.11
 1276.56        2982.75           1660          50.00       188.75
 1276.59        2983.00           1663          50.00       188.75
 1276.62        2983.25           1667          47.00       175.68
 1276.65        2983.50           1670          48.00       180.04
 1276.68        2983.75           1673          52.00       197.47
 1276.71        2984.00           1677          54.00       206.19
HS scan finished at 21:16:56
end
