************************************************************
  HS Scan of (1) Internal mercury lamp
************************************************************
Integration time is 0.2294 seconds per sample
dh270518Manchester 53.47 2.23 2.804185pr1000
************************************************************
Dead Time -------------------------  3E-08 
Number of Cycles Used -------------  4 
Starting Wavelength (Angstroms) ---  2950 
Final Wavelength (Angstoms) -------  2984 
Wavelength Increment (Angstroms) --  .25 
Filter Wheel #1 Position ---------- (1) Ground quartz diffuser (ND=2.32)
Filter Wheel #2 Position ---------- (1) Neutral Density 0.494



************************************************************
HS scan start time = 01:22:37
Dark Count =  5.1 


Time (GMT)  Wavelength (Ang)  Step Number  Raw Counts  Counts/Second

   82.99        2950.00           1222          57.00       226.24
   83.06        2950.25           1226          56.00       221.88
   83.09        2950.50           1229          50.00       195.73
   83.12        2950.75           1232          62.00       248.04
   83.15        2951.00           1236          61.00       243.68
   83.18        2951.25           1239          55.00       217.53
   83.21        2951.50           1242          60.00       239.32
   83.25        2951.75           1246          47.00       182.65
   83.28        2952.00           1249          63.00       252.40
   83.31        2952.25           1252          60.00       239.32
   83.34        2952.50           1256          50.00       195.73
   83.37        2952.75           1259          57.00       226.24
   83.40        2953.00           1262          59.00       234.96
   83.43        2953.25           1266          58.00       230.60
   83.46        2953.50           1269          60.00       239.32
   83.49        2953.75           1272          60.00       239.32
   83.52        2954.00           1276          59.00       234.96
   83.55        2954.25           1279          56.00       221.88
   83.59        2954.50           1282          52.00       204.45
   83.62        2954.75           1286          59.00       234.96
   83.65        2955.00           1289          53.00       208.81
   83.68        2955.25           1292          54.00       213.17
   83.71        2955.50           1296          56.00       221.88
   83.74        2955.75           1299          58.00       230.60
   83.77        2956.00           1302          67.00       269.84
   83.80        2956.25           1306          63.00       252.40
   83.83        2956.50           1309          55.00       217.53
   83.86        2956.75           1312          59.00       234.96
   83.89        2957.00           1316          61.00       243.68
   83.92        2957.25           1319          62.00       248.04
   83.95        2957.50           1322          58.00       230.60
   83.98        2957.75           1326          55.00       217.53
   84.01        2958.00           1329          52.00       204.45
   84.05        2958.25           1332          54.00       213.17
   84.08        2958.50           1336          53.00       208.81
   84.11        2958.75           1339          59.00       234.96
   84.14        2959.00           1342          64.00       256.76
   84.17        2959.25           1346          55.00       217.53
   84.20        2959.50           1349          56.00       221.88
   84.23        2959.75           1352          67.00       269.84
   84.26        2960.00           1356          84.00       343.94
   84.29        2960.25           1359         124.00       518.32
   84.32        2960.50           1362         163.00       688.33
   84.35        2960.75           1366         203.00       862.71
   84.38        2961.00           1369         223.00       949.90
   84.42        2961.25           1372         268.00      1146.07
   84.45        2961.50           1376         340.00      1459.96
   84.48        2961.75           1379         500.00      2157.51
   84.51        2962.00           1382        1130.00      4904.38
   84.54        2962.25           1386        2767.00     12044.02
   84.57        2962.50           1389        4187.00     18239.71
   84.60        2962.75           1392        5569.00     24271.81
   84.63        2963.00           1396        7431.00     32402.45
   84.66        2963.25           1399        8820.00     38470.27
   84.69        2963.50           1402       10264.00     44780.70
   84.73        2963.75           1406       12239.00     53415.53
   84.76        2964.00           1409       13684.00     59735.99
   84.79        2964.25           1412       15184.00     66299.57
   84.82        2964.50           1416       17007.00     74280.00
   84.85        2964.75           1419       18645.00     81453.82
   84.88        2965.00           1422       20162.00     88100.47
   84.91        2965.25           1426       22118.00     96674.48
   84.94        2965.50           1429       23507.00    102765.80
   84.97        2965.75           1432       24986.00    109254.20
   85.00        2966.00           1436       26937.00    117817.20
   85.03        2966.25           1439       28156.00    123169.60
   85.06        2966.50           1442       29535.00    129226.70
   85.10        2966.75           1446       30878.00    135127.80
   85.13        2967.00           1449       31305.00    137004.40
   85.16        2967.25           1452       31425.00    137531.90
   85.19        2967.50           1456       31150.00    136323.20
   85.22        2967.75           1459       31261.00    136811.00
   85.25        2968.00           1462       31001.00    135668.30
   85.28        2968.25           1466       30098.00    131700.20
   85.31        2968.50           1469       28833.00    126143.00
   85.35        2968.75           1472       27684.00    121096.90
   85.38        2969.00           1476       25775.00    112716.60
   85.41        2969.25           1479       24465.00    106968.30
   85.44        2969.50           1482       22800.00     99665.03
   85.47        2969.75           1486       20929.00     91462.04
   85.50        2970.00           1489       19618.00     85716.65
   85.53        2970.25           1492       18236.00     79662.26
   85.56        2970.50           1496       16429.00     71749.31
   85.59        2970.75           1499       14729.00     64308.35
   85.63        2971.00           1502       13395.00     58471.71
   85.66        2971.25           1506       11456.00     49991.66
   85.69        2971.50           1509        9860.00     43014.94
   85.72        2971.75           1513        7940.00     34625.75
   85.75        2972.00           1516        6599.00     28768.93
   85.78        2972.25           1519        5271.00     22970.93
   85.81        2972.50           1523        3271.00     14242.79
   85.84        2972.75           1526        1946.00      8462.92
   85.87        2973.00           1529         934.00      4049.75
   85.90        2973.25           1533         437.00      1882.84
   85.93        2973.50           1536         315.00      1350.97
   85.96        2973.75           1539         293.00      1255.06
   85.99        2974.00           1543         225.00       958.62
   86.03        2974.25           1546         179.00       758.08
   86.06        2974.50           1549         143.00       601.14
   86.09        2974.75           1553          99.00       409.33
   86.12        2975.00           1556          80.00       326.51
   86.15        2975.25           1559          53.00       208.81
   86.18        2975.50           1563          60.00       239.32
   86.21        2975.75           1566          56.00       221.88
   86.24        2976.00           1569          55.00       217.53
   86.27        2976.25           1573          59.00       234.96
   86.30        2976.50           1576          53.00       208.81
   86.34        2976.75           1579          56.00       221.88
   86.37        2977.00           1583          52.00       204.45
   86.40        2977.25           1586          60.00       239.32
   86.43        2977.50           1590          53.00       208.81
   86.46        2977.75           1593          51.00       200.09
   86.49        2978.00           1596          53.00       208.81
   86.52        2978.25           1600          54.00       213.17
   86.55        2978.50           1603          57.00       226.24
   86.58        2978.75           1606          54.00       213.17
   86.61        2979.00           1610          57.00       226.24
   86.64        2979.25           1613          57.00       226.24
   86.67        2979.50           1616          50.00       195.73
   86.71        2979.75           1620          53.00       208.81
   86.74        2980.00           1623          57.00       226.24
   86.77        2980.25           1626          48.00       187.01
   86.80        2980.50           1630          50.00       195.73
   86.83        2980.75           1633          57.00       226.24
   86.86        2981.00           1637          48.00       187.01
   86.89        2981.25           1640          53.00       208.81
   86.92        2981.50           1643          55.00       217.53
   86.95        2981.75           1647          53.00       208.81
   86.98        2982.00           1650          51.00       200.09
   87.01        2982.25           1653          55.00       217.53
   87.05        2982.50           1657          46.00       178.29
   87.08        2982.75           1660          59.00       234.96
   87.11        2983.00           1663          54.00       213.17
   87.14        2983.25           1667          48.00       187.01
   87.17        2983.50           1670          49.00       191.37
   87.20        2983.75           1673          47.00       182.65
   87.23        2984.00           1677          59.00       234.96
HS scan finished at 01:27:27
end
************************************************************
  HS Scan of (1) Internal mercury lamp
************************************************************
Integration time is 0.2294 seconds per sample
dh270518Manchester 53.47 2.23 3.018777pr1000
************************************************************
Dead Time -------------------------  3E-08 
Number of Cycles Used -------------  4 
Starting Wavelength (Angstroms) ---  2950 
Final Wavelength (Angstoms) -------  2984 
Wavelength Increment (Angstroms) --  .25 
Filter Wheel #1 Position ---------- (1) Ground quartz diffuser (ND=2.32)
Filter Wheel #2 Position ---------- (1) Neutral Density 0.494



************************************************************
HS scan start time = 21:12:08
Dark Count =  4.2 


Time (GMT)  Wavelength (Ang)  Step Number  Raw Counts  Counts/Second

 1272.50        2950.00           1222          53.00       212.73
 1272.57        2950.25           1226          56.00       225.81
 1272.60        2950.50           1229          60.00       243.25
 1272.63        2950.75           1232          59.00       238.89
 1272.66        2951.00           1236          55.00       221.45
 1272.69        2951.25           1239          62.00       251.96
 1272.72        2951.50           1242          56.00       225.81
 1272.75        2951.75           1246          49.00       195.29
 1272.78        2952.00           1249          56.00       225.81
 1272.81        2952.25           1252          60.00       243.25
 1272.84        2952.50           1256          57.00       230.17
 1272.87        2952.75           1259          59.00       238.89
 1272.91        2953.00           1262          58.00       234.53
 1272.94        2953.25           1266          59.00       238.89
 1272.97        2953.50           1269          56.00       225.81
 1273.00        2953.75           1272          56.00       225.81
 1273.03        2954.00           1276          54.00       217.09
 1273.06        2954.25           1279          54.00       217.09
 1273.09        2954.50           1282          66.00       269.40
 1273.12        2954.75           1286          50.00       199.65
 1273.15        2955.00           1289          56.00       225.81
 1273.18        2955.25           1292          55.00       221.45
 1273.21        2955.50           1296          52.00       208.37
 1273.24        2955.75           1299          55.00       221.45
 1273.27        2956.00           1302          62.00       251.96
 1273.31        2956.25           1306          54.00       217.09
 1273.34        2956.50           1309          58.00       234.53
 1273.37        2956.75           1312          56.00       225.81
 1273.40        2957.00           1316          55.00       221.45
 1273.43        2957.25           1319          62.00       251.96
 1273.46        2957.50           1322          53.00       212.73
 1273.49        2957.75           1326          52.00       208.37
 1273.52        2958.00           1329          56.00       225.81
 1273.55        2958.25           1332          57.00       230.17
 1273.58        2958.50           1336          58.00       234.53
 1273.61        2958.75           1339          57.00       230.17
 1273.64        2959.00           1342          57.00       230.17
 1273.68        2959.25           1346          63.00       256.32
 1273.71        2959.50           1349          56.00       225.81
 1273.74        2959.75           1352          87.00       360.95
 1273.77        2960.00           1356         115.00       483.01
 1273.80        2960.25           1359         142.00       600.71
 1273.83        2960.50           1362         179.00       762.01
 1273.86        2960.75           1366         233.00       997.41
 1273.89        2961.00           1369         286.00      1228.47
 1273.92        2961.25           1372         310.00      1333.10
 1273.95        2961.50           1376         368.00      1585.95
 1273.98        2961.75           1379         491.00      2122.19
 1274.02        2962.00           1382         887.00      3848.74
 1274.05        2962.25           1386        2437.00     10608.43
 1274.08        2962.50           1389        3924.00     17095.95
 1274.11        2962.75           1392        5378.00     23441.94
 1274.14        2963.00           1396        7476.00     32602.93
 1274.17        2963.25           1399        9048.00     39470.43
 1274.20        2963.50           1402       10700.00     46690.46
 1274.23        2963.75           1406       12797.00     55859.88
 1274.26        2964.00           1409       14348.00     62645.09
 1274.30        2964.25           1412       15805.00     69021.59
 1274.33        2964.50           1416       17911.00     78242.74
 1274.36        2964.75           1419       19429.00     84892.48
 1274.39        2965.00           1422       20901.00     91343.26
 1274.42        2965.25           1426       23044.00    100739.10
 1274.45        2965.50           1429       24402.00    106695.80
 1274.48        2965.75           1432       26328.00    115147.80
 1274.51        2966.00           1436       28393.00    124214.40
 1274.55        2966.25           1439       29993.00    131242.80
 1274.58        2966.50           1442       31402.00    137434.70
 1274.61        2966.75           1446       33037.00    144622.60
 1274.64        2967.00           1449       34087.00    149240.40
 1274.67        2967.25           1452       33945.00    148615.80
 1274.70        2967.50           1456       34066.00    149148.00
 1274.73        2967.75           1459       34085.00    149231.60
 1274.76        2968.00           1462       34173.00    149618.60
 1274.80        2968.25           1466       33475.00    146548.70
 1274.83        2968.50           1469       32491.00    142221.90
 1274.86        2968.75           1472       30976.00    135562.40
 1274.89        2969.00           1476       29047.00    127086.90
 1274.92        2969.25           1479       27343.00    119603.60
 1274.95        2969.50           1482       25889.00    113220.90
 1274.98        2969.75           1486       23518.00    102818.00
 1275.01        2970.00           1489       22341.00     97656.22
 1275.04        2970.25           1492       20811.00     90948.77
 1275.08        2970.50           1496       18608.00     81295.68
 1275.11        2970.75           1499       17187.00     75072.12
 1275.14        2971.00           1502       15610.00     68168.04
 1275.17        2971.25           1506       13669.00     59674.30
 1275.20        2971.50           1509       11879.00     51845.18
 1275.23        2971.75           1513        9798.00     42747.90
 1275.26        2972.00           1516        8234.00     35914.00
 1275.29        2972.25           1519        6589.00     28729.20
 1275.32        2972.50           1523        4509.00     19648.89
 1275.36        2972.75           1526        2975.00     12955.34
 1275.39        2973.00           1529        1513.00      6578.46
 1275.42        2973.25           1533         540.00      2335.82
 1275.45        2973.50           1536         355.00      1529.28
 1275.48        2973.75           1539         275.00      1180.51
 1275.51        2974.00           1543         235.00      1006.13
 1275.54        2974.25           1546         174.00       740.21
 1275.57        2974.50           1549         120.00       504.80
 1275.60        2974.75           1553          86.00       356.59
 1275.64        2975.00           1556          75.00       308.63
 1275.67        2975.25           1559          60.00       243.25
 1275.70        2975.50           1563          61.00       247.60
 1275.73        2975.75           1566          54.00       217.09
 1275.76        2976.00           1569          58.00       234.53
 1275.79        2976.25           1573          59.00       238.89
 1275.82        2976.50           1576          55.00       221.45
 1275.85        2976.75           1579          48.00       190.93
 1275.88        2977.00           1583          61.00       247.60
 1275.92        2977.25           1586          62.00       251.96
 1275.95        2977.50           1590          47.00       186.57
 1275.98        2977.75           1593          59.00       238.89
 1276.01        2978.00           1596          54.00       217.09
 1276.04        2978.25           1600          52.00       208.37
 1276.07        2978.50           1603          50.00       199.65
 1276.10        2978.75           1606          52.00       208.37
 1276.13        2979.00           1610          53.00       212.73
 1276.16        2979.25           1613          59.00       238.89
 1276.20        2979.50           1616          57.00       230.17
 1276.23        2979.75           1620          64.00       260.68
 1276.26        2980.00           1623          56.00       225.81
 1276.29        2980.25           1626          49.00       195.29
 1276.32        2980.50           1630          50.00       199.65
 1276.35        2980.75           1633          55.00       221.45
 1276.38        2981.00           1637          52.00       208.37
 1276.41        2981.25           1640          57.00       230.17
 1276.44        2981.50           1643          52.00       208.37
 1276.47        2981.75           1647          54.00       217.09
 1276.51        2982.00           1650          47.00       186.57
 1276.54        2982.25           1653          48.00       190.93
 1276.57        2982.50           1657          58.00       234.53
 1276.60        2982.75           1660          48.00       190.93
 1276.63        2983.00           1663          45.00       177.86
 1276.66        2983.25           1667          54.00       217.09
 1276.69        2983.50           1670          48.00       190.93
 1276.72        2983.75           1673          46.00       182.22
 1276.75        2984.00           1677          61.00       247.60
HS scan finished at 21:16:58
end
