************************************************************
  HS Scan of (1) Internal mercury lamp
************************************************************
Integration time is 0.2294 seconds per sample
dh220517Manchester 53.47 2.23 2.804185pr1000
************************************************************
Dead Time -------------------------  3E-08 
Number of Cycles Used -------------  4 
Starting Wavelength (Angstroms) ---  2950 
Final Wavelength (Angstoms) -------  2984 
Wavelength Increment (Angstroms) --  .25 
Filter Wheel #1 Position ---------- (1) Ground quartz diffuser (ND=2.32)
Filter Wheel #2 Position ---------- (1) Neutral Density 0.494



************************************************************
HS scan start time = 01:33:37
Dark Count =  5.1 


Time (GMT)  Wavelength (Ang)  Step Number  Raw Counts  Counts/Second

   93.98        2950.00           1222          49.00       191.37
   94.05        2950.25           1226          42.00       160.86
   94.08        2950.50           1229          43.00       165.21
   94.11        2950.75           1232          41.00       156.50
   94.14        2951.00           1236          45.00       173.93
   94.17        2951.25           1239          49.00       191.37
   94.20        2951.50           1242          42.00       160.86
   94.24        2951.75           1246          52.00       204.45
   94.27        2952.00           1249          45.00       173.93
   94.30        2952.25           1252          50.00       195.73
   94.33        2952.50           1256          46.00       178.29
   94.36        2952.75           1259          44.00       169.57
   94.39        2953.00           1262          42.00       160.86
   94.42        2953.25           1266          49.00       191.37
   94.45        2953.50           1269          41.00       156.50
   94.48        2953.75           1272          40.00       152.14
   94.51        2954.00           1276          43.00       165.21
   94.54        2954.25           1279          46.00       178.29
   94.57        2954.50           1282          43.00       165.21
   94.61        2954.75           1286          42.00       160.86
   94.64        2955.00           1289          50.00       195.73
   94.67        2955.25           1292          44.00       169.57
   94.70        2955.50           1296          39.00       147.78
   94.73        2955.75           1299          59.00       234.96
   94.76        2956.00           1302          46.00       178.29
   94.79        2956.25           1306          43.00       165.21
   94.82        2956.50           1309          47.00       182.65
   94.85        2956.75           1312          45.00       173.93
   94.88        2957.00           1316          44.00       169.57
   94.91        2957.25           1319          45.00       173.93
   94.94        2957.50           1322          38.00       143.42
   94.97        2957.75           1326          45.00       173.93
   95.00        2958.00           1329          50.00       195.73
   95.03        2958.25           1332          46.00       178.29
   95.07        2958.50           1336          54.00       213.17
   95.10        2958.75           1339          44.00       169.57
   95.13        2959.00           1342          52.00       204.45
   95.16        2959.25           1346          47.00       182.65
   95.19        2959.50           1349          53.00       208.81
   95.22        2959.75           1352          77.00       313.43
   95.25        2960.00           1356         104.00       431.13
   95.28        2960.25           1359         149.00       627.30
   95.31        2960.50           1362         166.00       701.41
   95.34        2960.75           1366         240.00      1024.01
   95.37        2961.00           1369         266.00      1137.35
   95.40        2961.25           1372         318.00      1364.05
   95.44        2961.50           1376         439.00      1891.56
   95.47        2961.75           1379         700.00      3029.48
   95.50        2962.00           1382        1495.00      6496.04
   95.53        2962.25           1386        3345.00     14565.65
   95.56        2962.50           1389        4976.00     21683.24
   95.59        2962.75           1392        6604.00     28790.77
   95.62        2963.00           1396        8758.00     38199.38
   95.65        2963.25           1399       10624.00     46354.31
   95.68        2963.50           1402       12305.00     53704.16
   95.71        2963.75           1406       14597.00     63730.72
   95.74        2964.00           1409       16213.00     70803.68
   95.77        2964.25           1412       18009.00     78668.02
   95.81        2964.50           1416       20458.00     89397.68
   95.84        2964.75           1419       22165.00     96880.56
   95.87        2965.00           1422       23742.00    103796.60
   95.90        2965.25           1426       26402.00    115468.60
   95.93        2965.50           1429       28014.00    122546.00
   95.96        2965.75           1432       29571.00    129384.90
   95.99        2966.00           1436       32149.00    140714.40
   96.02        2966.25           1439       33395.00    146192.90
   96.05        2966.50           1442       34890.00    152768.70
   96.08        2966.75           1446       36257.00    158783.80
   96.12        2967.00           1449       36702.00    160742.30
   96.15        2967.25           1452       36771.00    161046.00
   96.18        2967.50           1456       36623.00    160394.60
   96.21        2967.75           1459       36780.00    161085.70
   96.24        2968.00           1462       36415.00    159479.10
   96.27        2968.25           1466       35163.00    153969.80
   96.30        2968.50           1469       33572.00    146971.40
   96.33        2968.75           1472       32049.00    140274.80
   96.36        2969.00           1476       29820.00    130478.80
   96.40        2969.25           1479       28276.00    123696.60
   96.43        2969.50           1482       26491.00    115859.30
   96.46        2969.75           1486       24274.00    106130.30
   96.49        2970.00           1489       22667.00     99081.79
   96.52        2970.25           1492       20980.00     91685.58
   96.55        2970.50           1496       18642.00     81440.68
   96.58        2970.75           1499       17050.00     74468.28
   96.61        2971.00           1502       15361.00     67074.25
   96.64        2971.25           1506       13101.00     57185.65
   96.67        2971.50           1509       11452.00     49974.17
   96.70        2971.75           1513        9246.00     40331.68
   96.73        2972.00           1516        7483.00     32629.58
   96.76        2972.25           1519        5834.00     25428.72
   96.80        2972.50           1523        3676.00     16009.87
   96.83        2972.75           1526        2239.00      9740.86
   96.86        2973.00           1529        1031.00      4472.70
   96.89        2973.25           1533         482.00      2079.03
   96.92        2973.50           1536         342.00      1468.68
   96.95        2973.75           1539         302.00      1294.30
   96.98        2974.00           1543         246.00      1050.16
   97.01        2974.25           1546         189.00       801.68
   97.04        2974.50           1549         147.00       618.58
   97.07        2974.75           1553         102.00       422.41
   97.10        2975.00           1556          72.00       291.63
   97.14        2975.25           1559          53.00       208.81
   97.17        2975.50           1563          53.00       208.81
   97.20        2975.75           1566          54.00       213.17
   97.23        2976.00           1569          46.00       178.29
   97.26        2976.25           1573          49.00       191.37
   97.29        2976.50           1576          48.00       187.01
   97.32        2976.75           1579          51.00       200.09
   97.35        2977.00           1583          48.00       187.01
   97.38        2977.25           1586          44.00       169.57
   97.41        2977.50           1590          48.00       187.01
   97.45        2977.75           1593          52.00       204.45
   97.48        2978.00           1596          42.00       160.86
   97.51        2978.25           1600          45.00       173.93
   97.54        2978.50           1603          54.00       213.17
   97.57        2978.75           1606          48.00       187.01
   97.60        2979.00           1610          49.00       191.37
   97.63        2979.25           1613          36.00       134.70
   97.66        2979.50           1616          41.00       156.50
   97.69        2979.75           1620          55.00       217.53
   97.72        2980.00           1623          48.00       187.01
   97.75        2980.25           1626          53.00       208.81
   97.78        2980.50           1630          46.00       178.29
   97.82        2980.75           1633          45.00       173.93
   97.85        2981.00           1637          40.00       152.14
   97.88        2981.25           1640          42.00       160.86
   97.91        2981.50           1643          44.00       169.57
   97.94        2981.75           1647          40.00       152.14
   97.97        2982.00           1650          43.00       165.21
   98.00        2982.25           1653          41.00       156.50
   98.03        2982.50           1657          37.00       139.06
   98.06        2982.75           1660          46.00       178.29
   98.09        2983.00           1663          39.00       147.78
   98.13        2983.25           1667          46.00       178.29
   98.16        2983.50           1670          44.00       169.57
   98.19        2983.75           1673          54.00       213.17
   98.22        2984.00           1677          52.00       204.45
HS scan finished at 01:38:26
end
************************************************************
  HS Scan of (1) Internal mercury lamp
************************************************************
Integration time is 0.2294 seconds per sample
dh220517Manchester 53.47 2.23 2.857833pr1000
************************************************************
Dead Time -------------------------  3E-08 
Number of Cycles Used -------------  4 
Starting Wavelength (Angstroms) ---  2950 
Final Wavelength (Angstoms) -------  2984 
Wavelength Increment (Angstroms) --  .25 
Filter Wheel #1 Position ---------- (1) Ground quartz diffuser (ND=2.32)
Filter Wheel #2 Position ---------- (1) Neutral Density 0.494



************************************************************
HS scan start time = 21:11:58
Dark Count =  6.9 


Time (GMT)  Wavelength (Ang)  Step Number  Raw Counts  Counts/Second

 1272.34        2950.00           1222          43.00       157.37
 1272.41        2950.25           1226          35.00       122.49
 1272.44        2950.50           1229          45.00       166.09
 1272.47        2950.75           1232          50.00       187.88
 1272.50        2951.00           1236          46.00       170.45
 1272.53        2951.25           1239          48.00       179.16
 1272.56        2951.50           1242          45.00       166.09
 1272.60        2951.75           1246          42.00       153.01
 1272.63        2952.00           1249          42.00       153.01
 1272.66        2952.25           1252          51.00       192.24
 1272.69        2952.50           1256          43.00       157.37
 1272.72        2952.75           1259          45.00       166.09
 1272.75        2953.00           1262          45.00       166.09
 1272.78        2953.25           1266          42.00       153.01
 1272.81        2953.50           1269          49.00       183.52
 1272.84        2953.75           1272          46.00       170.45
 1272.87        2954.00           1276          44.00       161.73
 1272.90        2954.25           1279          44.00       161.73
 1272.93        2954.50           1282          53.00       200.96
 1272.96        2954.75           1286          42.00       153.01
 1272.99        2955.00           1289          48.00       179.16
 1273.02        2955.25           1292          52.00       196.60
 1273.05        2955.50           1296          37.00       131.21
 1273.08        2955.75           1299          39.00       139.93
 1273.12        2956.00           1302          51.00       192.24
 1273.15        2956.25           1306          45.00       166.09
 1273.18        2956.50           1309          44.00       161.73
 1273.21        2956.75           1312          46.00       170.45
 1273.24        2957.00           1316          45.00       166.09
 1273.27        2957.25           1319          47.00       174.80
 1273.30        2957.50           1322          47.00       174.80
 1273.33        2957.75           1326          39.00       139.93
 1273.36        2958.00           1329          38.00       135.57
 1273.39        2958.25           1332          42.00       153.01
 1273.42        2958.50           1336          43.00       157.37
 1273.45        2958.75           1339          39.00       139.93
 1273.49        2959.00           1342          44.00       161.73
 1273.52        2959.25           1346          52.00       196.60
 1273.55        2959.50           1349          47.00       174.80
 1273.58        2959.75           1352          72.00       283.79
 1273.61        2960.00           1356         125.00       514.83
 1273.64        2960.25           1359         139.00       575.86
 1273.67        2960.50           1362         185.00       776.39
 1273.70        2960.75           1366         233.00       985.64
 1273.73        2961.00           1369         291.00      1238.49
 1273.76        2961.25           1372         360.00      1539.30
 1273.79        2961.50           1376         445.00      1909.87
 1273.83        2961.75           1379         768.00      3318.12
 1273.86        2962.00           1382        1606.00      6972.25
 1273.89        2962.25           1386        3648.00     15879.84
 1273.92        2962.50           1389        5231.00     22788.46
 1273.95        2962.75           1392        6910.00     30119.18
 1273.98        2963.00           1396        9202.00     40131.55
 1274.01        2963.25           1399       10642.00     46425.12
 1274.04        2963.50           1402       12590.00     54942.71
 1274.07        2963.75           1406       14804.00     64628.67
 1274.10        2964.00           1409       16504.00     72069.78
 1274.13        2964.25           1412       18330.00     80066.12
 1274.17        2964.50           1416       20667.00     90305.79
 1274.20        2964.75           1419       22548.00     98552.06
 1274.23        2965.00           1422       24282.00    106157.50
 1274.26        2965.25           1426       26704.00    116786.40
 1274.29        2965.50           1429       28331.00    123930.30
 1274.32        2965.75           1432       30013.00    131318.90
 1274.35        2966.00           1436       32208.00    140965.90
 1274.38        2966.25           1439       33991.00    148806.20
 1274.41        2966.50           1442       35517.00    155519.50
 1274.44        2966.75           1446       36800.00    161165.80
 1274.47        2967.00           1449       37027.00    162165.00
 1274.51        2967.25           1452       37066.00    162336.60
 1274.54        2967.50           1456       37044.00    162239.80
 1274.57        2967.75           1459       36972.00    161922.90
 1274.60        2968.00           1462       36679.00    160633.20
 1274.63        2968.25           1466       35354.00    154802.30
 1274.66        2968.50           1469       33907.00    148436.80
 1274.69        2968.75           1472       32257.00    141181.30
 1274.72        2969.00           1476       30153.00    131934.00
 1274.75        2969.25           1479       28665.00    125397.20
 1274.78        2969.50           1482       26833.00    117352.70
 1274.81        2969.75           1486       24519.00    107197.30
 1274.84        2970.00           1489       22981.00    100450.90
 1274.88        2970.25           1492       21190.00     92598.19
 1274.91        2970.50           1496       19027.00     83119.40
 1274.94        2970.75           1499       17261.00     75384.34
 1274.97        2971.00           1502       15411.00     67285.21
 1275.00        2971.25           1506       13336.00     58205.74
 1275.03        2971.50           1509       11366.00     49590.29
 1275.06        2971.75           1513        9156.00     39930.54
 1275.09        2972.00           1516        7376.00     32154.37
 1275.12        2972.25           1519        5811.00     25320.45
 1275.16        2972.50           1523        3631.00     15805.66
 1275.19        2972.75           1526        2123.00      9227.05
 1275.22        2973.00           1529         968.00      4190.15
 1275.25        2973.25           1533         446.00      1914.23
 1275.28        2973.50           1536         310.00      1321.33
 1275.31        2973.75           1539         260.00      1103.35
 1275.34        2974.00           1543         234.00       990.00
 1275.37        2974.25           1546         164.00       684.84
 1275.40        2974.50           1549         118.00       484.31
 1275.43        2974.75           1553          76.00       301.22
 1275.47        2975.00           1556          66.00       257.63
 1275.50        2975.25           1559          49.00       183.52
 1275.53        2975.50           1563          42.00       153.01
 1275.56        2975.75           1566          49.00       183.52
 1275.59        2976.00           1569          42.00       153.01
 1275.62        2976.25           1573          50.00       187.88
 1275.65        2976.50           1576          56.00       214.04
 1275.68        2976.75           1579          41.00       148.65
 1275.71        2977.00           1583          45.00       166.09
 1275.74        2977.25           1586          49.00       183.52
 1275.78        2977.50           1590          50.00       187.88
 1275.81        2977.75           1593          51.00       192.24
 1275.84        2978.00           1596          47.00       174.80
 1275.87        2978.25           1600          44.00       161.73
 1275.90        2978.50           1603          42.00       153.01
 1275.93        2978.75           1606          46.00       170.45
 1275.96        2979.00           1610          45.00       166.09
 1275.99        2979.25           1613          42.00       153.01
 1276.02        2979.50           1616          50.00       187.88
 1276.06        2979.75           1620          41.00       148.65
 1276.09        2980.00           1623          40.00       144.29
 1276.12        2980.25           1626          45.00       166.09
 1276.15        2980.50           1630          50.00       187.88
 1276.18        2980.75           1633          43.00       157.37
 1276.21        2981.00           1637          40.00       144.29
 1276.24        2981.25           1640          53.00       200.96
 1276.27        2981.50           1643          46.00       170.45
 1276.30        2981.75           1647          46.00       170.45
 1276.33        2982.00           1650          49.00       183.52
 1276.37        2982.25           1653          47.00       174.80
 1276.40        2982.50           1657          55.00       209.68
 1276.43        2982.75           1660          59.00       227.12
 1276.46        2983.00           1663          55.00       209.68
 1276.49        2983.25           1667          46.00       170.45
 1276.52        2983.50           1670          46.00       170.45
 1276.55        2983.75           1673          44.00       161.73
 1276.58        2984.00           1677          44.00       161.73
HS scan finished at 21:16:48
end
