************************************************************
  HS Scan of (1) Internal mercury lamp
************************************************************
Integration time is 0.2294 seconds per sample
dh220518Manchester 53.47 2.23 2.804185pr1000
************************************************************
Dead Time -------------------------  3E-08 
Number of Cycles Used -------------  4 
Starting Wavelength (Angstroms) ---  2950 
Final Wavelength (Angstoms) -------  2984 
Wavelength Increment (Angstroms) --  .25 
Filter Wheel #1 Position ---------- (1) Ground quartz diffuser (ND=2.32)
Filter Wheel #2 Position ---------- (1) Neutral Density 0.494



************************************************************
HS scan start time = 01:32:45
Dark Count =  7.1 


Time (GMT)  Wavelength (Ang)  Step Number  Raw Counts  Counts/Second

   93.12        2950.00           1222          63.00       243.68
   93.19        2950.25           1226          49.00       182.65
   93.22        2950.50           1229          50.00       187.01
   93.25        2950.75           1232          61.00       234.96
   93.28        2951.00           1236          65.00       252.40
   93.31        2951.25           1239          64.00       248.04
   93.34        2951.50           1242          54.00       204.45
   93.38        2951.75           1246          61.00       234.96
   93.41        2952.00           1249          63.00       243.68
   93.44        2952.25           1252          54.00       204.45
   93.47        2952.50           1256          58.00       221.88
   93.50        2952.75           1259          56.00       213.17
   93.53        2953.00           1262          59.00       226.24
   93.56        2953.25           1266          54.00       204.45
   93.59        2953.50           1269          62.00       239.32
   93.62        2953.75           1272          57.00       217.53
   93.65        2954.00           1276          50.00       187.01
   93.68        2954.25           1279          59.00       226.24
   93.71        2954.50           1282          57.00       217.53
   93.75        2954.75           1286          54.00       204.45
   93.78        2955.00           1289          66.00       256.76
   93.81        2955.25           1292          60.00       230.60
   93.84        2955.50           1296          59.00       226.24
   93.87        2955.75           1299          53.00       200.09
   93.90        2956.00           1302          53.00       200.09
   93.93        2956.25           1306          55.00       208.81
   93.96        2956.50           1309          57.00       217.53
   93.99        2956.75           1312          50.00       187.01
   94.02        2957.00           1316          55.00       208.81
   94.05        2957.25           1319          60.00       230.60
   94.09        2957.50           1322          52.00       195.73
   94.12        2957.75           1326          53.00       200.09
   94.15        2958.00           1329          57.00       217.53
   94.18        2958.25           1332          55.00       208.81
   94.21        2958.50           1336          64.00       248.04
   94.24        2958.75           1339          54.00       204.45
   94.27        2959.00           1342          51.00       191.37
   94.30        2959.25           1346          61.00       234.96
   94.33        2959.50           1349          60.00       230.60
   94.37        2959.75           1352          76.00       300.35
   94.40        2960.00           1356          99.00       400.62
   94.43        2960.25           1359         120.00       492.16
   94.46        2960.50           1362         153.00       636.02
   94.49        2960.75           1366         201.00       845.27
   94.52        2961.00           1369         247.00      1045.80
   94.55        2961.25           1372         284.00      1207.11
   94.58        2961.50           1376         396.00      1695.38
   94.61        2961.75           1379         677.00      2920.48
   94.65        2962.00           1382        1577.00      6844.91
   94.68        2962.25           1386        3331.00     14495.84
   94.71        2962.50           1389        4628.00     20155.60
   94.74        2962.75           1392        6076.00     26476.56
   94.77        2963.00           1396        7893.00     34411.70
   94.80        2963.25           1399        9233.00     40266.14
   94.83        2963.50           1402       10753.00     46909.48
   94.86        2963.75           1406       12673.00     55304.85
   94.89        2964.00           1409       14088.00     61494.78
   94.92        2964.25           1412       15686.00     68488.00
   94.95        2964.50           1416       17830.00     77875.28
   94.99        2964.75           1419       19268.00     84174.37
   95.02        2965.00           1422       20724.00     90554.74
   95.05        2965.25           1426       22251.00     97248.88
   95.08        2965.50           1429       23825.00    104151.90
   95.11        2965.75           1432       25192.00    110149.40
   95.14        2966.00           1436       27415.00    119907.00
   95.17        2966.25           1439       28654.00    125348.00
   95.20        2966.50           1442       29969.00    131124.70
   95.23        2966.75           1446       31189.00    136485.80
   95.26        2967.00           1449       31578.00    138195.60
   95.29        2967.25           1452       31517.00    137927.40
   95.32        2967.50           1456       31423.00    137514.30
   95.36        2967.75           1459       31511.00    137901.10
   95.39        2968.00           1462       31311.00    137022.00
   95.42        2968.25           1466       30143.00    131889.20
   95.45        2968.50           1469       29157.00    127557.40
   95.48        2968.75           1472       27750.00    121378.00
   95.51        2969.00           1476       25792.00    112782.40
   95.54        2969.25           1479       24322.00    106332.10
   95.57        2969.50           1482       22892.00    100059.70
   95.60        2969.75           1486       21060.00     92027.49
   95.63        2970.00           1489       19414.00     84814.05
   95.67        2970.25           1492       17922.00     78278.21
   95.70        2970.50           1496       15939.00     69595.47
   95.73        2970.75           1499       14459.00     63118.10
   95.76        2971.00           1502       13142.00     57356.24
   95.79        2971.25           1506       11003.00     48002.39
   95.82        2971.50           1509        9568.00     41730.07
   95.85        2971.75           1513        7679.00     33476.94
   95.88        2972.00           1516        6336.00     27611.79
   95.91        2972.25           1519        5054.00     22014.97
   95.95        2972.50           1523        3165.00     13771.60
   95.98        2972.75           1526        1771.00      7690.96
   96.01        2973.00           1529         788.00      3404.45
   96.04        2973.25           1533         385.00      1647.42
   96.07        2973.50           1536         305.00      1298.66
   96.10        2973.75           1539         244.00      1032.73
   96.13        2974.00           1543         214.00       901.94
   96.16        2974.25           1546         174.00       727.57
   96.19        2974.50           1549         126.00       518.32
   96.22        2974.75           1553          90.00       361.38
   96.25        2975.00           1556          71.00       278.56
   96.28        2975.25           1559          65.00       252.40
   96.31        2975.50           1563          47.00       173.93
   96.35        2975.75           1566          60.00       230.60
   96.38        2976.00           1569          57.00       217.53
   96.41        2976.25           1573          54.00       204.45
   96.44        2976.50           1576          62.00       239.32
   96.47        2976.75           1579          59.00       226.24
   96.50        2977.00           1583          50.00       187.01
   96.53        2977.25           1586          52.00       195.73
   96.56        2977.50           1590          50.00       187.01
   96.59        2977.75           1593          58.00       221.88
   96.62        2978.00           1596          63.00       243.68
   96.65        2978.25           1600          51.00       191.37
   96.68        2978.50           1603          56.00       213.17
   96.72        2978.75           1606          53.00       200.09
   96.75        2979.00           1610          55.00       208.81
   96.78        2979.25           1613          51.00       191.37
   96.81        2979.50           1616          53.00       200.09
   96.84        2979.75           1620          52.00       195.73
   96.87        2980.00           1623          58.00       221.88
   96.90        2980.25           1626          46.00       169.57
   96.93        2980.50           1630          61.00       234.96
   96.96        2980.75           1633          47.00       173.93
   96.99        2981.00           1637          52.00       195.73
   97.02        2981.25           1640          58.00       221.88
   97.06        2981.50           1643          49.00       182.65
   97.09        2981.75           1647          52.00       195.73
   97.12        2982.00           1650          52.00       195.73
   97.15        2982.25           1653          50.00       187.01
   97.18        2982.50           1657          51.00       191.37
   97.21        2982.75           1660          52.00       195.73
   97.24        2983.00           1663          45.00       165.21
   97.27        2983.25           1667          50.00       187.01
   97.30        2983.50           1670          58.00       221.88
   97.33        2983.75           1673          52.00       195.73
   97.36        2984.00           1677          52.00       195.73
HS scan finished at 01:37:35
end
************************************************************
  HS Scan of (1) Internal mercury lamp
************************************************************
Integration time is 0.2294 seconds per sample
dh220518Manchester 53.47 2.23 2.857833pr1000
************************************************************
Dead Time -------------------------  3E-08 
Number of Cycles Used -------------  4 
Starting Wavelength (Angstroms) ---  2950 
Final Wavelength (Angstoms) -------  2984 
Wavelength Increment (Angstroms) --  .25 
Filter Wheel #1 Position ---------- (1) Ground quartz diffuser (ND=2.32)
Filter Wheel #2 Position ---------- (1) Neutral Density 0.494



************************************************************
HS scan start time = 21:12:04
Dark Count =  6.7 


Time (GMT)  Wavelength (Ang)  Step Number  Raw Counts  Counts/Second

 1272.44        2950.00           1222          61.00       236.71
 1272.51        2950.25           1226          54.00       206.19
 1272.54        2950.50           1229          62.00       241.07
 1272.57        2950.75           1232          52.00       197.47
 1272.60        2951.00           1236          60.00       232.35
 1272.63        2951.25           1239          68.00       267.22
 1272.67        2951.50           1242          62.00       241.07
 1272.70        2951.75           1246          61.00       236.71
 1272.73        2952.00           1249          55.00       210.55
 1272.76        2952.25           1252          55.00       210.55
 1272.79        2952.50           1256          58.00       223.63
 1272.82        2952.75           1259          47.00       175.68
 1272.85        2953.00           1262          60.00       232.35
 1272.88        2953.25           1266          52.00       197.47
 1272.91        2953.50           1269          62.00       241.07
 1272.94        2953.75           1272          59.00       227.99
 1272.97        2954.00           1276          56.00       214.91
 1273.01        2954.25           1279          60.00       232.35
 1273.04        2954.50           1282          59.00       227.99
 1273.07        2954.75           1286          54.00       206.19
 1273.10        2955.00           1289          60.00       232.35
 1273.13        2955.25           1292          59.00       227.99
 1273.16        2955.50           1296          57.00       219.27
 1273.19        2955.75           1299          57.00       219.27
 1273.22        2956.00           1302          65.00       254.14
 1273.25        2956.25           1306          56.00       214.91
 1273.28        2956.50           1309          59.00       227.99
 1273.31        2956.75           1312          55.00       210.55
 1273.34        2957.00           1316          58.00       223.63
 1273.38        2957.25           1319          59.00       227.99
 1273.41        2957.50           1322          60.00       232.35
 1273.44        2957.75           1326          57.00       219.27
 1273.47        2958.00           1329          52.00       197.47
 1273.50        2958.25           1332          58.00       223.63
 1273.53        2958.50           1336          54.00       206.19
 1273.56        2958.75           1339          58.00       223.63
 1273.59        2959.00           1342          62.00       241.07
 1273.62        2959.25           1346          67.00       262.86
 1273.66        2959.50           1349          66.00       258.50
 1273.69        2959.75           1352          77.00       306.45
 1273.72        2960.00           1356         108.00       441.59
 1273.75        2960.25           1359         145.00       602.89
 1273.78        2960.50           1362         178.00       746.75
 1273.81        2960.75           1366         217.00       916.76
 1273.84        2961.00           1369         262.00      1112.94
 1273.87        2961.25           1372         294.00      1252.44
 1273.90        2961.50           1376         381.00      1631.73
 1273.93        2961.75           1379         534.00      2298.76
 1273.96        2962.00           1382        1132.00      4906.13
 1273.99        2962.25           1386        2710.00     11788.39
 1274.03        2962.50           1389        4158.00     18106.17
 1274.06        2962.75           1392        5418.00     23605.64
 1274.09        2963.00           1396        7195.00     31364.72
 1274.12        2963.25           1399        8752.00     38166.17
 1274.15        2963.50           1402       10134.00     44205.49
 1274.18        2963.75           1406       11946.00     52127.23
 1274.21        2964.00           1409       13622.00     59457.75
 1274.24        2964.25           1412       15246.00     66563.91
 1274.27        2964.50           1416       17391.00     75954.49
 1274.31        2964.75           1419       18679.00     81595.75
 1274.34        2965.00           1422       20115.00     87887.49
 1274.37        2965.25           1426       22135.00     96742.01
 1274.40        2965.50           1429       23558.00    102982.40
 1274.43        2965.75           1432       24984.00    109238.40
 1274.46        2966.00           1436       26918.00    117726.70
 1274.49        2966.25           1439       28289.00    123746.70
 1274.52        2966.50           1442       29632.00    129645.80
 1274.55        2966.75           1446       30977.00    135555.80
 1274.58        2967.00           1449       30991.00    135617.40
 1274.62        2967.25           1452       31374.00    137300.70
 1274.65        2967.50           1456       31236.00    136694.10
 1274.68        2967.75           1459       31215.00    136601.80
 1274.71        2968.00           1462       31152.00    136324.90
 1274.74        2968.25           1466       30192.00    132106.20
 1274.77        2968.50           1469       29021.00    126961.80
 1274.80        2968.75           1472       27686.00    121098.70
 1274.83        2969.00           1476       25848.00    113030.00
 1274.86        2969.25           1479       24330.00    106369.00
 1274.89        2969.50           1482       22882.00    100017.60
 1274.92        2969.75           1486       21061.00     92033.62
 1274.96        2970.00           1489       19533.00     85337.21
 1274.99        2970.25           1492       18248.00     79707.81
 1275.02        2970.50           1496       16450.00     71834.24
 1275.05        2970.75           1499       14857.00     64861.49
 1275.08        2971.00           1502       13371.00     58359.72
 1275.11        2971.25           1506       11463.00     50015.27
 1275.14        2971.50           1509       10004.00     43637.30
 1275.17        2971.75           1513        8198.00     35745.81
 1275.20        2972.00           1516        6771.00     29513.04
 1275.24        2972.25           1519        5428.00     23649.29
 1275.27        2972.50           1523        3552.00     15461.84
 1275.30        2972.75           1526        2080.00      9040.38
 1275.33        2973.00           1529         944.00      4086.38
 1275.36        2973.25           1533         376.00      1609.93
 1275.39        2973.50           1536         282.00      1200.13
 1275.42        2973.75           1539         231.00       977.80
 1275.45        2974.00           1543         209.00       881.89
 1275.49        2974.25           1546         139.00       576.73
 1275.52        2974.50           1549         112.00       459.03
 1275.55        2974.75           1553          81.00       323.89
 1275.58        2975.00           1556          73.00       289.02
 1275.61        2975.25           1559          55.00       210.55
 1275.64        2975.50           1563          61.00       236.71
 1275.67        2975.75           1566          58.00       223.63
 1275.70        2976.00           1569          49.00       184.40
 1275.73        2976.25           1573          58.00       223.63
 1275.76        2976.50           1576          57.00       219.27
 1275.79        2976.75           1579          56.00       214.91
 1275.82        2977.00           1583          59.00       227.99
 1275.86        2977.25           1586          58.00       223.63
 1275.89        2977.50           1590          51.00       193.11
 1275.92        2977.75           1593          54.00       206.19
 1275.95        2978.00           1596          55.00       210.55
 1275.98        2978.25           1600          49.00       184.40
 1276.01        2978.50           1603          52.00       197.47
 1276.04        2978.75           1606          57.00       219.27
 1276.07        2979.00           1610          57.00       219.27
 1276.10        2979.25           1613          55.00       210.55
 1276.13        2979.50           1616          56.00       214.91
 1276.16        2979.75           1620          60.00       232.35
 1276.20        2980.00           1623          57.00       219.27
 1276.23        2980.25           1626          50.00       188.75
 1276.26        2980.50           1630          57.00       219.27
 1276.29        2980.75           1633          51.00       193.11
 1276.32        2981.00           1637          48.00       180.04
 1276.35        2981.25           1640          48.00       180.04
 1276.38        2981.50           1643          51.00       193.11
 1276.41        2981.75           1647          50.00       188.75
 1276.44        2982.00           1650          52.00       197.47
 1276.47        2982.25           1653          50.00       188.75
 1276.51        2982.50           1657          52.00       197.47
 1276.54        2982.75           1660          58.00       223.63
 1276.57        2983.00           1663          52.00       197.47
 1276.60        2983.25           1667          56.00       214.91
 1276.63        2983.50           1670          53.00       201.83
 1276.66        2983.75           1673          54.00       206.19
 1276.69        2984.00           1677          54.00       206.19
HS scan finished at 21:16:55
end
