************************************************************
  HS Scan of (1) Internal mercury lamp
************************************************************
Integration time is 0.2294 seconds per sample
dh290517El Arenosillo 37.1 6.73 3.072425pr1000
************************************************************
Dead Time -------------------------  3E-08 
Number of Cycles Used -------------  4 
Starting Wavelength (Angstroms) ---  2950 
Final Wavelength (Angstoms) -------  2984 
Wavelength Increment (Angstroms) --  .25 
Filter Wheel #1 Position ---------- (1) Ground quartz diffuser (ND=2.32)
Filter Wheel #2 Position ---------- (1) Neutral Density 0.494



************************************************************
HS scan start time = 20:16:45
Dark Count =  5.7 


Time (GMT)  Wavelength (Ang)  Step Number  Raw Counts  Counts/Second

 1217.12        2950.00           1222          44.00       166.96
 1217.19        2950.25           1226          39.00       145.16
 1217.22        2950.50           1229          42.00       158.24
 1217.25        2950.75           1232          42.00       158.24
 1217.28        2951.00           1236          41.00       153.88
 1217.31        2951.25           1239          45.00       171.32
 1217.34        2951.50           1242          41.00       153.88
 1217.37        2951.75           1246          43.00       162.60
 1217.40        2952.00           1249          47.00       180.04
 1217.44        2952.25           1252          49.00       188.75
 1217.47        2952.50           1256          43.00       162.60
 1217.50        2952.75           1259          49.00       188.75
 1217.53        2953.00           1262          45.00       171.32
 1217.56        2953.25           1266          45.00       171.32
 1217.59        2953.50           1269          40.00       149.52
 1217.62        2953.75           1272          49.00       188.75
 1217.65        2954.00           1276          47.00       180.04
 1217.68        2954.25           1279          45.00       171.32
 1217.71        2954.50           1282          40.00       149.52
 1217.75        2954.75           1286          43.00       162.60
 1217.78        2955.00           1289          44.00       166.96
 1217.81        2955.25           1292          47.00       180.04
 1217.84        2955.50           1296          44.00       166.96
 1217.87        2955.75           1299          43.00       162.60
 1217.90        2956.00           1302          48.00       184.40
 1217.93        2956.25           1306          37.00       136.44
 1217.96        2956.50           1309          44.00       166.96
 1217.99        2956.75           1312          38.00       140.80
 1218.02        2957.00           1316          44.00       166.96
 1218.06        2957.25           1319          39.00       145.16
 1218.09        2957.50           1322          49.00       188.75
 1218.12        2957.75           1326          39.00       145.16
 1218.15        2958.00           1329          45.00       171.32
 1218.18        2958.25           1332          52.00       201.83
 1218.21        2958.50           1336          47.00       180.04
 1218.24        2958.75           1339          49.00       188.75
 1218.27        2959.00           1342          46.00       175.68
 1218.30        2959.25           1346          47.00       180.04
 1218.33        2959.50           1349          61.00       241.07
 1218.37        2959.75           1352          92.00       376.20
 1218.40        2960.00           1356         132.00       550.58
 1218.43        2960.25           1359         172.00       724.95
 1218.46        2960.50           1362         221.00       938.56
 1218.49        2960.75           1366         292.00      1248.09
 1218.52        2961.00           1369         353.00      1514.02
 1218.55        2961.25           1372         405.00      1740.72
 1218.58        2961.50           1376         528.00      2276.96
 1218.61        2961.75           1379         902.00      3907.61
 1218.64        2962.00           1382        1880.00      8172.45
 1218.67        2962.25           1386        4175.00     18184.72
 1218.71        2962.50           1389        6143.00     26775.20
 1218.74        2962.75           1392        7933.00     34592.55
 1218.77        2963.00           1396       10738.00     46850.02
 1218.80        2963.25           1399       12728.00     55551.53
 1218.83        2963.50           1402       14701.00     64183.19
 1218.86        2963.75           1406       17496.00     76418.68
 1218.89        2964.00           1409       19387.00     84701.89
 1218.92        2964.25           1412       21487.00     93905.41
 1218.95        2964.50           1416       24025.00    105035.40
 1218.98        2964.75           1419       25881.00    113179.20
 1219.01        2965.00           1422       27860.00    121867.20
 1219.05        2965.25           1426       30733.00    134487.90
 1219.08        2965.50           1429       32621.00    142786.90
 1219.11        2965.75           1432       34610.00    151534.30
 1219.14        2966.00           1436       37149.00    162707.30
 1219.17        2966.25           1439       39341.00    172359.30
 1219.20        2966.50           1442       41051.00    179892.80
 1219.23        2966.75           1446       43023.00    188584.90
 1219.26        2967.00           1449       43348.00    190017.80
 1219.29        2967.25           1452       43551.00    190912.90
 1219.32        2967.50           1456       43436.00    190405.80
 1219.36        2967.75           1459       43214.00    189427.00
 1219.39        2968.00           1462       43182.00    189285.90
 1219.42        2968.25           1466       41662.00    182585.50
 1219.45        2968.50           1469       39923.00    174923.00
 1219.48        2968.75           1472       38154.00    167131.90
 1219.51        2969.00           1476       35523.00    155551.10
 1219.54        2969.25           1479       33463.00    146489.40
 1219.57        2969.50           1482       31428.00    137542.40
 1219.60        2969.75           1486       28418.00    124317.60
 1219.64        2970.00           1489       26745.00    116971.70
 1219.67        2970.25           1492       24854.00    108672.40
 1219.70        2970.50           1496       22124.00     96698.16
 1219.73        2970.75           1499       20248.00     88474.72
 1219.76        2971.00           1502       18457.00     80627.66
 1219.79        2971.25           1506       15803.00     69006.27
 1219.82        2971.50           1509       13394.00     58464.71
 1219.85        2971.75           1513       10841.00     47300.29
 1219.88        2972.00           1516        8802.00     38389.00
 1219.91        2972.25           1519        6871.00     29954.11
 1219.94        2972.50           1523        4349.00     18944.07
 1219.98        2972.75           1526        2481.00     10793.82
 1220.01        2973.00           1529        1001.00      4339.28
 1220.04        2973.25           1533         464.00      1997.94
 1220.07        2973.50           1536         345.00      1479.14
 1220.10        2973.75           1539         285.00      1217.57
 1220.13        2974.00           1543         235.00       999.59
 1220.16        2974.25           1546         153.00       642.12
 1220.19        2974.50           1549         111.00       459.03
 1220.22        2974.75           1553          63.00       249.78
 1220.25        2975.00           1556          55.00       214.91
 1220.29        2975.25           1559          49.00       188.75
 1220.32        2975.50           1563          43.00       162.60
 1220.35        2975.75           1566          43.00       162.60
 1220.38        2976.00           1569          47.00       180.04
 1220.41        2976.25           1573          43.00       162.60
 1220.44        2976.50           1576          45.00       171.32
 1220.47        2976.75           1579          47.00       180.04
 1220.50        2977.00           1583          41.00       153.88
 1220.53        2977.25           1586          42.00       158.24
 1220.56        2977.50           1590          45.00       171.32
 1220.59        2977.75           1593          49.00       188.75
 1220.62        2978.00           1596          40.00       149.52
 1220.66        2978.25           1600          48.00       184.40
 1220.69        2978.50           1603          40.00       149.52
 1220.72        2978.75           1606          47.00       180.04
 1220.75        2979.00           1610          44.00       166.96
 1220.78        2979.25           1613          53.00       206.19
 1220.81        2979.50           1616          47.00       180.04
 1220.84        2979.75           1620          48.00       184.40
 1220.87        2980.00           1623          46.00       175.68
 1220.90        2980.25           1626          42.00       158.24
 1220.93        2980.50           1630          41.00       153.88
 1220.96        2980.75           1633          50.00       193.11
 1220.99        2981.00           1637          48.00       184.40
 1221.02        2981.25           1640          46.00       175.68
 1221.06        2981.50           1643          48.00       184.40
 1221.09        2981.75           1647          37.00       136.44
 1221.12        2982.00           1650          47.00       180.04
 1221.15        2982.25           1653          44.00       166.96
 1221.18        2982.50           1657          46.00       175.68
 1221.21        2982.75           1660          44.00       166.96
 1221.24        2983.00           1663          45.00       171.32
 1221.27        2983.25           1667          44.00       166.96
 1221.30        2983.50           1670          44.00       166.96
 1221.34        2983.75           1673          43.00       162.60
 1221.37        2984.00           1677          43.00       162.60
HS scan finished at 20:21:35
end
