************************************************************
  HS Scan of (1) Internal mercury lamp
************************************************************
Integration time is 0.2294 seconds per sample
dh240518Manchester 53.47 2.23 2.804185pr1000
************************************************************
Dead Time -------------------------  3E-08 
Number of Cycles Used -------------  4 
Starting Wavelength (Angstroms) ---  2950 
Final Wavelength (Angstoms) -------  2984 
Wavelength Increment (Angstroms) --  .25 
Filter Wheel #1 Position ---------- (1) Ground quartz diffuser (ND=2.32)
Filter Wheel #2 Position ---------- (1) Neutral Density 0.494



************************************************************
HS scan start time = 02:10:42
Dark Count =  6.3 


Time (GMT)  Wavelength (Ang)  Step Number  Raw Counts  Counts/Second

  131.07        2950.00           1222          61.00       238.45
  131.13        2950.25           1226          54.00       207.94
  131.16        2950.50           1229          50.00       190.50
  131.19        2950.75           1232          54.00       207.94
  131.23        2951.00           1236          61.00       238.45
  131.26        2951.25           1239          51.00       194.86
  131.29        2951.50           1242          57.00       221.01
  131.32        2951.75           1246          56.00       216.65
  131.35        2952.00           1249          54.00       207.94
  131.38        2952.25           1252          58.00       225.37
  131.41        2952.50           1256          57.00       221.01
  131.44        2952.75           1259          58.00       225.37
  131.47        2953.00           1262          55.00       212.29
  131.50        2953.25           1266          58.00       225.37
  131.53        2953.50           1269          52.00       199.22
  131.56        2953.75           1272          56.00       216.65
  131.59        2954.00           1276          67.00       264.61
  131.62        2954.25           1279          53.00       203.58
  131.65        2954.50           1282          45.00       168.70
  131.68        2954.75           1286          59.00       229.73
  131.71        2955.00           1289          52.00       199.22
  131.75        2955.25           1292          56.00       216.65
  131.78        2955.50           1296          57.00       221.01
  131.81        2955.75           1299          53.00       203.58
  131.84        2956.00           1302          55.00       212.29
  131.87        2956.25           1306          56.00       216.65
  131.90        2956.50           1309          54.00       207.94
  131.93        2956.75           1312          60.00       234.09
  131.96        2957.00           1316          50.00       190.50
  131.99        2957.25           1319          58.00       225.37
  132.02        2957.50           1322          52.00       199.22
  132.05        2957.75           1326          57.00       221.01
  132.08        2958.00           1329          57.00       221.01
  132.12        2958.25           1332          51.00       194.86
  132.15        2958.50           1336          54.00       207.94
  132.18        2958.75           1339          57.00       221.01
  132.21        2959.00           1342          60.00       234.09
  132.24        2959.25           1346          59.00       229.73
  132.27        2959.50           1349          65.00       255.89
  132.30        2959.75           1352          84.00       338.71
  132.33        2960.00           1356         116.00       478.21
  132.36        2960.25           1359         151.00       630.79
  132.39        2960.50           1362         171.00       717.98
  132.42        2960.75           1366         223.00       944.67
  132.46        2961.00           1369         257.00      1092.89
  132.49        2961.25           1372         313.00      1337.02
  132.52        2961.50           1376         353.00      1511.40
  132.55        2961.75           1379         444.00      1908.13
  132.58        2962.00           1382         821.00      3551.82
  132.61        2962.25           1386        2253.00      9796.69
  132.64        2962.50           1389        3585.00     15607.57
  132.67        2962.75           1392        4926.00     21459.76
  132.70        2963.00           1396        6849.00     29855.42
  132.73        2963.25           1399        8176.00     35651.45
  132.76        2963.50           1402        9794.00     42721.24
  132.79        2963.75           1406       11825.00     51599.87
  132.83        2964.00           1409       13328.00     58173.37
  132.86        2964.25           1412       14881.00     64968.27
  132.89        2964.50           1416       16885.00     73740.55
  132.92        2964.75           1419       18351.00     80160.72
  132.95        2965.00           1422       19834.00     86657.87
  132.98        2965.25           1426       21884.00     95643.27
  133.01        2965.50           1429       23072.00    100852.60
  133.04        2965.75           1432       24741.00    108173.90
  133.07        2966.00           1436       26541.00    116073.50
  133.11        2966.25           1439       28090.00    122874.50
  133.14        2966.50           1442       29585.00    129441.10
  133.17        2966.75           1446       31110.00    136142.10
  133.20        2967.00           1449       31312.00    137029.90
  133.23        2967.25           1452       31471.00    137728.80
  133.26        2967.50           1456       31470.00    137724.40
  133.29        2967.75           1459       31513.00    137913.40
  133.32        2968.00           1462       31392.00    137381.50
  133.35        2968.25           1466       30706.00    134366.60
  133.38        2968.50           1469       29512.00    129120.40
  133.42        2968.75           1472       28134.00    123067.70
  133.45        2969.00           1476       26404.00    115472.10
  133.48        2969.25           1479       24798.00    108424.00
  133.51        2969.50           1482       23421.00    102383.30
  133.54        2969.75           1486       21516.00     94029.91
  133.57        2970.00           1489       20157.00     88073.30
  133.60        2970.25           1492       18654.00     81487.98
  133.63        2970.50           1496       16682.00     72851.72
  133.66        2970.75           1499       14982.00     65410.27
  133.69        2971.00           1502       13738.00     59966.99
  133.73        2971.25           1506       11905.00     51949.69
  133.76        2971.50           1509       10533.00     45951.27
  133.79        2971.75           1513        8632.00     37643.63
  133.82        2972.00           1516        7197.00     31375.21
  133.85        2972.25           1519        5705.00     24860.30
  133.88        2972.50           1523        3888.00     16929.70
  133.91        2972.75           1526        2388.00     10385.54
  133.94        2973.00           1529        1159.00      5025.61
  133.97        2973.25           1533         436.00      1873.25
  134.00        2973.50           1536         307.00      1310.86
  134.03        2973.75           1539         268.00      1140.84
  134.07        2974.00           1543         195.00       822.60
  134.10        2974.25           1546         149.00       622.07
  134.13        2974.50           1549         116.00       478.21
  134.16        2974.75           1553          74.00       295.12
  134.19        2975.00           1556          63.00       247.17
  134.22        2975.25           1559          59.00       229.73
  134.25        2975.50           1563          56.00       216.65
  134.28        2975.75           1566          61.00       238.45
  134.31        2976.00           1569          50.00       190.50
  134.34        2976.25           1573          56.00       216.65
  134.37        2976.50           1576          51.00       194.86
  134.41        2976.75           1579          56.00       216.65
  134.44        2977.00           1583          54.00       207.94
  134.47        2977.25           1586          49.00       186.14
  134.50        2977.50           1590          56.00       216.65
  134.53        2977.75           1593          51.00       194.86
  134.56        2978.00           1596          59.00       229.73
  134.59        2978.25           1600          51.00       194.86
  134.62        2978.50           1603          54.00       207.94
  134.65        2978.75           1606          47.00       177.42
  134.68        2979.00           1610          53.00       203.58
  134.71        2979.25           1613          57.00       221.01
  134.75        2979.50           1616          54.00       207.94
  134.78        2979.75           1620          65.00       255.89
  134.81        2980.00           1623          50.00       190.50
  134.84        2980.25           1626          56.00       216.65
  134.87        2980.50           1630          50.00       190.50
  134.90        2980.75           1633          52.00       199.22
  134.93        2981.00           1637          49.00       186.14
  134.96        2981.25           1640          54.00       207.94
  134.99        2981.50           1643          52.00       199.22
  135.02        2981.75           1647          57.00       221.01
  135.05        2982.00           1650          51.00       194.86
  135.09        2982.25           1653          62.00       242.81
  135.12        2982.50           1657          49.00       186.14
  135.15        2982.75           1660          49.00       186.14
  135.18        2983.00           1663          51.00       194.86
  135.21        2983.25           1667          52.00       199.22
  135.24        2983.50           1670          51.00       194.86
  135.27        2983.75           1673          48.00       181.78
  135.30        2984.00           1677          49.00       186.14
HS scan finished at 02:15:31
end
************************************************************
  HS Scan of (1) Internal mercury lamp
************************************************************
Integration time is 0.2294 seconds per sample
dh240518Manchester 53.47 2.23 2.911481pr1000
************************************************************
Dead Time -------------------------  3E-08 
Number of Cycles Used -------------  4 
Starting Wavelength (Angstroms) ---  2950 
Final Wavelength (Angstoms) -------  2984 
Wavelength Increment (Angstroms) --  .25 
Filter Wheel #1 Position ---------- (1) Ground quartz diffuser (ND=2.32)
Filter Wheel #2 Position ---------- (1) Neutral Density 0.494



************************************************************
HS scan start time = 21:12:06
Dark Count =  5.8 


Time (GMT)  Wavelength (Ang)  Step Number  Raw Counts  Counts/Second

 1272.47        2950.00           1222          62.00       244.99
 1272.54        2950.25           1226          59.00       231.91
 1272.57        2950.50           1229          57.00       223.19
 1272.60        2950.75           1232          67.00       266.79
 1272.63        2951.00           1236          57.00       223.19
 1272.66        2951.25           1239          63.00       249.35
 1272.69        2951.50           1242          60.00       236.27
 1272.72        2951.75           1246          65.00       258.07
 1272.75        2952.00           1249          60.00       236.27
 1272.78        2952.25           1252          54.00       210.11
 1272.81        2952.50           1256          56.00       218.83
 1272.85        2952.75           1259          64.00       253.71
 1272.88        2953.00           1262          58.00       227.55
 1272.91        2953.25           1266          58.00       227.55
 1272.94        2953.50           1269          57.00       223.19
 1272.97        2953.75           1272          56.00       218.83
 1273.00        2954.00           1276          56.00       218.83
 1273.03        2954.25           1279          58.00       227.55
 1273.06        2954.50           1282          52.00       201.40
 1273.10        2954.75           1286          53.00       205.76
 1273.13        2955.00           1289          59.00       231.91
 1273.16        2955.25           1292          54.00       210.11
 1273.19        2955.50           1296          69.00       275.50
 1273.22        2955.75           1299          63.00       249.35
 1273.25        2956.00           1302          47.00       179.60
 1273.28        2956.25           1306          56.00       218.83
 1273.31        2956.50           1309          59.00       231.91
 1273.34        2956.75           1312          59.00       231.91
 1273.37        2957.00           1316          63.00       249.35
 1273.41        2957.25           1319          64.00       253.71
 1273.44        2957.50           1322          53.00       205.76
 1273.47        2957.75           1326          64.00       253.71
 1273.50        2958.00           1329          58.00       227.55
 1273.53        2958.25           1332          53.00       205.76
 1273.56        2958.50           1336          64.00       253.71
 1273.59        2958.75           1339          56.00       218.83
 1273.62        2959.00           1342          52.00       201.40
 1273.65        2959.25           1346          52.00       201.40
 1273.68        2959.50           1349          65.00       258.07
 1273.71        2959.75           1352          74.00       297.30
 1273.74        2960.00           1356          95.00       388.85
 1273.78        2960.25           1359         127.00       528.34
 1273.81        2960.50           1362         171.00       720.16
 1273.84        2960.75           1366         220.00       933.77
 1273.87        2961.00           1369         252.00      1073.27
 1273.90        2961.25           1372         293.00      1252.01
 1273.93        2961.50           1376         363.00      1557.18
 1273.96        2961.75           1379         476.00      2049.82
 1273.99        2962.00           1382         936.00      4055.42
 1274.02        2962.25           1386        2573.00     11194.69
 1274.06        2962.50           1389        3981.00     17337.70
 1274.09        2962.75           1392        5345.00     23290.90
 1274.12        2963.00           1396        7234.00     31538.99
 1274.15        2963.25           1399        8838.00     38545.86
 1274.18        2963.50           1402       10227.00     44615.91
 1274.21        2963.75           1406       12119.00     52887.69
 1274.24        2964.00           1409       13542.00     59111.71
 1274.27        2964.25           1412       15070.00     65797.58
 1274.30        2964.50           1416       17072.00     74561.54
 1274.34        2964.75           1419       18500.00     80815.58
 1274.37        2965.00           1422       20164.00     88106.16
 1274.40        2965.25           1426       22214.00     97092.34
 1274.43        2965.50           1429       23650.00    103389.90
 1274.46        2965.75           1432       25276.00    110523.70
 1274.49        2966.00           1436       27034.00    118240.00
 1274.52        2966.25           1439       28446.00    124440.20
 1274.55        2966.50           1442       29982.00    131187.50
 1274.58        2966.75           1446       31396.00    137401.30
 1274.61        2967.00           1449       32063.00    140333.20
 1274.65        2967.25           1452       32254.00    141172.90
 1274.68        2967.50           1456       32116.00    140566.20
 1274.71        2967.75           1459       32153.00    140728.90
 1274.74        2968.00           1462       32034.00    140205.80
 1274.77        2968.25           1466       31458.00    137673.80
 1274.80        2968.50           1469       30291.00    132545.20
 1274.83        2968.75           1472       29030.00    127005.20
 1274.86        2969.00           1476       26996.00    118073.10
 1274.89        2969.25           1479       25390.00    111023.90
 1274.93        2969.50           1482       24004.00    104942.80
 1274.96        2969.75           1486       22149.00     96807.34
 1274.99        2970.00           1489       20502.00     89587.44
 1275.02        2970.25           1492       19136.00     83601.74
 1275.05        2970.50           1496       17343.00     75748.22
 1275.08        2970.75           1499       15897.00     69417.31
 1275.11        2971.00           1502       14326.00     62541.83
 1275.14        2971.25           1506       12151.00     53027.62
 1275.18        2971.50           1509       10679.00     46591.67
 1275.21        2971.75           1513        8609.00     37545.32
 1275.24        2972.00           1516        7180.00     31303.14
 1275.27        2972.25           1519        5649.00     24618.00
 1275.30        2972.50           1523        3768.00     16408.25
 1275.33        2972.75           1526        2477.00     10775.93
 1275.36        2973.00           1529        1254.00      5442.04
 1275.39        2973.25           1533         457.00      1966.99
 1275.42        2973.50           1536         339.00      1452.55
 1275.46        2973.75           1539         282.00      1204.05
 1275.49        2974.00           1543         223.00       946.84
 1275.52        2974.25           1546         174.00       733.23
 1275.55        2974.50           1549         142.00       593.73
 1275.58        2974.75           1553          95.00       388.85
 1275.61        2975.00           1556          69.00       275.50
 1275.64        2975.25           1559          71.00       284.22
 1275.67        2975.50           1563          56.00       218.83
 1275.70        2975.75           1566          63.00       249.35
 1275.73        2976.00           1569          54.00       210.11
 1275.76        2976.25           1573          53.00       205.76
 1275.79        2976.50           1576          48.00       183.96
 1275.83        2976.75           1579          59.00       231.91
 1275.86        2977.00           1583          55.00       214.47
 1275.89        2977.25           1586          55.00       214.47
 1275.92        2977.50           1590          57.00       223.19
 1275.95        2977.75           1593          62.00       244.99
 1275.98        2978.00           1596          51.00       197.04
 1276.01        2978.25           1600          51.00       197.04
 1276.04        2978.50           1603          52.00       201.40
 1276.07        2978.75           1606          67.00       266.79
 1276.10        2979.00           1610          55.00       214.47
 1276.14        2979.25           1613          61.00       240.63
 1276.17        2979.50           1616          61.00       240.63
 1276.20        2979.75           1620          48.00       183.96
 1276.23        2980.00           1623          55.00       214.47
 1276.26        2980.25           1626          61.00       240.63
 1276.29        2980.50           1630          47.00       179.60
 1276.32        2980.75           1633          58.00       227.55
 1276.35        2981.00           1637          54.00       210.11
 1276.38        2981.25           1640          54.00       210.11
 1276.41        2981.50           1643          55.00       214.47
 1276.44        2981.75           1647          51.00       197.04
 1276.47        2982.00           1650          56.00       218.83
 1276.50        2982.25           1653          52.00       201.40
 1276.53        2982.50           1657          49.00       188.32
 1276.57        2982.75           1660          52.00       201.40
 1276.60        2983.00           1663          51.00       197.04
 1276.63        2983.25           1667          49.00       188.32
 1276.66        2983.50           1670          52.00       201.40
 1276.69        2983.75           1673          61.00       240.63
 1276.72        2984.00           1677          52.00       201.40
HS scan finished at 21:16:56
end
