************************************************************
  HS Scan of (1) Internal mercury lamp
************************************************************
Integration time is 0.2294 seconds per sample
dh210517Manchester 53.47 2.23 2.804185pr1000
************************************************************
Dead Time -------------------------  3E-08 
Number of Cycles Used -------------  4 
Starting Wavelength (Angstroms) ---  2950 
Final Wavelength (Angstoms) -------  2984 
Wavelength Increment (Angstroms) --  .25 
Filter Wheel #1 Position ---------- (1) Ground quartz diffuser (ND=2.32)
Filter Wheel #2 Position ---------- (1) Neutral Density 0.494



************************************************************
HS scan start time = 01:32:38
Dark Count =  5 


Time (GMT)  Wavelength (Ang)  Step Number  Raw Counts  Counts/Second

   93.00        2950.00           1222          47.00       183.09
   93.07        2950.25           1226          44.00       170.01
   93.10        2950.50           1229          41.00       156.93
   93.13        2950.75           1232          43.00       165.65
   93.16        2951.00           1236          48.00       187.45
   93.19        2951.25           1239          44.00       170.01
   93.22        2951.50           1242          44.00       170.01
   93.25        2951.75           1246          39.00       148.21
   93.28        2952.00           1249          47.00       183.09
   93.31        2952.25           1252          45.00       174.37
   93.35        2952.50           1256          49.00       191.81
   93.38        2952.75           1259          53.00       209.24
   93.41        2953.00           1262          41.00       156.93
   93.44        2953.25           1266          40.00       152.57
   93.47        2953.50           1269          47.00       183.09
   93.50        2953.75           1272          44.00       170.01
   93.53        2954.00           1276          52.00       204.88
   93.56        2954.25           1279          49.00       191.81
   93.59        2954.50           1282          43.00       165.65
   93.62        2954.75           1286          48.00       187.45
   93.65        2955.00           1289          39.00       148.21
   93.69        2955.25           1292          48.00       187.45
   93.72        2955.50           1296          45.00       174.37
   93.75        2955.75           1299          45.00       174.37
   93.78        2956.00           1302          43.00       165.65
   93.81        2956.25           1306          49.00       191.81
   93.84        2956.50           1309          45.00       174.37
   93.87        2956.75           1312          48.00       187.45
   93.90        2957.00           1316          41.00       156.93
   93.93        2957.25           1319          44.00       170.01
   93.96        2957.50           1322          45.00       174.37
   93.99        2957.75           1326          49.00       191.81
   94.02        2958.00           1329          48.00       187.45
   94.06        2958.25           1332          41.00       156.93
   94.09        2958.50           1336          55.00       217.96
   94.12        2958.75           1339          49.00       191.81
   94.15        2959.00           1342          50.00       196.17
   94.18        2959.25           1346          62.00       248.48
   94.21        2959.50           1349          49.00       191.81
   94.24        2959.75           1352          69.00       278.99
   94.27        2960.00           1356         101.00       418.49
   94.30        2960.25           1359         137.00       575.42
   94.33        2960.50           1362         178.00       754.16
   94.37        2960.75           1366         237.00      1011.36
   94.40        2961.00           1369         285.00      1220.62
   94.43        2961.25           1372         322.00      1381.92
   94.46        2961.50           1376         425.00      1830.96
   94.49        2961.75           1379         610.00      2637.52
   94.52        2962.00           1382        1244.00      5401.92
   94.55        2962.25           1386        2967.00     12916.95
   94.58        2962.50           1389        4735.00     20631.77
   94.61        2962.75           1392        6398.00     27891.68
   94.65        2963.00           1396        8664.00     37789.11
   94.68        2963.25           1399       10159.00     44322.19
   94.71        2963.50           1402       11809.00     51535.59
   94.74        2963.75           1406       14216.00     62064.01
   94.77        2964.00           1409       16002.00     69880.44
   94.80        2964.25           1412       17770.00     77621.71
   94.83        2964.50           1416       20010.00     87434.81
   94.86        2964.75           1419       21666.00     94693.21
   94.89        2965.00           1422       23438.00    102463.60
   94.92        2965.25           1426       25658.00    112203.60
   94.95        2965.50           1429       27328.00    119534.30
   94.99        2965.75           1432       29228.00    127878.50
   95.02        2966.00           1436       31371.00    137295.00
   95.05        2966.25           1439       33189.00    145287.50
   95.08        2966.50           1442       34583.00    151418.60
   95.11        2966.75           1446       35993.00    157622.40
   95.14        2967.00           1449       36493.00    159822.90
   95.17        2967.25           1452       36691.00    160694.40
   95.20        2967.50           1456       36613.00    160351.00
   95.23        2967.75           1459       36374.00    159299.10
   95.26        2968.00           1462       36453.00    159646.80
   95.30        2968.25           1466       35362.00    154845.80
   95.33        2968.50           1469       33815.00    148040.50
   95.36        2968.75           1472       32148.00    140710.40
   95.39        2969.00           1476       30022.00    131366.80
   95.42        2969.25           1479       28230.00    123495.10
   95.45        2969.50           1482       26511.00    115947.50
   95.48        2969.75           1486       24320.00    106332.60
   95.51        2970.00           1489       22688.00     99174.31
   95.54        2970.25           1492       20896.00     91317.83
   95.58        2970.50           1496       18690.00     81651.38
   95.61        2970.75           1499       17163.00     74963.51
   95.64        2971.00           1502       15547.00     67888.78
   95.67        2971.25           1506       13313.00     58113.43
   95.70        2971.50           1509       11484.00     50114.52
   95.73        2971.75           1513        9227.00     40249.10
   95.76        2972.00           1516        7635.00     33293.92
   95.79        2972.25           1519        5926.00     25830.82
   95.82        2972.50           1523        3878.00     16891.73
   95.85        2972.75           1526        2388.00     10391.21
   95.89        2973.00           1529        1210.00      5253.66
   95.92        2973.25           1533         509.00      2197.18
   95.95        2973.50           1536         334.00      1434.24
   95.98        2973.75           1539         288.00      1233.70
   96.01        2974.00           1543         247.00      1054.96
   96.04        2974.25           1546         181.00       767.24
   96.07        2974.50           1549         137.00       575.42
   96.10        2974.75           1553         103.00       427.21
   96.13        2975.00           1556          76.00       309.51
   96.16        2975.25           1559          56.00       222.32
   96.19        2975.50           1563          50.00       196.17
   96.22        2975.75           1566          49.00       191.81
   96.26        2976.00           1569          45.00       174.37
   96.29        2976.25           1573          42.00       161.29
   96.32        2976.50           1576          48.00       187.45
   96.35        2976.75           1579          45.00       174.37
   96.38        2977.00           1583          44.00       170.01
   96.41        2977.25           1586          47.00       183.09
   96.44        2977.50           1590          55.00       217.96
   96.47        2977.75           1593          55.00       217.96
   96.50        2978.00           1596          47.00       183.09
   96.53        2978.25           1600          50.00       196.17
   96.56        2978.50           1603          50.00       196.17
   96.60        2978.75           1606          49.00       191.81
   96.63        2979.00           1610          45.00       174.37
   96.66        2979.25           1613          55.00       217.96
   96.69        2979.50           1616          47.00       183.09
   96.72        2979.75           1620          46.00       178.73
   96.75        2980.00           1623          44.00       170.01
   96.78        2980.25           1626          39.00       148.21
   96.81        2980.50           1630          44.00       170.01
   96.84        2980.75           1633          48.00       187.45
   96.87        2981.00           1637          54.00       213.60
   96.91        2981.25           1640          44.00       170.01
   96.94        2981.50           1643          42.00       161.29
   96.97        2981.75           1647          41.00       156.93
   97.00        2982.00           1650          45.00       174.37
   97.03        2982.25           1653          45.00       174.37
   97.06        2982.50           1657          50.00       196.17
   97.09        2982.75           1660          43.00       165.65
   97.12        2983.00           1663          39.00       148.21
   97.15        2983.25           1667          56.00       222.32
   97.18        2983.50           1670          35.00       130.78
   97.21        2983.75           1673          48.00       187.45
   97.24        2984.00           1677          56.00       222.32
HS scan finished at 01:37:27
end
************************************************************
  HS Scan of (1) Internal mercury lamp
************************************************************
Integration time is 0.2294 seconds per sample
dh210517Manchester 53.47 2.23 2.857833pr1000
************************************************************
Dead Time -------------------------  3E-08 
Number of Cycles Used -------------  4 
Starting Wavelength (Angstroms) ---  2950 
Final Wavelength (Angstoms) -------  2984 
Wavelength Increment (Angstroms) --  .25 
Filter Wheel #1 Position ---------- (1) Ground quartz diffuser (ND=2.32)
Filter Wheel #2 Position ---------- (1) Neutral Density 0.494



************************************************************
HS scan start time = 21:12:02
Dark Count =  6.3 


Time (GMT)  Wavelength (Ang)  Step Number  Raw Counts  Counts/Second

 1272.40        2950.00           1222          51.00       194.86
 1272.47        2950.25           1226          50.00       190.50
 1272.50        2950.50           1229          47.00       177.42
 1272.53        2950.75           1232          43.00       159.98
 1272.56        2951.00           1236          51.00       194.86
 1272.59        2951.25           1239          43.00       159.98
 1272.62        2951.50           1242          38.00       138.19
 1272.65        2951.75           1246          51.00       194.86
 1272.68        2952.00           1249          38.00       138.19
 1272.71        2952.25           1252          49.00       186.14
 1272.74        2952.50           1256          48.00       181.78
 1272.77        2952.75           1259          46.00       173.06
 1272.80        2953.00           1262          49.00       186.14
 1272.84        2953.25           1266          43.00       159.98
 1272.87        2953.50           1269          42.00       155.62
 1272.90        2953.75           1272          52.00       199.22
 1272.93        2954.00           1276          46.00       173.06
 1272.96        2954.25           1279          45.00       168.70
 1272.99        2954.50           1282          51.00       194.86
 1273.02        2954.75           1286          43.00       159.98
 1273.05        2955.00           1289          43.00       159.98
 1273.08        2955.25           1292          40.00       146.91
 1273.11        2955.50           1296          42.00       155.62
 1273.14        2955.75           1299          48.00       181.78
 1273.17        2956.00           1302          35.00       125.11
 1273.21        2956.25           1306          45.00       168.70
 1273.24        2956.50           1309          49.00       186.14
 1273.27        2956.75           1312          41.00       151.26
 1273.30        2957.00           1316          46.00       173.06
 1273.33        2957.25           1319          46.00       173.06
 1273.36        2957.50           1322          47.00       177.42
 1273.39        2957.75           1326          41.00       151.26
 1273.42        2958.00           1329          51.00       194.86
 1273.45        2958.25           1332          45.00       168.70
 1273.48        2958.50           1336          48.00       181.78
 1273.51        2958.75           1339          45.00       168.70
 1273.54        2959.00           1342          41.00       151.26
 1273.58        2959.25           1346          60.00       234.09
 1273.61        2959.50           1349          58.00       225.37
 1273.64        2959.75           1352          71.00       282.04
 1273.67        2960.00           1356         108.00       443.34
 1273.70        2960.25           1359         145.00       604.63
 1273.73        2960.50           1362         192.00       809.52
 1273.76        2960.75           1366         276.00      1175.72
 1273.79        2961.00           1369         296.00      1262.91
 1273.82        2961.25           1372         320.00      1367.54
 1273.85        2961.50           1376         440.00      1890.69
 1273.88        2961.75           1379         697.00      3011.17
 1273.91        2962.00           1382        1418.00      6155.02
 1273.95        2962.25           1386        3319.00     14446.97
 1273.98        2962.50           1389        4948.00     21555.78
 1274.01        2962.75           1392        6462.00     28165.47
 1274.04        2963.00           1396        8621.00     37595.56
 1274.07        2963.25           1399       10265.00     44779.83
 1274.10        2963.50           1402       12095.00     52780.55
 1274.13        2963.75           1406       14334.00     62574.64
 1274.16        2964.00           1409       16071.00     70176.80
 1274.19        2964.25           1412       17628.00     76994.12
 1274.22        2964.50           1416       19944.00     87139.88
 1274.26        2964.75           1419       21700.00     94836.56
 1274.29        2965.00           1422       23588.00    103115.80
 1274.32        2965.25           1426       25732.00    112522.60
 1274.35        2965.50           1429       27313.00    119462.70
 1274.38        2965.75           1432       29253.00    127982.60
 1274.41        2966.00           1436       31309.00    137016.70
 1274.44        2966.25           1439       32789.00    143522.90
 1274.47        2966.50           1442       34523.00    151149.00
 1274.50        2966.75           1446       35761.00    156595.80
 1274.53        2967.00           1449       36358.00    159223.00
 1274.57        2967.25           1452       36667.00    160583.00
 1274.60        2967.50           1456       36563.00    160125.30
 1274.63        2967.75           1459       36465.00    159693.90
 1274.66        2968.00           1462       36335.00    159121.80
 1274.69        2968.25           1466       35188.00    154074.50
 1274.72        2968.50           1469       33985.00    148782.50
 1274.75        2968.75           1472       32282.00    141293.80
 1274.78        2969.00           1476       30184.00    132072.80
 1274.81        2969.25           1479       28445.00    124433.60
 1274.85        2969.50           1482       26654.00    116569.50
 1274.88        2969.75           1486       24379.00    106585.70
 1274.91        2970.00           1489       22722.00     99317.71
 1274.94        2970.25           1492       21162.00     92478.09
 1274.97        2970.50           1496       18929.00     82692.69
 1275.00        2970.75           1499       17263.00     75395.71
 1275.03        2971.00           1502       15609.00     68154.47
 1275.06        2971.25           1506       13485.00     58860.17
 1275.09        2971.50           1509       11530.00     50309.96
 1275.13        2971.75           1513        9518.00     41515.06
 1275.16        2972.00           1516        7740.00     33746.88
 1275.19        2972.25           1519        6080.00     26497.52
 1275.22        2972.50           1523        3865.00     16829.33
 1275.25        2972.75           1526        2288.00      9949.35
 1275.28        2973.00           1529        1037.00      4493.63
 1275.31        2973.25           1533         434.00      1864.53
 1275.34        2973.50           1536         329.00      1406.77
 1275.37        2973.75           1539         291.00      1241.11
 1275.40        2974.00           1543         228.00       966.46
 1275.44        2974.25           1546         172.00       722.33
 1275.47        2974.50           1549         119.00       491.29
 1275.50        2974.75           1553          84.00       338.71
 1275.53        2975.00           1556          63.00       247.17
 1275.56        2975.25           1559          55.00       212.29
 1275.59        2975.50           1563          46.00       173.06
 1275.62        2975.75           1566          45.00       168.70
 1275.65        2976.00           1569          53.00       203.58
 1275.68        2976.25           1573          44.00       164.34
 1275.71        2976.50           1576          49.00       186.14
 1275.74        2976.75           1579          52.00       199.22
 1275.78        2977.00           1583          42.00       155.62
 1275.81        2977.25           1586          42.00       155.62
 1275.84        2977.50           1590          43.00       159.98
 1275.87        2977.75           1593          45.00       168.70
 1275.90        2978.00           1596          43.00       159.98
 1275.93        2978.25           1600          54.00       207.94
 1275.96        2978.50           1603          40.00       146.91
 1275.99        2978.75           1606          46.00       173.06
 1276.02        2979.00           1610          43.00       159.98
 1276.05        2979.25           1613          41.00       151.26
 1276.08        2979.50           1616          46.00       173.06
 1276.11        2979.75           1620          44.00       164.34
 1276.14        2980.00           1623          46.00       173.06
 1276.18        2980.25           1626          43.00       159.98
 1276.21        2980.50           1630          43.00       159.98
 1276.24        2980.75           1633          44.00       164.34
 1276.27        2981.00           1637          38.00       138.19
 1276.30        2981.25           1640          43.00       159.98
 1276.33        2981.50           1643          37.00       133.83
 1276.36        2981.75           1647          48.00       181.78
 1276.39        2982.00           1650          42.00       155.62
 1276.42        2982.25           1653          47.00       177.42
 1276.45        2982.50           1657          41.00       151.26
 1276.48        2982.75           1660          38.00       138.19
 1276.51        2983.00           1663          43.00       159.98
 1276.54        2983.25           1667          41.00       151.26
 1276.58        2983.50           1670          45.00       168.70
 1276.61        2983.75           1673          42.00       155.62
 1276.64        2984.00           1677          41.00       151.26
HS scan finished at 21:16:51
end
