************************************************************
  HS Scan of (1) Internal mercury lamp
************************************************************
Integration time is 0.2294 seconds per sample
dh080618Manchester 53.47 2.23 2.804185pr1000
************************************************************
Dead Time -------------------------  3E-08 
Number of Cycles Used -------------  4 
Starting Wavelength (Angstroms) ---  2950 
Final Wavelength (Angstoms) -------  2984 
Wavelength Increment (Angstroms) --  .25 
Filter Wheel #1 Position ---------- (1) Ground quartz diffuser (ND=2.32)
Filter Wheel #2 Position ---------- (1) Neutral Density 0.494



************************************************************
HS scan start time = 01:31:47
Dark Count =  6.6 


Time (GMT)  Wavelength (Ang)  Step Number  Raw Counts  Counts/Second

   92.15        2950.00           1222          59.00       228.42
   92.21        2950.25           1226          58.00       224.06
   92.24        2950.50           1229          62.00       241.50
   92.27        2950.75           1232          62.00       241.50
   92.30        2951.00           1236          53.00       202.27
   92.33        2951.25           1239          56.00       215.35
   92.36        2951.50           1242          55.00       210.99
   92.40        2951.75           1246          49.00       184.83
   92.43        2952.00           1249          55.00       210.99
   92.46        2952.25           1252          53.00       202.27
   92.49        2952.50           1256          50.00       189.19
   92.52        2952.75           1259          50.00       189.19
   92.55        2953.00           1262          45.00       167.39
   92.58        2953.25           1266          60.00       232.78
   92.61        2953.50           1269          67.00       263.30
   92.64        2953.75           1272          59.00       228.42
   92.67        2954.00           1276          55.00       210.99
   92.70        2954.25           1279          53.00       202.27
   92.73        2954.50           1282          47.00       176.11
   92.77        2954.75           1286          54.00       206.63
   92.80        2955.00           1289          58.00       224.06
   92.83        2955.25           1292          58.00       224.06
   92.86        2955.50           1296          47.00       176.11
   92.89        2955.75           1299          60.00       232.78
   92.92        2956.00           1302          50.00       189.19
   92.95        2956.25           1306          64.00       250.22
   92.98        2956.50           1309          48.00       180.47
   93.01        2956.75           1312          57.00       219.71
   93.05        2957.00           1316          47.00       176.11
   93.08        2957.25           1319          63.00       245.86
   93.11        2957.50           1322          58.00       224.06
   93.14        2957.75           1326          57.00       219.71
   93.17        2958.00           1329          49.00       184.83
   93.20        2958.25           1332          49.00       184.83
   93.23        2958.50           1336          47.00       176.11
   93.26        2958.75           1339          51.00       193.55
   93.30        2959.00           1342          54.00       206.63
   93.33        2959.25           1346          59.00       228.42
   93.36        2959.50           1349          66.00       258.94
   93.39        2959.75           1352          77.00       306.89
   93.42        2960.00           1356         103.00       420.23
   93.45        2960.25           1359         113.00       463.83
   93.48        2960.50           1362         145.00       603.32
   93.51        2960.75           1366         198.00       834.37
   93.54        2961.00           1369         245.00      1039.27
   93.57        2961.25           1372         288.00      1226.72
   93.60        2961.50           1376         381.00      1632.16
   93.64        2961.75           1379         684.00      2953.18
   93.67        2962.00           1382        1583.00      6873.26
   93.70        2962.25           1386        3304.00     14380.22
   93.73        2962.50           1389        4744.00     20664.07
   93.76        2962.75           1392        6059.00     26404.52
   93.79        2963.00           1396        7722.00     33666.95
   93.82        2963.25           1399        9253.00     40355.72
   93.85        2963.50           1402       10688.00     46627.52
   93.88        2963.75           1406       12477.00     54449.82
   93.92        2964.00           1409       14077.00     61448.83
   93.95        2964.25           1412       15395.00     67216.50
   93.98        2964.50           1416       17282.00     75477.60
   94.01        2964.75           1419       18822.00     82222.63
   94.04        2965.00           1422       20224.00     88365.59
   94.07        2965.25           1426       22122.00     96685.44
   94.10        2965.50           1429       23530.00    102860.10
   94.13        2965.75           1432       25064.00    109589.90
   94.16        2966.00           1436       26795.00    117187.20
   94.19        2966.25           1439       28056.00    122723.90
   94.23        2966.50           1442       29441.00    128807.20
   94.26        2966.75           1446       30387.00    132963.50
   94.29        2967.00           1449       30744.00    134532.30
   94.32        2967.25           1452       30734.00    134488.40
   94.35        2967.50           1456       30696.00    134321.40
   94.38        2967.75           1459       30698.00    134330.10
   94.41        2968.00           1462       30472.00    133337.00
   94.44        2968.25           1466       29308.00    128222.90
   94.48        2968.50           1469       27911.00    122087.20
   94.51        2968.75           1472       26578.00    116234.60
   94.54        2969.00           1476       24879.00    108778.10
   94.57        2969.25           1479       23390.00    102246.00
   94.60        2969.50           1482       21958.00     95966.39
   94.63        2969.75           1486       20249.00     88475.16
   94.66        2970.00           1489       18757.00     81937.88
   94.69        2970.25           1492       17475.00     76322.78
   94.72        2970.50           1496       15534.00     67824.88
   94.76        2970.75           1499       14005.00     61133.82
   94.79        2971.00           1502       12423.00     54213.65
   94.82        2971.25           1506       10691.00     46640.64
   94.85        2971.50           1509        9055.00     39490.53
   94.88        2971.75           1513        7353.00     32055.23
   94.91        2972.00           1516        6032.00     26286.63
   94.94        2972.25           1519        4589.00     19987.57
   94.97        2972.50           1523        2731.00     11880.43
   95.00        2972.75           1526        1496.00      6493.85
   95.03        2973.00           1529         703.00      3036.02
   95.06        2973.25           1533         396.00      1697.56
   95.09        2973.50           1536         311.00      1326.99
   95.12        2973.75           1539         269.00      1143.89
   95.16        2974.00           1543         228.00       965.15
   95.19        2974.25           1546         174.00       729.75
   95.22        2974.50           1549         137.00       568.45
   95.25        2974.75           1553          93.00       376.64
   95.28        2975.00           1556          80.00       319.97
   95.31        2975.25           1559          67.00       263.30
   95.34        2975.50           1563          59.00       228.42
   95.37        2975.75           1566          54.00       206.63
   95.41        2976.00           1569          56.00       215.35
   95.44        2976.25           1573          64.00       250.22
   95.47        2976.50           1576          56.00       215.35
   95.50        2976.75           1579          57.00       219.71
   95.53        2977.00           1583          56.00       215.35
   95.56        2977.25           1586          58.00       224.06
   95.59        2977.50           1590          51.00       193.55
   95.62        2977.75           1593          50.00       189.19
   95.65        2978.00           1596          54.00       206.63
   95.68        2978.25           1600          50.00       189.19
   95.71        2978.50           1603          53.00       202.27
   95.74        2978.75           1606          51.00       193.55
   95.78        2979.00           1610          52.00       197.91
   95.81        2979.25           1613          46.00       171.75
   95.84        2979.50           1616          55.00       210.99
   95.87        2979.75           1620          50.00       189.19
   95.90        2980.00           1623          47.00       176.11
   95.93        2980.25           1626          48.00       180.47
   95.96        2980.50           1630          60.00       232.78
   95.99        2980.75           1633          56.00       215.35
   96.02        2981.00           1637          45.00       167.39
   96.05        2981.25           1640          62.00       241.50
   96.08        2981.50           1643          59.00       228.42
   96.11        2981.75           1647          59.00       228.42
   96.15        2982.00           1650          53.00       202.27
   96.18        2982.25           1653          52.00       197.91
   96.21        2982.50           1657          49.00       184.83
   96.24        2982.75           1660          48.00       180.47
   96.27        2983.00           1663          51.00       193.55
   96.30        2983.25           1667          50.00       189.19
   96.33        2983.50           1670          47.00       176.11
   96.36        2983.75           1673          46.00       171.75
   96.39        2984.00           1677          45.00       167.39
HS scan finished at 01:36:37
end
************************************************************
  HS Scan of (1) Internal mercury lamp
************************************************************
Integration time is 0.2294 seconds per sample
dh080618Manchester 53.47 2.23 2.911481pr1000
************************************************************
Dead Time -------------------------  3E-08 
Number of Cycles Used -------------  4 
Starting Wavelength (Angstroms) ---  2950 
Final Wavelength (Angstoms) -------  2984 
Wavelength Increment (Angstroms) --  .25 
Filter Wheel #1 Position ---------- (1) Ground quartz diffuser (ND=2.32)
Filter Wheel #2 Position ---------- (1) Neutral Density 0.494



************************************************************
HS scan start time = 21:42:03
Dark Count =  8.600001 


Time (GMT)  Wavelength (Ang)  Step Number  Raw Counts  Counts/Second

 1302.42        2950.00           1222          58.00       215.35
 1302.49        2950.25           1226          55.00       202.27
 1302.52        2950.50           1229          56.00       206.63
 1302.55        2950.75           1232          62.00       232.78
 1302.58        2951.00           1236          55.00       202.27
 1302.61        2951.25           1239          54.00       197.91
 1302.64        2951.50           1242          61.00       228.42
 1302.67        2951.75           1246          60.00       224.06
 1302.71        2952.00           1249          59.00       219.71
 1302.74        2952.25           1252          64.00       241.50
 1302.77        2952.50           1256          51.00       184.83
 1302.80        2952.75           1259          63.00       237.14
 1302.83        2953.00           1262          52.00       189.19
 1302.86        2953.25           1266          60.00       224.06
 1302.89        2953.50           1269          55.00       202.27
 1302.92        2953.75           1272          56.00       206.63
 1302.95        2954.00           1276          52.00       189.19
 1302.98        2954.25           1279          58.00       215.35
 1303.01        2954.50           1282          53.00       193.55
 1303.04        2954.75           1286          57.00       210.99
 1303.07        2955.00           1289          57.00       210.99
 1303.11        2955.25           1292          62.00       232.78
 1303.14        2955.50           1296          61.00       228.42
 1303.17        2955.75           1299          50.00       180.47
 1303.20        2956.00           1302          60.00       224.06
 1303.23        2956.25           1306          49.00       176.11
 1303.26        2956.50           1309          57.00       210.99
 1303.29        2956.75           1312          58.00       215.35
 1303.32        2957.00           1316          53.00       193.55
 1303.35        2957.25           1319          56.00       206.63
 1303.38        2957.50           1322          55.00       202.27
 1303.41        2957.75           1326          62.00       232.78
 1303.45        2958.00           1329          52.00       189.19
 1303.48        2958.25           1332          50.00       180.47
 1303.51        2958.50           1336          55.00       202.27
 1303.54        2958.75           1339          55.00       202.27
 1303.57        2959.00           1342          60.00       224.06
 1303.60        2959.25           1346          61.00       228.42
 1303.63        2959.50           1349          68.00       258.94
 1303.66        2959.75           1352          80.00       311.25
 1303.69        2960.00           1356         122.00       494.34
 1303.72        2960.25           1359         125.00       507.42
 1303.76        2960.50           1362         165.00       681.79
 1303.79        2960.75           1366         207.00       864.89
 1303.82        2961.00           1369         255.00      1074.14
 1303.85        2961.25           1372         296.00      1252.88
 1303.88        2961.50           1376         352.00      1497.02
 1303.91        2961.75           1379         491.00      2103.01
 1303.94        2962.00           1382         994.00      4296.11
 1303.97        2962.25           1386        2545.00     11060.34
 1304.00        2962.50           1389        3948.00     17181.48
 1304.04        2962.75           1392        5352.00     23309.23
 1304.07        2963.00           1396        7255.00     31618.47
 1304.10        2963.25           1399        8758.00     38184.08
 1304.13        2963.50           1402       10124.00     44153.49
 1304.16        2963.75           1406       12255.00     53470.19
 1304.19        2964.00           1409       13720.00     59878.17
 1304.22        2964.25           1412       15286.00     66730.66
 1304.25        2964.50           1416       17269.00     75411.93
 1304.28        2964.75           1419       18841.00     82297.10
 1304.31        2965.00           1422       20439.00     89299.07
 1304.35        2965.25           1426       22374.00     97781.63
 1304.38        2965.50           1429       23873.00    104355.80
 1304.41        2965.75           1432       25298.00    110607.90
 1304.44        2966.00           1436       27198.00    118947.70
 1304.47        2966.25           1439       28643.00    125293.10
 1304.50        2966.50           1442       30081.00    131610.20
 1304.53        2966.75           1446       31553.00    138079.10
 1304.56        2967.00           1449       32007.00    140074.80
 1304.59        2967.25           1452       32090.00    140439.60
 1304.63        2967.50           1456       31914.00    139665.90
 1304.66        2967.75           1459       31974.00    139929.70
 1304.69        2968.00           1462       31828.00    139287.90
 1304.72        2968.25           1466       30702.00    134338.90
 1304.75        2968.50           1469       29484.00    128987.30
 1304.78        2968.75           1472       28194.00    123321.10
 1304.81        2969.00           1476       26147.00    114334.00
 1304.84        2969.25           1479       24808.00    108457.80
 1304.87        2969.50           1482       23240.00    101579.40
 1304.91        2969.75           1486       21393.00     93480.62
 1304.94        2970.00           1489       19864.00     86779.25
 1304.97        2970.25           1492       18410.00     80409.09
 1305.00        2970.50           1496       16394.00     71580.75
 1305.03        2970.75           1499       14830.00     64735.02
 1305.06        2971.00           1502       13462.00     58749.49
 1305.09        2971.25           1506       11506.00     50194.98
 1305.12        2971.50           1509       10090.00     44004.88
 1305.15        2971.75           1513        8279.00     36091.37
 1305.19        2972.00           1516        6768.00     29491.64
 1305.22        2972.25           1519        5309.00     23121.53
 1305.25        2972.50           1523        3409.00     14829.61
 1305.28        2972.75           1526        2040.00      8857.63
 1305.31        2973.00           1529         899.00      3881.88
 1305.34        2973.25           1533         410.00      1749.87
 1305.37        2973.50           1536         329.00      1396.75
 1305.40        2973.75           1539         285.00      1204.93
 1305.43        2974.00           1543         225.00       943.36
 1305.47        2974.25           1546         182.00       755.90
 1305.50        2974.50           1549         130.00       529.22
 1305.53        2974.75           1553          86.00       337.41
 1305.56        2975.00           1556          73.00       280.73
 1305.59        2975.25           1559          68.00       258.94
 1305.62        2975.50           1563          57.00       210.99
 1305.65        2975.75           1566          60.00       224.06
 1305.68        2976.00           1569          60.00       224.06
 1305.71        2976.25           1573          59.00       219.71
 1305.74        2976.50           1576          54.00       197.91
 1305.78        2976.75           1579          59.00       219.71
 1305.81        2977.00           1583          58.00       215.35
 1305.84        2977.25           1586          55.00       202.27
 1305.87        2977.50           1590          48.00       171.75
 1305.90        2977.75           1593          59.00       219.71
 1305.93        2978.00           1596          51.00       184.83
 1305.96        2978.25           1600          52.00       189.19
 1305.99        2978.50           1603          54.00       197.91
 1306.02        2978.75           1606          50.00       180.47
 1306.05        2979.00           1610          51.00       184.83
 1306.08        2979.25           1613          54.00       197.91
 1306.12        2979.50           1616          51.00       184.83
 1306.15        2979.75           1620          56.00       206.63
 1306.18        2980.00           1623          51.00       184.83
 1306.21        2980.25           1626          53.00       193.55
 1306.24        2980.50           1630          62.00       232.78
 1306.27        2980.75           1633          46.00       163.03
 1306.30        2981.00           1637          52.00       189.19
 1306.33        2981.25           1640          51.00       184.83
 1306.36        2981.50           1643          53.00       193.55
 1306.39        2981.75           1647          65.00       245.86
 1306.42        2982.00           1650          43.00       149.96
 1306.45        2982.25           1653          55.00       202.27
 1306.49        2982.50           1657          61.00       228.42
 1306.52        2982.75           1660          54.00       197.91
 1306.55        2983.00           1663          50.00       180.47
 1306.58        2983.25           1667          47.00       167.39
 1306.61        2983.50           1670          55.00       202.27
 1306.64        2983.75           1673          50.00       180.47
 1306.67        2984.00           1677          50.00       180.47
HS scan finished at 21:46:53
end
