************************************************************
  HS Scan of (1) Internal mercury lamp
************************************************************
Integration time is 0.2294 seconds per sample
dh060618Manchester 53.47 2.23 2.804185pr1000
************************************************************
Dead Time -------------------------  3E-08 
Number of Cycles Used -------------  4 
Starting Wavelength (Angstroms) ---  2950 
Final Wavelength (Angstoms) -------  2984 
Wavelength Increment (Angstroms) --  .25 
Filter Wheel #1 Position ---------- (1) Ground quartz diffuser (ND=2.32)
Filter Wheel #2 Position ---------- (1) Neutral Density 0.494



************************************************************
HS scan start time = 01:35:54
Dark Count =  8.600001 


Time (GMT)  Wavelength (Ang)  Step Number  Raw Counts  Counts/Second

   96.26        2950.00           1222          61.00       228.42
   96.33        2950.25           1226          59.00       219.71
   96.36        2950.50           1229          53.00       193.55
   96.39        2950.75           1232          57.00       210.99
   96.42        2951.00           1236          50.00       180.47
   96.46        2951.25           1239          58.00       215.35
   96.49        2951.50           1242          52.00       189.19
   96.52        2951.75           1246          59.00       219.71
   96.55        2952.00           1249          71.00       272.02
   96.58        2952.25           1252          61.00       228.42
   96.61        2952.50           1256          56.00       206.63
   96.64        2952.75           1259          53.00       193.55
   96.67        2953.00           1262          61.00       228.42
   96.70        2953.25           1266          50.00       180.47
   96.73        2953.50           1269          61.00       228.42
   96.76        2953.75           1272          54.00       197.91
   96.79        2954.00           1276          59.00       219.71
   96.83        2954.25           1279          54.00       197.91
   96.86        2954.50           1282          57.00       210.99
   96.89        2954.75           1286          54.00       197.91
   96.92        2955.00           1289          59.00       219.71
   96.95        2955.25           1292          52.00       189.19
   96.98        2955.50           1296          51.00       184.83
   97.01        2955.75           1299          61.00       228.42
   97.04        2956.00           1302          56.00       206.63
   97.07        2956.25           1306          60.00       224.06
   97.10        2956.50           1309          60.00       224.06
   97.13        2956.75           1312          56.00       206.63
   97.17        2957.00           1316          49.00       176.11
   97.20        2957.25           1319          61.00       228.42
   97.23        2957.50           1322          56.00       206.63
   97.26        2957.75           1326          58.00       215.35
   97.29        2958.00           1329          56.00       206.63
   97.32        2958.25           1332          53.00       193.55
   97.35        2958.50           1336          59.00       219.71
   97.38        2958.75           1339          55.00       202.27
   97.41        2959.00           1342          57.00       210.99
   97.44        2959.25           1346          53.00       193.55
   97.48        2959.50           1349          61.00       228.42
   97.51        2959.75           1352          74.00       285.09
   97.54        2960.00           1356         105.00       420.23
   97.57        2960.25           1359         134.00       546.65
   97.60        2960.50           1362         165.00       681.79
   97.63        2960.75           1366         210.00       877.97
   97.66        2961.00           1369         258.00      1087.22
   97.69        2961.25           1372         284.00      1200.57
   97.73        2961.50           1376         349.00      1483.94
   97.76        2961.75           1379         418.00      1784.75
   97.79        2962.00           1382         788.00      3397.91
   97.82        2962.25           1386        2076.00      9014.64
   97.85        2962.50           1389        3354.00     14589.65
   97.88        2962.75           1392        4759.00     20720.81
   97.91        2963.00           1396        6673.00     29076.79
   97.94        2963.25           1399        8194.00     35720.04
   97.97        2963.50           1402        9612.00     41915.80
   98.00        2963.75           1406       11340.00     49469.18
   98.03        2964.00           1409       12914.00     56352.39
   98.07        2964.25           1412       14440.00     63028.40
   98.10        2964.50           1416       16291.00     71129.84
   98.13        2964.75           1419       17613.00     76918.35
   98.16        2965.00           1422       19176.00     83764.73
   98.19        2965.25           1426       21096.00     92178.72
   98.22        2965.50           1429       22529.00     98461.29
   98.25        2965.75           1432       24054.00    105149.90
   98.28        2966.00           1436       25978.00    113592.20
   98.31        2966.25           1439       27132.00    118657.90
   98.35        2966.50           1442       28582.00    125025.20
   98.38        2966.75           1446       30289.00    132524.10
   98.41        2967.00           1449       30738.00    134497.10
   98.44        2967.25           1452       31076.00    135982.60
   98.47        2967.50           1456       30912.00    135261.80
   98.50        2967.75           1459       30833.00    134914.60
   98.53        2968.00           1462       30821.00    134861.90
   98.56        2968.25           1466       30321.00    132664.70
   98.59        2968.50           1469       29585.00    129431.00
   98.62        2968.75           1472       28026.00    122583.40
   98.66        2969.00           1476       25988.00    113636.10
   98.69        2969.25           1479       24705.00    108005.90
   98.72        2969.50           1482       22994.00    100500.50
   98.75        2969.75           1486       21081.00     92112.96
   98.78        2970.00           1489       19837.00     86660.93
   98.81        2970.25           1492       18452.00     80593.06
   98.84        2970.50           1496       16712.00     72973.00
   98.87        2970.75           1499       15268.00     66651.90
   98.90        2971.00           1502       13871.00     60538.80
   98.94        2971.25           1506       12027.00     52473.13
   98.97        2971.50           1509       10591.00     46194.75
   99.00        2971.75           1513        8563.00     37332.11
   99.03        2972.00           1516        7180.00     31290.91
   99.06        2972.25           1519        5703.00     24841.52
   99.09        2972.50           1523        3999.00     17404.03
   99.12        2972.75           1526        2545.00     11060.34
   99.15        2973.00           1529        1365.00      5913.87
   99.18        2973.25           1533         480.00      2055.05
   99.22        2973.50           1536         308.00      1305.20
   99.25        2973.75           1539         250.00      1052.34
   99.28        2974.00           1543         230.00       965.15
   99.31        2974.25           1546         162.00       668.71
   99.34        2974.50           1549         137.00       559.73
   99.37        2974.75           1553          98.00       389.72
   99.40        2975.00           1556          69.00       263.30
   99.43        2975.25           1559          63.00       237.14
   99.46        2975.50           1563          60.00       224.06
   99.50        2975.75           1566          60.00       224.06
   99.53        2976.00           1569          56.00       206.63
   99.56        2976.25           1573          56.00       206.63
   99.59        2976.50           1576          60.00       224.06
   99.62        2976.75           1579          54.00       197.91
   99.65        2977.00           1583          48.00       171.75
   99.68        2977.25           1586          53.00       193.55
   99.71        2977.50           1590          54.00       197.91
   99.74        2977.75           1593          45.00       158.68
   99.77        2978.00           1596          50.00       180.47
   99.80        2978.25           1600          49.00       176.11
   99.84        2978.50           1603          62.00       232.78
   99.87        2978.75           1606          53.00       193.55
   99.90        2979.00           1610          49.00       176.11
   99.93        2979.25           1613          55.00       202.27
   99.96        2979.50           1616          58.00       215.35
   99.99        2979.75           1620          49.00       176.11
  100.02        2980.00           1623          59.00       219.71
  100.05        2980.25           1626          52.00       189.19
  100.08        2980.50           1630          50.00       180.47
  100.11        2980.75           1633          50.00       180.47
  100.14        2981.00           1637          45.00       158.68
  100.17        2981.25           1640          44.00       154.32
  100.21        2981.50           1643          50.00       180.47
  100.24        2981.75           1647          50.00       180.47
  100.27        2982.00           1650          50.00       180.47
  100.30        2982.25           1653          57.00       210.99
  100.33        2982.50           1657          46.00       163.03
  100.36        2982.75           1660          47.00       167.39
  100.39        2983.00           1663          51.00       184.83
  100.42        2983.25           1667          54.00       197.91
  100.45        2983.50           1670          55.00       202.27
  100.48        2983.75           1673          50.00       180.47
  100.51        2984.00           1677          48.00       171.75
HS scan finished at 01:40:44
end
************************************************************
  HS Scan of (1) Internal mercury lamp
************************************************************
Integration time is 0.2294 seconds per sample
dh060618Manchester 53.47 2.23 2.857833pr1000
************************************************************
Dead Time -------------------------  3E-08 
Number of Cycles Used -------------  4 
Starting Wavelength (Angstroms) ---  2950 
Final Wavelength (Angstoms) -------  2984 
Wavelength Increment (Angstroms) --  .25 
Filter Wheel #1 Position ---------- (1) Ground quartz diffuser (ND=2.32)
Filter Wheel #2 Position ---------- (1) Neutral Density 0.494



************************************************************
HS scan start time = 21:42:09
Dark Count =  7.2 


Time (GMT)  Wavelength (Ang)  Step Number  Raw Counts  Counts/Second

 1302.52        2950.00           1222          57.00       217.09
 1302.59        2950.25           1226          68.00       265.04
 1302.62        2950.50           1229          58.00       221.45
 1302.65        2950.75           1232          64.00       247.60
 1302.68        2951.00           1236          63.00       243.25
 1302.71        2951.25           1239          54.00       204.01
 1302.74        2951.50           1242          55.00       208.37
 1302.77        2951.75           1246          48.00       177.86
 1302.80        2952.00           1249          54.00       204.01
 1302.84        2952.25           1252          61.00       234.53
 1302.87        2952.50           1256          54.00       204.01
 1302.90        2952.75           1259          58.00       221.45
 1302.93        2953.00           1262          52.00       195.29
 1302.96        2953.25           1266          50.00       186.57
 1302.99        2953.50           1269          59.00       225.81
 1303.02        2953.75           1272          59.00       225.81
 1303.05        2954.00           1276          63.00       243.25
 1303.08        2954.25           1279          55.00       208.37
 1303.12        2954.50           1282          52.00       195.29
 1303.15        2954.75           1286          57.00       217.09
 1303.18        2955.00           1289          56.00       212.73
 1303.21        2955.25           1292          54.00       204.01
 1303.24        2955.50           1296          59.00       225.81
 1303.27        2955.75           1299          50.00       186.57
 1303.30        2956.00           1302          56.00       212.73
 1303.33        2956.25           1306          52.00       195.29
 1303.36        2956.50           1309          50.00       186.57
 1303.39        2956.75           1312          57.00       217.09
 1303.42        2957.00           1316          50.00       186.57
 1303.46        2957.25           1319          58.00       221.45
 1303.49        2957.50           1322          63.00       243.25
 1303.52        2957.75           1326          65.00       251.96
 1303.55        2958.00           1329          60.00       230.17
 1303.58        2958.25           1332          63.00       243.25
 1303.61        2958.50           1336          60.00       230.17
 1303.64        2958.75           1339          51.00       190.93
 1303.67        2959.00           1342          63.00       243.25
 1303.70        2959.25           1346          57.00       217.09
 1303.73        2959.50           1349          65.00       251.96
 1303.77        2959.75           1352          76.00       299.92
 1303.80        2960.00           1356         105.00       426.34
 1303.83        2960.25           1359         142.00       587.63
 1303.86        2960.50           1362         166.00       692.26
 1303.89        2960.75           1366         210.00       884.07
 1303.92        2961.00           1369         259.00      1097.68
 1303.95        2961.25           1372         293.00      1245.91
 1303.98        2961.50           1376         379.00      1620.83
 1304.01        2961.75           1379         583.00      2510.22
 1304.04        2962.00           1382        1345.00      5832.76
 1304.08        2962.25           1386        3058.00     13304.35
 1304.11        2962.50           1389        4438.00     19325.94
 1304.14        2962.75           1392        5866.00     25559.26
 1304.17        2963.00           1396        7722.00     33664.32
 1304.20        2963.25           1399        9016.00     39317.49
 1304.23        2963.50           1402       10319.00     45011.92
 1304.26        2963.75           1406       12347.00     53878.65
 1304.29        2964.00           1409       13698.00     59788.05
 1304.32        2964.25           1412       15293.00     66767.43
 1304.36        2964.50           1416       17357.00     75803.41
 1304.39        2964.75           1419       18681.00     81602.32
 1304.42        2965.00           1422       20379.00     89042.25
 1304.45        2965.25           1426       22205.00     97046.74
 1304.48        2965.50           1429       23529.00    102853.10
 1304.51        2965.75           1432       25174.00    110069.90
 1304.54        2966.00           1436       26822.00    117303.10
 1304.57        2966.25           1439       28092.00    122879.40
 1304.60        2966.50           1442       29518.00    129142.80
 1304.63        2966.75           1446       30729.00    134463.70
 1304.67        2967.00           1449       30880.00    135127.30
 1304.70        2967.25           1452       30889.00    135166.90
 1304.73        2967.50           1456       30905.00    135237.20
 1304.76        2967.75           1459       30832.00    134916.40
 1304.79        2968.00           1462       30621.00    133989.10
 1304.82        2968.25           1466       29516.00    129134.00
 1304.85        2968.50           1469       28189.00    123305.30
 1304.88        2968.75           1472       26872.00    117522.60
 1304.91        2969.00           1476       25131.00    109881.20
 1304.95        2969.25           1479       23816.00    104112.00
 1304.98        2969.50           1482       22272.00     97340.51
 1305.01        2969.75           1486       20547.00     89778.55
 1305.04        2970.00           1489       19135.00     83591.24
 1305.07        2970.25           1492       17585.00     76801.87
 1305.10        2970.50           1496       15744.00     68741.44
 1305.13        2970.75           1499       14220.00     62071.89
 1305.16        2971.00           1502       12814.00     55921.12
 1305.19        2971.25           1506       10929.00     47678.44
 1305.23        2971.50           1509        9454.00     41231.45
 1305.26        2971.75           1513        7540.00     32869.36
 1305.29        2972.00           1516        5967.00     26000.22
 1305.32        2972.25           1519        4688.00     20417.04
 1305.35        2972.50           1523        2870.00     12484.19
 1305.38        2972.75           1526        1643.00      7132.30
 1305.41        2973.00           1529         726.00      3133.69
 1305.44        2973.25           1533         357.00      1524.92
 1305.48        2973.50           1536         288.00      1224.11
 1305.51        2973.75           1539         253.00      1071.53
 1305.54        2974.00           1543         206.00       866.63
 1305.57        2974.25           1546         156.00       648.66
 1305.60        2974.50           1549         112.00       456.85
 1305.63        2974.75           1553          86.00       343.51
 1305.66        2975.00           1556          71.00       278.12
 1305.69        2975.25           1559          51.00       190.93
 1305.72        2975.50           1563          53.00       199.65
 1305.75        2975.75           1566          57.00       217.09
 1305.79        2976.00           1569          59.00       225.81
 1305.82        2976.25           1573          56.00       212.73
 1305.85        2976.50           1576          59.00       225.81
 1305.88        2976.75           1579          51.00       190.93
 1305.91        2977.00           1583          56.00       212.73
 1305.94        2977.25           1586          51.00       190.93
 1305.97        2977.50           1590          55.00       208.37
 1306.00        2977.75           1593          46.00       169.14
 1306.03        2978.00           1596          49.00       182.22
 1306.07        2978.25           1600          50.00       186.57
 1306.10        2978.50           1603          55.00       208.37
 1306.13        2978.75           1606          55.00       208.37
 1306.16        2979.00           1610          55.00       208.37
 1306.19        2979.25           1613          52.00       195.29
 1306.22        2979.50           1616          57.00       217.09
 1306.25        2979.75           1620          50.00       186.57
 1306.28        2980.00           1623          52.00       195.29
 1306.31        2980.25           1626          52.00       195.29
 1306.34        2980.50           1630          56.00       212.73
 1306.37        2980.75           1633          55.00       208.37
 1306.41        2981.00           1637          57.00       217.09
 1306.44        2981.25           1640          58.00       221.45
 1306.47        2981.50           1643          53.00       199.65
 1306.50        2981.75           1647          49.00       182.22
 1306.53        2982.00           1650          52.00       195.29
 1306.56        2982.25           1653          52.00       195.29
 1306.59        2982.50           1657          54.00       204.01
 1306.62        2982.75           1660          57.00       217.09
 1306.65        2983.00           1663          54.00       204.01
 1306.68        2983.25           1667          50.00       186.57
 1306.71        2983.50           1670          47.00       173.50
 1306.74        2983.75           1673          50.00       186.57
 1306.78        2984.00           1677          49.00       182.22
HS scan finished at 21:47:00
end
