************************************************************
  HS Scan of (1) Internal mercury lamp
************************************************************
Integration time is 0.2294 seconds per sample
dh050617El Arenosillo 37.1 6.73 2.911481pr1000
************************************************************
Dead Time -------------------------  3E-08 
Number of Cycles Used -------------  4 
Starting Wavelength (Angstroms) ---  2950 
Final Wavelength (Angstoms) -------  2984 
Wavelength Increment (Angstroms) --  .25 
Filter Wheel #1 Position ---------- (1) Ground quartz diffuser (ND=2.32)
Filter Wheel #2 Position ---------- (1) Neutral Density 0.494



************************************************************
HS scan start time = 02:03:52
Dark Count =  4.2 


Time (GMT)  Wavelength (Ang)  Step Number  Raw Counts  Counts/Second

  124.23        2950.00           1222          48.00       190.93
  124.30        2950.25           1226          44.00       173.50
  124.33        2950.50           1229          54.00       217.09
  124.36        2950.75           1232          46.00       182.22
  124.39        2951.00           1236          55.00       221.45
  124.42        2951.25           1239          44.00       173.50
  124.45        2951.50           1242          48.00       190.93
  124.48        2951.75           1246          45.00       177.86
  124.52        2952.00           1249          42.00       164.78
  124.55        2952.25           1252          39.00       151.70
  124.58        2952.50           1256          45.00       177.86
  124.61        2952.75           1259          46.00       182.22
  124.64        2953.00           1262          40.00       156.06
  124.67        2953.25           1266          42.00       164.78
  124.70        2953.50           1269          46.00       182.22
  124.73        2953.75           1272          42.00       164.78
  124.76        2954.00           1276          51.00       204.01
  124.79        2954.25           1279          37.00       142.98
  124.82        2954.50           1282          38.00       147.34
  124.85        2954.75           1286          52.00       208.37
  124.89        2955.00           1289          47.00       186.57
  124.92        2955.25           1292          43.00       169.14
  124.95        2955.50           1296          40.00       156.06
  124.98        2955.75           1299          46.00       182.22
  125.01        2956.00           1302          47.00       186.57
  125.04        2956.25           1306          47.00       186.57
  125.07        2956.50           1309          54.00       217.09
  125.10        2956.75           1312          52.00       208.37
  125.13        2957.00           1316          48.00       190.93
  125.16        2957.25           1319          44.00       173.50
  125.19        2957.50           1322          42.00       164.78
  125.23        2957.75           1326          51.00       204.01
  125.26        2958.00           1329          51.00       204.01
  125.29        2958.25           1332          39.00       151.70
  125.32        2958.50           1336          49.00       195.29
  125.35        2958.75           1339          45.00       177.86
  125.38        2959.00           1342          45.00       177.86
  125.41        2959.25           1346          48.00       190.93
  125.44        2959.50           1349          50.00       199.65
  125.47        2959.75           1352          66.00       269.40
  125.50        2960.00           1356         107.00       448.13
  125.53        2960.25           1359         133.00       561.47
  125.56        2960.50           1362         181.00       770.72
  125.59        2960.75           1366         239.00      1023.57
  125.63        2961.00           1369         269.00      1154.36
  125.66        2961.25           1372         339.00      1459.52
  125.69        2961.50           1376         463.00      2000.12
  125.72        2961.75           1379         714.00      3094.45
  125.75        2962.00           1382        1550.00      6739.81
  125.78        2962.25           1386        3499.00     15241.49
  125.81        2962.50           1389        5136.00     22385.56
  125.84        2962.75           1392        6891.00     30048.00
  125.87        2963.00           1396        9151.00     39920.49
  125.90        2963.25           1399       10889.00     47516.68
  125.94        2963.50           1402       12792.00     55838.01
  125.97        2963.75           1406       15694.00     68535.71
  126.00        2964.00           1409       17355.00     75807.78
  126.03        2964.25           1412       19193.00     83858.49
  126.06        2964.50           1416       21928.00     95845.38
  126.09        2964.75           1419       23649.00    103392.60
  126.12        2965.00           1422       25669.00    112255.40
  126.15        2965.25           1426       27701.00    121175.50
  126.18        2965.50           1429       29464.00    128918.70
  126.21        2965.75           1432       31219.00    136630.40
  126.25        2966.00           1436       33885.00    148351.90
  126.28        2966.25           1439       35494.00    155430.10
  126.31        2966.50           1442       37282.00    163299.40
  126.34        2966.75           1446       38883.00    170348.70
  126.37        2967.00           1449       39167.00    171599.50
  126.40        2967.25           1452       39174.00    171630.40
  126.43        2967.50           1456       39345.00    172383.50
  126.46        2967.75           1459       39257.00    171995.90
  126.49        2968.00           1462       38780.00    169895.10
  126.52        2968.25           1466       37873.00    165901.20
  126.56        2968.50           1469       36287.00    158919.80
  126.59        2968.75           1472       34464.00    150898.70
  126.62        2969.00           1476       32172.00    140819.50
  126.65        2969.25           1479       30520.00    133558.50
  126.68        2969.50           1482       28479.00    124592.10
  126.71        2969.75           1486       26202.00    114594.70
  126.74        2970.00           1489       24303.00    106261.50
  126.77        2970.25           1492       22630.00     98923.49
  126.81        2970.50           1496       20046.00     87596.06
  126.84        2970.75           1499       18211.00     79556.70
  126.87        2971.00           1502       16399.00     71621.91
  126.90        2971.25           1506       14089.00     61511.84
  126.93        2971.50           1509       12292.00     53651.24
  126.96        2971.75           1513       10154.00     44303.84
  126.99        2972.00           1516        8339.00     36372.71
  127.02        2972.25           1519        6657.00     29026.14
  127.05        2972.50           1523        4147.00     18069.08
  127.08        2972.75           1526        2460.00     10708.76
  127.12        2973.00           1529        1184.00      5143.78
  127.15        2973.25           1533         502.00      2170.15
  127.18        2973.50           1536         370.00      1594.67
  127.21        2973.75           1539         319.00      1372.33
  127.24        2974.00           1543         270.00      1158.72
  127.27        2974.25           1546         191.00       814.32
  127.30        2974.50           1549         155.00       657.38
  127.33        2974.75           1553          94.00       391.46
  127.36        2975.00           1556          76.00       312.99
  127.39        2975.25           1559          53.00       212.73
  127.42        2975.50           1563          59.00       238.89
  127.45        2975.75           1566          54.00       217.09
  127.49        2976.00           1569          50.00       199.65
  127.52        2976.25           1573          47.00       186.57
  127.55        2976.50           1576          51.00       204.01
  127.58        2976.75           1579          40.00       156.06
  127.61        2977.00           1583          48.00       190.93
  127.64        2977.25           1586          41.00       160.42
  127.67        2977.50           1590          52.00       208.37
  127.70        2977.75           1593          48.00       190.93
  127.73        2978.00           1596          69.00       282.48
  127.76        2978.25           1600          41.00       160.42
  127.79        2978.50           1603          54.00       217.09
  127.82        2978.75           1606          41.00       160.42
  127.85        2979.00           1610          43.00       169.14
  127.89        2979.25           1613          43.00       169.14
  127.92        2979.50           1616          34.00       129.90
  127.95        2979.75           1620          53.00       212.73
  127.98        2980.00           1623          45.00       177.86
  128.01        2980.25           1626          53.00       212.73
  128.04        2980.50           1630          41.00       160.42
  128.07        2980.75           1633          45.00       177.86
  128.10        2981.00           1637          43.00       169.14
  128.13        2981.25           1640          44.00       173.50
  128.16        2981.50           1643          43.00       169.14
  128.19        2981.75           1647          47.00       186.57
  128.22        2982.00           1650          42.00       164.78
  128.25        2982.25           1653          41.00       160.42
  128.28        2982.50           1657          37.00       142.98
  128.32        2982.75           1660          40.00       156.06
  128.35        2983.00           1663          51.00       204.01
  128.38        2983.25           1667          49.00       195.29
  128.41        2983.50           1670          47.00       186.57
  128.44        2983.75           1673          41.00       160.42
  128.47        2984.00           1677          46.00       182.22
HS scan finished at 02:08:41
end
************************************************************
  HS Scan of (1) Internal mercury lamp
************************************************************
Integration time is 0.2294 seconds per sample
dh050617El Arenosillo 37.1 6.73 3.126073pr1000
************************************************************
Dead Time -------------------------  3E-08 
Number of Cycles Used -------------  4 
Starting Wavelength (Angstroms) ---  2950 
Final Wavelength (Angstoms) -------  2984 
Wavelength Increment (Angstroms) --  .25 
Filter Wheel #1 Position ---------- (1) Ground quartz diffuser (ND=2.32)
Filter Wheel #2 Position ---------- (1) Neutral Density 0.494



************************************************************
HS scan start time = 20:39:10
Dark Count =  6.3 


Time (GMT)  Wavelength (Ang)  Step Number  Raw Counts  Counts/Second

 1239.54        2950.00           1222          49.00       186.14
 1239.61        2950.25           1226          45.00       168.70
 1239.64        2950.50           1229          45.00       168.70
 1239.67        2950.75           1232          46.00       173.06
 1239.70        2951.00           1236          45.00       168.70
 1239.73        2951.25           1239          43.00       159.98
 1239.76        2951.50           1242          46.00       173.06
 1239.79        2951.75           1246          42.00       155.62
 1239.82        2952.00           1249          45.00       168.70
 1239.86        2952.25           1252          44.00       164.34
 1239.89        2952.50           1256          42.00       155.62
 1239.92        2952.75           1259          38.00       138.19
 1239.95        2953.00           1262          40.00       146.91
 1239.98        2953.25           1266          41.00       151.26
 1240.01        2953.50           1269          51.00       194.86
 1240.04        2953.75           1272          42.00       155.62
 1240.07        2954.00           1276          42.00       155.62
 1240.10        2954.25           1279          49.00       186.14
 1240.13        2954.50           1282          43.00       159.98
 1240.16        2954.75           1286          41.00       151.26
 1240.20        2955.00           1289          51.00       194.86
 1240.23        2955.25           1292          46.00       173.06
 1240.26        2955.50           1296          43.00       159.98
 1240.29        2955.75           1299          49.00       186.14
 1240.32        2956.00           1302          44.00       164.34
 1240.35        2956.25           1306          44.00       164.34
 1240.38        2956.50           1309          43.00       159.98
 1240.41        2956.75           1312          42.00       155.62
 1240.44        2957.00           1316          37.00       133.83
 1240.47        2957.25           1319          42.00       155.62
 1240.50        2957.50           1322          45.00       168.70
 1240.53        2957.75           1326          41.00       151.26
 1240.56        2958.00           1329          46.00       173.06
 1240.59        2958.25           1332          40.00       146.91
 1240.63        2958.50           1336          45.00       168.70
 1240.66        2958.75           1339          58.00       225.37
 1240.69        2959.00           1342          48.00       181.78
 1240.72        2959.25           1346          56.00       216.65
 1240.75        2959.50           1349          68.00       268.96
 1240.78        2959.75           1352          98.00       399.74
 1240.81        2960.00           1356         150.00       626.43
 1240.84        2960.25           1359         184.00       774.65
 1240.87        2960.50           1362         239.00      1014.42
 1240.90        2960.75           1366         289.00      1232.39
 1240.93        2961.00           1369         366.00      1568.08
 1240.96        2961.25           1372         407.00      1746.82
 1241.00        2961.50           1376         565.00      2435.66
 1241.03        2961.75           1379         958.00      4149.17
 1241.06        2962.00           1382        2037.00      8854.58
 1241.09        2962.25           1386        4508.00     19635.37
 1241.12        2962.50           1389        6427.00     28012.64
 1241.15        2962.75           1392        8436.00     36787.31
 1241.18        2963.00           1396       11037.00     48154.53
 1241.21        2963.25           1399       13037.00     56900.46
 1241.24        2963.50           1402       14898.00     65042.66
 1241.27        2963.75           1406       17358.00     75811.72
 1241.31        2964.00           1409       19396.00     84738.68
 1241.34        2964.25           1412       21300.00     93083.02
 1241.37        2964.50           1416       24036.00    105081.00
 1241.40        2964.75           1419       26087.00    114080.70
 1241.43        2965.00           1422       28167.00    123212.70
 1241.46        2965.25           1426       31026.00    135772.90
 1241.49        2965.50           1429       33043.00    144639.80
 1241.52        2965.75           1432       34979.00    153155.00
 1241.55        2966.00           1436       37710.00    165174.40
 1241.59        2966.25           1439       39706.00    173964.40
 1241.62        2966.50           1442       41263.00    180824.40
 1241.65        2966.75           1446       42663.00    186995.10
 1241.68        2967.00           1449       43222.00    189459.60
 1241.71        2967.25           1452       43198.00    189353.80
 1241.74        2967.50           1456       43112.00    188974.60
 1241.77        2967.75           1459       43121.00    189014.30
 1241.80        2968.00           1462       42774.00    187484.40
 1241.83        2968.25           1466       41223.00    180648.10
 1241.87        2968.50           1469       39717.00    174012.90
 1241.90        2968.75           1472       37331.00    163505.80
 1241.93        2969.00           1476       35023.00    153348.60
 1241.96        2969.25           1479       33069.00    144754.10
 1241.99        2969.50           1482       31055.00    135900.40
 1242.02        2969.75           1486       28432.00    124376.50
 1242.05        2970.00           1489       26482.00    115814.50
 1242.08        2970.25           1492       24411.00    106726.10
 1242.11        2970.50           1496       21914.00     95774.79
 1242.15        2970.75           1499       19876.00     86841.91
 1242.18        2971.00           1502       17828.00     77870.02
 1242.21        2971.25           1506       15219.00     66447.50
 1242.24        2971.50           1509       13324.00     58155.87
 1242.27        2971.75           1513       10549.00     46021.22
 1242.30        2972.00           1516        8459.00     36887.79
 1242.33        2972.25           1519        6280.00     27370.77
 1242.36        2972.50           1523        3866.00     16833.70
 1242.39        2972.75           1526        2148.00      9338.71
 1242.42        2973.00           1529         863.00      3734.94
 1242.45        2973.25           1533         460.00      1977.89
 1242.49        2973.50           1536         345.00      1476.53
 1242.52        2973.75           1539         274.00      1167.00
 1242.55        2974.00           1543         221.00       935.95
 1242.58        2974.25           1546         168.00       704.90
 1242.61        2974.50           1549         117.00       482.57
 1242.64        2974.75           1553          73.00       290.76
 1242.67        2975.00           1556          54.00       207.94
 1242.70        2975.25           1559          47.00       177.42
 1242.73        2975.50           1563          48.00       181.78
 1242.76        2975.75           1566          48.00       181.78
 1242.79        2976.00           1569          44.00       164.34
 1242.83        2976.25           1573          49.00       186.14
 1242.86        2976.50           1576          50.00       190.50
 1242.89        2976.75           1579          43.00       159.98
 1242.92        2977.00           1583          46.00       173.06
 1242.95        2977.25           1586          46.00       173.06
 1242.98        2977.50           1590          44.00       164.34
 1243.01        2977.75           1593          44.00       164.34
 1243.04        2978.00           1596          50.00       190.50
 1243.07        2978.25           1600          54.00       207.94
 1243.10        2978.50           1603          47.00       177.42
 1243.13        2978.75           1606          39.00       142.55
 1243.16        2979.00           1610          40.00       146.91
 1243.19        2979.25           1613          49.00       186.14
 1243.23        2979.50           1616          54.00       207.94
 1243.26        2979.75           1620          49.00       186.14
 1243.29        2980.00           1623          47.00       177.42
 1243.32        2980.25           1626          35.00       125.11
 1243.35        2980.50           1630          49.00       186.14
 1243.38        2980.75           1633          43.00       159.98
 1243.41        2981.00           1637          51.00       194.86
 1243.44        2981.25           1640          52.00       199.22
 1243.47        2981.50           1643          49.00       186.14
 1243.50        2981.75           1647          40.00       146.91
 1243.53        2982.00           1650          39.00       142.55
 1243.56        2982.25           1653          43.00       159.98
 1243.60        2982.50           1657          46.00       173.06
 1243.63        2982.75           1660          43.00       159.98
 1243.66        2983.00           1663          42.00       155.62
 1243.69        2983.25           1667          42.00       155.62
 1243.72        2983.50           1670          40.00       146.91
 1243.75        2983.75           1673          40.00       146.91
 1243.78        2984.00           1677          44.00       164.34
HS scan finished at 20:44:00
end
