************************************************************
  HS Scan of (1) Internal mercury lamp
************************************************************
Integration time is 0.2294 seconds per sample
dh300518Manchester 53.47 2.23 2.804185pr1000
************************************************************
Dead Time -------------------------  3E-08 
Number of Cycles Used -------------  4 
Starting Wavelength (Angstroms) ---  2950 
Final Wavelength (Angstoms) -------  2984 
Wavelength Increment (Angstroms) --  .25 
Filter Wheel #1 Position ---------- (1) Ground quartz diffuser (ND=2.32)
Filter Wheel #2 Position ---------- (1) Neutral Density 0.494



************************************************************
HS scan start time = 01:35:16
Dark Count =  6.4 


Time (GMT)  Wavelength (Ang)  Step Number  Raw Counts  Counts/Second

   95.64        2950.00           1222          56.00       216.22
   95.71        2950.25           1226          58.00       224.94
   95.74        2950.50           1229          60.00       233.65
   95.77        2950.75           1232          57.00       220.58
   95.80        2951.00           1236          51.00       194.42
   95.83        2951.25           1239          45.00       168.27
   95.87        2951.50           1242          56.00       216.22
   95.90        2951.75           1246          54.00       207.50
   95.93        2952.00           1249          51.00       194.42
   95.96        2952.25           1252          66.00       259.81
   95.99        2952.50           1256          54.00       207.50
   96.02        2952.75           1259          54.00       207.50
   96.05        2953.00           1262          57.00       220.58
   96.08        2953.25           1266          66.00       259.81
   96.12        2953.50           1269          56.00       216.22
   96.15        2953.75           1272          55.00       211.86
   96.18        2954.00           1276          55.00       211.86
   96.21        2954.25           1279          60.00       233.65
   96.24        2954.50           1282          54.00       207.50
   96.27        2954.75           1286          62.00       242.37
   96.30        2955.00           1289          58.00       224.94
   96.33        2955.25           1292          56.00       216.22
   96.36        2955.50           1296          60.00       233.65
   96.39        2955.75           1299          64.00       251.09
   96.42        2956.00           1302          60.00       233.65
   96.45        2956.25           1306          61.00       238.01
   96.49        2956.50           1309          57.00       220.58
   96.52        2956.75           1312          52.00       198.78
   96.55        2957.00           1316          52.00       198.78
   96.58        2957.25           1319          54.00       207.50
   96.61        2957.50           1322          56.00       216.22
   96.64        2957.75           1326          53.00       203.14
   96.67        2958.00           1329          60.00       233.65
   96.70        2958.25           1332          54.00       207.50
   96.73        2958.50           1336          51.00       194.42
   96.76        2958.75           1339          48.00       181.34
   96.79        2959.00           1342          50.00       190.06
   96.82        2959.25           1346          61.00       238.01
   96.86        2959.50           1349          60.00       233.65
   96.89        2959.75           1352          90.00       364.43
   96.92        2960.00           1356         106.00       434.18
   96.95        2960.25           1359         146.00       608.56
   96.98        2960.50           1362         169.00       708.82
   97.01        2960.75           1366         216.00       913.71
   97.04        2961.00           1369         245.00      1040.14
   97.07        2961.25           1372         302.00      1288.63
   97.10        2961.50           1376         387.00      1659.19
   97.13        2961.75           1379         460.00      1977.45
   97.16        2962.00           1382         902.00      3904.56
   97.20        2962.25           1386        2405.00     10459.26
   97.23        2962.50           1389        3807.00     16575.81
   97.26        2962.75           1392        5124.00     22323.58
   97.29        2963.00           1396        7057.00     30763.34
   97.32        2963.25           1399        8503.00     37079.59
   97.35        2963.50           1402        9854.00     42983.03
   97.38        2963.75           1406       11842.00     51673.77
   97.41        2964.00           1409       13243.00     57801.10
   97.44        2964.25           1412       14724.00     64280.77
   97.47        2964.50           1416       16735.00     73083.34
   97.51        2964.75           1419       18163.00     79336.82
   97.54        2965.00           1422       19794.00     86482.14
   97.57        2965.25           1426       21449.00     93735.77
   97.60        2965.50           1429       23048.00    100746.90
   97.63        2965.75           1432       24676.00    107888.30
   97.66        2966.00           1436       26604.00    116349.60
   97.69        2966.25           1439       28161.00    123185.90
   97.72        2966.50           1442       29490.00    129023.30
   97.75        2966.75           1446       30677.00    134238.70
   97.79        2967.00           1449       31008.00    135693.40
   97.82        2967.25           1452       31073.00    135979.00
   97.85        2967.50           1456       31298.00    136967.90
   97.88        2967.75           1459       31051.00    135882.40
   97.91        2968.00           1462       31039.00    135829.60
   97.94        2968.25           1466       30243.00    132331.60
   97.97        2968.50           1469       29309.00    128228.20
   98.00        2968.75           1472       27749.00    121376.70
   98.03        2969.00           1476       25621.00    112035.00
   98.06        2969.25           1479       24404.00    106694.90
   98.10        2969.50           1482       22811.00     99707.57
   98.13        2969.75           1486       20911.00     91377.44
   98.16        2970.00           1489       19562.00     85465.59
   98.19        2970.25           1492       18116.00     79130.96
   98.22        2970.50           1496       16557.00     72304.02
   98.25        2970.75           1499       15026.00     65602.40
   98.28        2971.00           1502       13708.00     59835.30
   98.31        2971.25           1506       11759.00     51310.84
   98.34        2971.50           1509       10320.00     45019.79
   98.37        2971.75           1513        8341.00     36371.84
   98.41        2972.00           1516        6876.00     29972.89
   98.44        2972.25           1519        5397.00     23515.28
   98.47        2972.50           1523        3554.00     15471.87
   98.50        2972.75           1526        2193.00      9534.55
   98.53        2973.00           1529        1063.00      4606.57
   98.56        2973.25           1533         429.00      1842.30
   98.59        2973.50           1536         295.00      1258.11
   98.62        2973.75           1539         241.00      1022.70
   98.65        2974.00           1543         214.00       904.99
   98.68        2974.25           1546         148.00       617.27
   98.71        2974.50           1549         127.00       525.73
   98.75        2974.75           1553          87.00       351.36
   98.78        2975.00           1556          64.00       251.09
   98.81        2975.25           1559          64.00       251.09
   98.84        2975.50           1563          61.00       238.01
   98.87        2975.75           1566          63.00       246.73
   98.90        2976.00           1569          57.00       220.58
   98.93        2976.25           1573          54.00       207.50
   98.96        2976.50           1576          59.00       229.30
   98.99        2976.75           1579          52.00       198.78
   99.02        2977.00           1583          51.00       194.42
   99.06        2977.25           1586          50.00       190.06
   99.09        2977.50           1590          48.00       181.34
   99.12        2977.75           1593          58.00       224.94
   99.15        2978.00           1596          52.00       198.78
   99.18        2978.25           1600          52.00       198.78
   99.21        2978.50           1603          54.00       207.50
   99.24        2978.75           1606          51.00       194.42
   99.27        2979.00           1610          51.00       194.42
   99.30        2979.25           1613          54.00       207.50
   99.34        2979.50           1616          57.00       220.58
   99.37        2979.75           1620          50.00       190.06
   99.40        2980.00           1623          57.00       220.58
   99.43        2980.25           1626          48.00       181.34
   99.46        2980.50           1630          52.00       198.78
   99.49        2980.75           1633          52.00       198.78
   99.52        2981.00           1637          57.00       220.58
   99.55        2981.25           1640          53.00       203.14
   99.58        2981.50           1643          50.00       190.06
   99.61        2981.75           1647          46.00       172.63
   99.65        2982.00           1650          50.00       190.06
   99.68        2982.25           1653          42.00       155.19
   99.71        2982.50           1657          49.00       185.70
   99.74        2982.75           1660          47.00       176.98
   99.77        2983.00           1663          49.00       185.70
   99.80        2983.25           1667          64.00       251.09
   99.83        2983.50           1670          44.00       163.91
   99.86        2983.75           1673          46.00       172.63
   99.89        2984.00           1677          50.00       190.06
HS scan finished at 01:40:07
end
************************************************************
  HS Scan of (1) Internal mercury lamp
************************************************************
Integration time is 0.2294 seconds per sample
dh300518Manchester 53.47 2.23 2.911481pr1000
************************************************************
Dead Time -------------------------  3E-08 
Number of Cycles Used -------------  4 
Starting Wavelength (Angstroms) ---  2950 
Final Wavelength (Angstoms) -------  2984 
Wavelength Increment (Angstroms) --  .25 
Filter Wheel #1 Position ---------- (1) Ground quartz diffuser (ND=2.32)
Filter Wheel #2 Position ---------- (1) Neutral Density 0.494



************************************************************
HS scan start time = 21:12:05
Dark Count =  7.1 


Time (GMT)  Wavelength (Ang)  Step Number  Raw Counts  Counts/Second

 1272.45        2950.00           1222          56.00       213.17
 1272.52        2950.25           1226          61.00       234.96
 1272.55        2950.50           1229          62.00       239.32
 1272.58        2950.75           1232          50.00       187.01
 1272.61        2951.00           1236          63.00       243.68
 1272.64        2951.25           1239          53.00       200.09
 1272.67        2951.50           1242          54.00       204.45
 1272.70        2951.75           1246          65.00       252.40
 1272.73        2952.00           1249          64.00       248.04
 1272.76        2952.25           1252          49.00       182.65
 1272.79        2952.50           1256          60.00       230.60
 1272.83        2952.75           1259          53.00       200.09
 1272.86        2953.00           1262          72.00       282.91
 1272.89        2953.25           1266          57.00       217.53
 1272.92        2953.50           1269          57.00       217.53
 1272.95        2953.75           1272          61.00       234.96
 1272.98        2954.00           1276          48.00       178.29
 1273.01        2954.25           1279          49.00       182.65
 1273.04        2954.50           1282          57.00       217.53
 1273.07        2954.75           1286          54.00       204.45
 1273.10        2955.00           1289          65.00       252.40
 1273.13        2955.25           1292          56.00       213.17
 1273.16        2955.50           1296          58.00       221.88
 1273.20        2955.75           1299          53.00       200.09
 1273.23        2956.00           1302          62.00       239.32
 1273.26        2956.25           1306          53.00       200.09
 1273.29        2956.50           1309          58.00       221.88
 1273.32        2956.75           1312          58.00       221.88
 1273.35        2957.00           1316          56.00       213.17
 1273.38        2957.25           1319          54.00       204.45
 1273.41        2957.50           1322          61.00       234.96
 1273.44        2957.75           1326          52.00       195.73
 1273.47        2958.00           1329          61.00       234.96
 1273.50        2958.25           1332          55.00       208.81
 1273.53        2958.50           1336          56.00       213.17
 1273.57        2958.75           1339          60.00       230.60
 1273.60        2959.00           1342          58.00       221.88
 1273.63        2959.25           1346          55.00       208.81
 1273.66        2959.50           1349          60.00       230.60
 1273.69        2959.75           1352          73.00       287.27
 1273.72        2960.00           1356         101.00       409.33
 1273.75        2960.25           1359         121.00       496.52
 1273.78        2960.50           1362         164.00       683.97
 1273.81        2960.75           1366         206.00       867.07
 1273.84        2961.00           1369         258.00      1093.76
 1273.88        2961.25           1372         270.00      1146.07
 1273.91        2961.50           1376         351.00      1499.20
 1273.94        2961.75           1379         475.00      2039.79
 1273.97        2962.00           1382         958.00      4145.68
 1274.00        2962.25           1386        2552.00     11097.42
 1274.03        2962.50           1389        3947.00     17183.66
 1274.06        2962.75           1392        5271.00     22962.20
 1274.09        2963.00           1396        7191.00     31345.51
 1274.12        2963.25           1399        8525.00     37172.65
 1274.15        2963.50           1402        9988.00     43565.63
 1274.18        2963.75           1406       12145.00     52995.70
 1274.22        2964.00           1409       13748.00     60007.24
 1274.25        2964.25           1412       15194.00     66334.58
 1274.28        2964.50           1416       17141.00     74857.99
 1274.31        2964.75           1419       18637.00     81410.01
 1274.34        2965.00           1422       20219.00     88341.49
 1274.37        2965.25           1426       22168.00     96884.94
 1274.40        2965.50           1429       23468.00    102585.90
 1274.43        2965.75           1432       25021.00    109399.00
 1274.46        2966.00           1436       27003.00    118098.20
 1274.49        2966.25           1439       28459.00    124491.60
 1274.52        2966.50           1442       30158.00    131955.10
 1274.55        2966.75           1446       31647.00    138498.90
 1274.59        2967.00           1449       32149.00    140705.60
 1274.62        2967.25           1452       32563.00    142525.70
 1274.65        2967.50           1456       32527.00    142367.50
 1274.68        2967.75           1459       32392.00    141773.90
 1274.71        2968.00           1462       32371.00    141681.60
 1274.74        2968.25           1466       31764.00    139013.20
 1274.77        2968.50           1469       30606.00    133923.70
 1274.80        2968.75           1472       29273.00    128066.90
 1274.83        2969.00           1476       27182.00    118884.00
 1274.87        2969.25           1479       25667.00    112233.90
 1274.90        2969.50           1482       24056.00    105165.20
 1274.93        2969.75           1486       22296.00     97446.19
 1274.96        2970.00           1489       20851.00     91111.38
 1274.99        2970.25           1492       19364.00     84594.98
 1275.02        2970.50           1496       17451.00     76215.48
 1275.05        2970.75           1499       16112.00     70352.78
 1275.08        2971.00           1502       14528.00     63420.03
 1275.11        2971.25           1506       12547.00     54753.78
 1275.15        2971.50           1509       11166.00     48715.00
 1275.18        2971.75           1513        9044.00     39440.27
 1275.21        2972.00           1516        7410.00     32302.00
 1275.24        2972.25           1519        6070.00     26450.36
 1275.27        2972.50           1523        4046.00     17615.67
 1275.30        2972.75           1526        2662.00     11577.26
 1275.33        2973.00           1529        1298.00      5628.24
 1275.36        2973.25           1533         456.00      1956.96
 1275.39        2973.50           1536         315.00      1342.25
 1275.43        2973.75           1539         275.00      1167.87
 1275.46        2974.00           1543         224.00       945.54
 1275.49        2974.25           1546         174.00       727.57
 1275.52        2974.50           1549         138.00       570.63
 1275.55        2974.75           1553          88.00       352.66
 1275.58        2975.00           1556          69.00       269.84
 1275.61        2975.25           1559          64.00       248.04
 1275.64        2975.50           1563          61.00       234.96
 1275.67        2975.75           1566          64.00       248.04
 1275.71        2976.00           1569          57.00       217.53
 1275.74        2976.25           1573          62.00       239.32
 1275.77        2976.50           1576          54.00       204.45
 1275.80        2976.75           1579          55.00       208.81
 1275.83        2977.00           1583          58.00       221.88
 1275.86        2977.25           1586          54.00       204.45
 1275.89        2977.50           1590          53.00       200.09
 1275.92        2977.75           1593          57.00       217.53
 1275.95        2978.00           1596          62.00       239.32
 1275.98        2978.25           1600          56.00       213.17
 1276.01        2978.50           1603          60.00       230.60
 1276.04        2978.75           1606          53.00       200.09
 1276.07        2979.00           1610          58.00       221.88
 1276.10        2979.25           1613          51.00       191.37
 1276.14        2979.50           1616          43.00       156.50
 1276.17        2979.75           1620          54.00       204.45
 1276.20        2980.00           1623          57.00       217.53
 1276.23        2980.25           1626          55.00       208.81
 1276.26        2980.50           1630          53.00       200.09
 1276.29        2980.75           1633          60.00       230.60
 1276.32        2981.00           1637          55.00       208.81
 1276.35        2981.25           1640          51.00       191.37
 1276.38        2981.50           1643          50.00       187.01
 1276.41        2981.75           1647          59.00       226.24
 1276.44        2982.00           1650          62.00       239.32
 1276.47        2982.25           1653          50.00       187.01
 1276.51        2982.50           1657          54.00       204.45
 1276.54        2982.75           1660          59.00       226.24
 1276.57        2983.00           1663          49.00       182.65
 1276.60        2983.25           1667          47.00       173.93
 1276.63        2983.50           1670          57.00       217.53
 1276.66        2983.75           1673          50.00       187.01
 1276.69        2984.00           1677          53.00       200.09
HS scan finished at 21:16:54
end
