************************************************************
  HS Scan of (1) Internal mercury lamp
************************************************************
Integration time is 0.2294 seconds per sample
dh040617El Arenosillo 37.1 6.73 2.911481pr1000
************************************************************
Dead Time -------------------------  3E-08 
Number of Cycles Used -------------  4 
Starting Wavelength (Angstroms) ---  2950 
Final Wavelength (Angstoms) -------  2984 
Wavelength Increment (Angstroms) --  .25 
Filter Wheel #1 Position ---------- (1) Ground quartz diffuser (ND=2.32)
Filter Wheel #2 Position ---------- (1) Neutral Density 0.494



************************************************************
HS scan start time = 02:03:40
Dark Count =  4.4 


Time (GMT)  Wavelength (Ang)  Step Number  Raw Counts  Counts/Second

  124.03        2950.00           1222          38.00       146.47
  124.10        2950.25           1226          37.00       142.11
  124.13        2950.50           1229          45.00       176.98
  124.16        2950.75           1232          40.00       155.19
  124.19        2951.00           1236          43.00       168.27
  124.22        2951.25           1239          42.00       163.91
  124.25        2951.50           1242          40.00       155.19
  124.28        2951.75           1246          43.00       168.27
  124.31        2952.00           1249          41.00       159.55
  124.34        2952.25           1252          43.00       168.27
  124.37        2952.50           1256          45.00       176.98
  124.40        2952.75           1259          48.00       190.06
  124.44        2953.00           1262          44.00       172.63
  124.47        2953.25           1266          44.00       172.63
  124.50        2953.50           1269          41.00       159.55
  124.53        2953.75           1272          51.00       203.14
  124.56        2954.00           1276          39.00       150.83
  124.59        2954.25           1279          47.00       185.70
  124.62        2954.50           1282          47.00       185.70
  124.65        2954.75           1286          47.00       185.70
  124.68        2955.00           1289          49.00       194.42
  124.71        2955.25           1292          46.00       181.34
  124.74        2955.50           1296          49.00       194.42
  124.77        2955.75           1299          45.00       176.98
  124.80        2956.00           1302          48.00       190.06
  124.84        2956.25           1306          42.00       163.91
  124.87        2956.50           1309          47.00       185.70
  124.90        2956.75           1312          46.00       181.34
  124.93        2957.00           1316          39.00       150.83
  124.96        2957.25           1319          42.00       163.91
  124.99        2957.50           1322          43.00       168.27
  125.02        2957.75           1326          47.00       185.70
  125.05        2958.00           1329          49.00       194.42
  125.08        2958.25           1332          41.00       159.55
  125.11        2958.50           1336          45.00       176.98
  125.15        2958.75           1339          48.00       190.06
  125.18        2959.00           1342          52.00       207.50
  125.21        2959.25           1346          52.00       207.50
  125.24        2959.50           1349          61.00       246.73
  125.27        2959.75           1352          74.00       303.40
  125.30        2960.00           1356         110.00       460.34
  125.33        2960.25           1359         148.00       625.99
  125.36        2960.50           1362         189.00       804.73
  125.39        2960.75           1366         259.00      1109.89
  125.42        2961.00           1369         312.00      1340.94
  125.45        2961.25           1372         365.00      1572.00
  125.48        2961.50           1376         426.00      1837.94
  125.51        2961.75           1379         669.00      2897.37
  125.55        2962.00           1382        1422.00      6180.75
  125.58        2962.25           1386        3220.00     14023.34
  125.61        2962.50           1389        4982.00     21712.48
  125.64        2962.75           1392        6849.00     29863.71
  125.67        2963.00           1396        9402.00     41016.43
  125.70        2963.25           1399       11155.00     48678.71
  125.73        2963.50           1402       13054.00     56983.12
  125.76        2963.75           1406       15566.00     67974.57
  125.79        2964.00           1409       17424.00     76109.06
  125.82        2964.25           1412       19105.00     83472.06
  125.85        2964.50           1416       21495.00     93946.19
  125.89        2964.75           1419       23245.00    101619.70
  125.92        2965.00           1422       25109.00    109797.00
  125.95        2965.25           1426       27521.00    120384.30
  125.98        2965.50           1429       29353.00    128430.20
  126.01        2965.75           1432       31179.00    136453.70
  126.04        2966.00           1436       33812.00    148030.00
  126.07        2966.25           1439       35507.00    155486.50
  126.10        2966.50           1442       37234.00    163087.20
  126.13        2966.75           1446       38670.00    169409.80
  126.17        2967.00           1449       39106.00    171330.00
  126.20        2967.25           1452       39350.00    172404.70
  126.23        2967.50           1456       39218.00    171823.30
  126.26        2967.75           1459       39188.00    171691.10
  126.29        2968.00           1462       38916.00    170493.20
  126.32        2968.25           1466       37896.00    166001.60
  126.35        2968.50           1469       36306.00    159002.50
  126.38        2968.75           1472       34266.00    150026.90
  126.41        2969.00           1476       32169.00    140805.40
  126.44        2969.25           1479       30377.00    132929.20
  126.47        2969.50           1482       28466.00    124534.20
  126.50        2969.75           1486       25974.00    113593.10
  126.54        2970.00           1489       24154.00    105607.00
  126.57        2970.25           1492       22457.00     98163.99
  126.60        2970.50           1496       20286.00     88646.94
  126.63        2970.75           1499       18486.00     80760.40
  126.66        2971.00           1502       16628.00     72623.61
  126.69        2971.25           1506       14256.00     62241.65
  126.72        2971.50           1509       12260.00     53510.42
  126.75        2971.75           1513        9839.00     42926.22
  126.78        2972.00           1516        8041.00     35070.01
  126.82        2972.25           1519        6327.00     27584.29
  126.85        2972.50           1523        3929.00     17116.90
  126.88        2972.75           1526        2298.00     10001.26
  126.91        2973.00           1529        1020.00      4427.79
  126.94        2973.25           1533         496.00      2143.12
  126.97        2973.50           1536         382.00      1646.11
  127.00        2973.75           1539         324.00      1393.26
  127.03        2974.00           1543         264.00      1131.69
  127.06        2974.25           1546         200.00       852.68
  127.09        2974.50           1549         131.00       551.88
  127.13        2974.75           1553         101.00       421.10
  127.16        2975.00           1556          66.00       268.53
  127.19        2975.25           1559          56.00       224.94
  127.22        2975.50           1563          53.00       211.86
  127.25        2975.75           1566          42.00       163.91
  127.28        2976.00           1569          50.00       198.78
  127.31        2976.25           1573          44.00       172.63
  127.34        2976.50           1576          45.00       176.98
  127.37        2976.75           1579          46.00       181.34
  127.40        2977.00           1583          45.00       176.98
  127.43        2977.25           1586          53.00       211.86
  127.46        2977.50           1590          48.00       190.06
  127.49        2977.75           1593          47.00       185.70
  127.52        2978.00           1596          40.00       155.19
  127.55        2978.25           1600          47.00       185.70
  127.59        2978.50           1603          48.00       190.06
  127.62        2978.75           1606          50.00       198.78
  127.65        2979.00           1610          42.00       163.91
  127.68        2979.25           1613          45.00       176.98
  127.71        2979.50           1616          42.00       163.91
  127.74        2979.75           1620          43.00       168.27
  127.77        2980.00           1623          34.00       129.03
  127.80        2980.25           1626          44.00       172.63
  127.83        2980.50           1630          47.00       185.70
  127.86        2980.75           1633          45.00       176.98
  127.90        2981.00           1637          37.00       142.11
  127.93        2981.25           1640          42.00       163.91
  127.96        2981.50           1643          45.00       176.98
  127.99        2981.75           1647          40.00       155.19
  128.02        2982.00           1650          53.00       211.86
  128.05        2982.25           1653          46.00       181.34
  128.08        2982.50           1657          48.00       190.06
  128.11        2982.75           1660          45.00       176.98
  128.14        2983.00           1663          40.00       155.19
  128.17        2983.25           1667          40.00       155.19
  128.20        2983.50           1670          49.00       194.42
  128.23        2983.75           1673          44.00       172.63
  128.27        2984.00           1677          45.00       176.98
HS scan finished at 02:08:29
end
************************************************************
  HS Scan of (1) Internal mercury lamp
************************************************************
Integration time is 0.2294 seconds per sample
dh040617El Arenosillo 37.1 6.73 3.287017pr1000
************************************************************
Dead Time -------------------------  3E-08 
Number of Cycles Used -------------  4 
Starting Wavelength (Angstroms) ---  2950 
Final Wavelength (Angstoms) -------  2984 
Wavelength Increment (Angstroms) --  .25 
Filter Wheel #1 Position ---------- (1) Ground quartz diffuser (ND=2.32)
Filter Wheel #2 Position ---------- (1) Neutral Density 0.494



************************************************************
HS scan start time = 20:39:10
Dark Count =  6.1 


Time (GMT)  Wavelength (Ang)  Step Number  Raw Counts  Counts/Second

 1239.54        2950.00           1222          46.00       173.93
 1239.61        2950.25           1226          45.00       169.57
 1239.64        2950.50           1229          46.00       173.93
 1239.67        2950.75           1232          48.00       182.65
 1239.70        2951.00           1236          45.00       169.57
 1239.73        2951.25           1239          48.00       182.65
 1239.76        2951.50           1242          41.00       152.14
 1239.79        2951.75           1246          44.00       165.21
 1239.83        2952.00           1249          38.00       139.06
 1239.86        2952.25           1252          40.00       147.78
 1239.89        2952.50           1256          43.00       160.86
 1239.92        2952.75           1259          42.00       156.50
 1239.95        2953.00           1262          47.00       178.29
 1239.98        2953.25           1266          34.00       121.62
 1240.01        2953.50           1269          39.00       143.42
 1240.04        2953.75           1272          36.00       130.34
 1240.07        2954.00           1276          41.00       152.14
 1240.10        2954.25           1279          48.00       182.65
 1240.13        2954.50           1282          42.00       156.50
 1240.16        2954.75           1286          43.00       160.86
 1240.19        2955.00           1289          46.00       173.93
 1240.23        2955.25           1292          35.00       125.98
 1240.26        2955.50           1296          42.00       156.50
 1240.29        2955.75           1299          46.00       173.93
 1240.32        2956.00           1302          42.00       156.50
 1240.35        2956.25           1306          39.00       143.42
 1240.38        2956.50           1309          42.00       156.50
 1240.41        2956.75           1312          39.00       143.42
 1240.44        2957.00           1316          35.00       125.98
 1240.47        2957.25           1319          45.00       169.57
 1240.50        2957.50           1322          51.00       195.73
 1240.53        2957.75           1326          40.00       147.78
 1240.57        2958.00           1329          43.00       160.86
 1240.60        2958.25           1332          44.00       165.21
 1240.63        2958.50           1336          43.00       160.86
 1240.66        2958.75           1339          37.00       134.70
 1240.69        2959.00           1342          45.00       169.57
 1240.72        2959.25           1346          47.00       178.29
 1240.75        2959.50           1349          65.00       256.76
 1240.78        2959.75           1352          81.00       326.51
 1240.81        2960.00           1356         125.00       518.32
 1240.84        2960.25           1359         173.00       727.57
 1240.88        2960.50           1362         213.00       901.94
 1240.91        2960.75           1366         311.00      1329.17
 1240.94        2961.00           1369         369.00      1582.03
 1240.97        2961.25           1372         401.00      1721.54
 1241.00        2961.50           1376         532.00      2292.66
 1241.03        2961.75           1379         712.00      3077.44
 1241.06        2962.00           1382        1489.00      6465.51
 1241.09        2962.25           1386        3685.00     16044.78
 1241.12        2962.50           1389        5519.00     24049.17
 1241.15        2962.75           1392        7743.00     33760.86
 1241.18        2963.00           1396       10527.00     45925.92
 1241.21        2963.25           1399       12597.00     54976.83
 1241.25        2963.50           1402       14747.00     64382.74
 1241.28        2963.75           1406       17514.00     76495.75
 1241.31        2964.00           1409       19497.00     85182.09
 1241.34        2964.25           1412       21617.00     94473.58
 1241.37        2964.50           1416       24452.00    106906.90
 1241.40        2964.75           1419       26715.00    116838.20
 1241.43        2965.00           1422       28826.00    126107.90
 1241.46        2965.25           1426       31503.00    137870.30
 1241.49        2965.50           1429       33742.00    147714.60
 1241.52        2965.75           1432       35831.00    156904.70
 1241.55        2966.00           1436       38325.00    167883.10
 1241.59        2966.25           1439       40151.00    175925.60
 1241.62        2966.50           1442       42097.00    184501.00
 1241.65        2966.75           1446       44248.00    193984.80
 1241.68        2967.00           1449       45111.00    197791.40
 1241.71        2967.25           1452       45216.00    198254.60
 1241.74        2967.50           1456       45124.00    197848.70
 1241.77        2967.75           1459       45039.00    197473.70
 1241.80        2968.00           1462       45020.00    197389.90
 1241.83        2968.25           1466       43857.00    192260.50
 1241.87        2968.50           1469       42324.00    185501.60
 1241.90        2968.75           1472       40116.00    175771.40
 1241.93        2969.00           1476       37522.00    164347.60
 1241.96        2969.25           1479       35456.00    155254.60
 1241.99        2969.50           1482       33468.00    146509.60
 1242.02        2969.75           1486       30771.00    134653.10
 1242.05        2970.00           1489       28776.00    125888.20
 1242.08        2970.25           1492       26886.00    117588.90
 1242.11        2970.50           1496       23727.00    103726.40
 1242.15        2970.75           1499       21775.00     95166.26
 1242.18        2971.00           1502       19547.00     85401.18
 1242.21        2971.25           1506       16858.00     73623.21
 1242.24        2971.50           1509       14856.00     64859.74
 1242.27        2971.75           1513       12097.00     52790.17
 1242.30        2972.00           1516       10001.00     43626.81
 1242.33        2972.25           1519        8003.00     34896.59
 1242.36        2972.50           1523        5195.00     22634.81
 1242.39        2972.75           1526        3301.00     14369.32
 1242.42        2973.00           1529        1599.00      6945.21
 1242.46        2973.25           1533         551.00      2375.50
 1242.49        2973.50           1536         381.00      1634.34
 1242.52        2973.75           1539         289.00      1233.26
 1242.55        2974.00           1543         234.00       993.49
 1242.58        2974.25           1546         159.00       666.53
 1242.61        2974.50           1549         125.00       518.32
 1242.64        2974.75           1553          67.00       265.48
 1242.67        2975.00           1556          54.00       208.81
 1242.70        2975.25           1559          50.00       191.37
 1242.73        2975.50           1563          45.00       169.57
 1242.76        2975.75           1566          55.00       213.17
 1242.79        2976.00           1569          40.00       147.78
 1242.82        2976.25           1573          43.00       160.86
 1242.85        2976.50           1576          45.00       169.57
 1242.88        2976.75           1579          48.00       182.65
 1242.92        2977.00           1583          42.00       156.50
 1242.95        2977.25           1586          44.00       165.21
 1242.98        2977.50           1590          48.00       182.65
 1243.01        2977.75           1593          43.00       160.86
 1243.04        2978.00           1596          41.00       152.14
 1243.07        2978.25           1600          40.00       147.78
 1243.10        2978.50           1603          43.00       160.86
 1243.13        2978.75           1606          41.00       152.14
 1243.16        2979.00           1610          41.00       152.14
 1243.19        2979.25           1613          44.00       165.21
 1243.23        2979.50           1616          38.00       139.06
 1243.26        2979.75           1620          41.00       152.14
 1243.29        2980.00           1623          40.00       147.78
 1243.32        2980.25           1626          45.00       169.57
 1243.35        2980.50           1630          36.00       130.34
 1243.38        2980.75           1633          44.00       165.21
 1243.41        2981.00           1637          45.00       169.57
 1243.44        2981.25           1640          46.00       173.93
 1243.47        2981.50           1643          43.00       160.86
 1243.50        2981.75           1647          42.00       156.50
 1243.53        2982.00           1650          36.00       130.34
 1243.56        2982.25           1653          47.00       178.29
 1243.60        2982.50           1657          44.00       165.21
 1243.63        2982.75           1660          34.00       121.62
 1243.66        2983.00           1663          47.00       178.29
 1243.69        2983.25           1667          40.00       147.78
 1243.72        2983.50           1670          47.00       178.29
 1243.75        2983.75           1673          39.00       143.42
 1243.78        2984.00           1677          46.00       173.93
HS scan finished at 20:44:00
end
