************************************************************
  HS Scan of (1) Internal mercury lamp
************************************************************
Integration time is 0.2294 seconds per sample
dh070617El Arenosillo 37.1 6.73 3.072425pr1000
************************************************************
Dead Time -------------------------  3E-08 
Number of Cycles Used -------------  4 
Starting Wavelength (Angstroms) ---  2950 
Final Wavelength (Angstoms) -------  2984 
Wavelength Increment (Angstroms) --  .25 
Filter Wheel #1 Position ---------- (1) Ground quartz diffuser (ND=2.32)
Filter Wheel #2 Position ---------- (1) Neutral Density 0.494



************************************************************
HS scan start time = 02:40:24
Dark Count =  7.2 


Time (GMT)  Wavelength (Ang)  Step Number  Raw Counts  Counts/Second

  160.77        2950.00           1222          45.00       164.78
  160.84        2950.25           1226          41.00       147.34
  160.87        2950.50           1229          37.00       129.90
  160.90        2950.75           1232          43.00       156.06
  160.93        2951.00           1236          42.00       151.70
  160.96        2951.25           1239          43.00       156.06
  160.99        2951.50           1242          36.00       125.55
  161.03        2951.75           1246          40.00       142.98
  161.06        2952.00           1249          43.00       156.06
  161.09        2952.25           1252          41.00       147.34
  161.12        2952.50           1256          38.00       134.26
  161.15        2952.75           1259          39.00       138.62
  161.18        2953.00           1262          41.00       147.34
  161.21        2953.25           1266          38.00       134.26
  161.24        2953.50           1269          42.00       151.70
  161.27        2953.75           1272          51.00       190.93
  161.30        2954.00           1276          46.00       169.14
  161.33        2954.25           1279          43.00       156.06
  161.37        2954.50           1282          48.00       177.86
  161.40        2954.75           1286          42.00       151.70
  161.43        2955.00           1289          46.00       169.14
  161.46        2955.25           1292          43.00       156.06
  161.49        2955.50           1296          48.00       177.86
  161.52        2955.75           1299          47.00       173.50
  161.55        2956.00           1302          42.00       151.70
  161.58        2956.25           1306          43.00       156.06
  161.61        2956.50           1309          43.00       156.06
  161.64        2956.75           1312          48.00       177.86
  161.67        2957.00           1316          43.00       156.06
  161.70        2957.25           1319          45.00       164.78
  161.73        2957.50           1322          48.00       177.86
  161.76        2957.75           1326          42.00       151.70
  161.79        2958.00           1329          52.00       195.29
  161.83        2958.25           1332          41.00       147.34
  161.86        2958.50           1336          44.00       160.42
  161.89        2958.75           1339          42.00       151.70
  161.92        2959.00           1342          43.00       156.06
  161.95        2959.25           1346          58.00       221.45
  161.98        2959.50           1349          81.00       321.71
  162.01        2959.75           1352         108.00       439.41
  162.04        2960.00           1356         157.00       653.02
  162.07        2960.25           1359         204.00       857.91
  162.10        2960.50           1362         247.00      1045.37
  162.13        2960.75           1366         327.00      1394.13
  162.16        2961.00           1369         372.00      1590.31
  162.19        2961.25           1372         429.00      1838.81
  162.22        2961.50           1376         592.00      2549.45
  162.25        2961.75           1379         994.00      4302.21
  162.29        2962.00           1382        2155.00      9365.32
  162.32        2962.25           1386        4584.00     19963.13
  162.35        2962.50           1389        6533.00     28471.56
  162.38        2962.75           1392        8303.00     36202.33
  162.41        2963.00           1396       10937.00     47713.41
  162.44        2963.25           1399       12753.00     55654.32
  162.47        2963.50           1402       14532.00     63437.10
  162.50        2963.75           1406       17072.00     74555.41
  162.53        2964.00           1409       18970.00     82868.36
  162.56        2964.25           1412       21054.00     92000.75
  162.59        2964.50           1416       23868.00    104340.10
  162.63        2964.75           1419       25690.00    112334.40
  162.66        2965.00           1422       27576.00    120613.50
  162.69        2965.25           1426       30270.00    132446.80
  162.72        2965.50           1429       32411.00    141857.00
  162.75        2965.75           1432       34351.00    150388.40
  162.78        2966.00           1436       36875.00    161494.60
  162.81        2966.25           1439       38417.00    168283.40
  162.84        2966.50           1442       40175.00    176026.50
  162.87        2966.75           1446       41733.00    182891.80
  162.90        2967.00           1449       41967.00    183923.10
  162.93        2967.25           1452       42309.00    185430.60
  162.96        2967.50           1456       42209.00    184989.80
  163.00        2967.75           1459       41972.00    183945.10
  163.03        2968.00           1462       41461.00    181693.00
  163.06        2968.25           1466       39849.00    174590.40
  163.09        2968.50           1469       38239.00    167499.60
  163.12        2968.75           1472       36140.00    158259.60
  163.15        2969.00           1476       33732.00    147665.80
  163.18        2969.25           1479       31863.00    139447.90
  163.21        2969.50           1482       29963.00    131097.90
  163.24        2969.75           1486       27569.00    120582.80
  163.27        2970.00           1489       25559.00    111759.40
  163.30        2970.25           1492       23745.00    103800.50
  163.34        2970.50           1496       21371.00     93390.32
  163.37        2970.75           1499       19050.00     83218.84
  163.40        2971.00           1502       17163.00     74953.88
  163.43        2971.25           1506       14677.00     64071.60
  163.46        2971.50           1509       12647.00     55190.70
  163.49        2971.75           1513       10026.00     43731.27
  163.52        2972.00           1516        8135.00     35468.41
  163.55        2972.25           1519        6163.00     26855.98
  163.58        2972.50           1523        3756.00     16349.78
  163.62        2972.75           1526        2018.00      8767.78
  163.65        2973.00           1529         866.00      3744.10
  163.68        2973.25           1533         427.00      1830.09
  163.71        2973.50           1536         310.00      1320.02
  163.74        2973.75           1539         247.00      1045.37
  163.77        2974.00           1543         197.00       827.40
  163.80        2974.25           1546         118.00       483.01
  163.83        2974.50           1549          98.00       395.82
  163.86        2974.75           1553          66.00       256.32
  163.89        2975.00           1556          46.00       169.14
  163.92        2975.25           1559          54.00       204.01
  163.95        2975.50           1563          48.00       177.86
  163.98        2975.75           1566          44.00       160.42
  164.01        2976.00           1569          51.00       190.93
  164.05        2976.25           1573          47.00       173.50
  164.08        2976.50           1576          38.00       134.26
  164.11        2976.75           1579          52.00       195.29
  164.14        2977.00           1583          53.00       199.65
  164.17        2977.25           1586          42.00       151.70
  164.20        2977.50           1590          40.00       142.98
  164.23        2977.75           1593          43.00       156.06
  164.26        2978.00           1596          47.00       173.50
  164.29        2978.25           1600          41.00       147.34
  164.32        2978.50           1603          49.00       182.22
  164.35        2978.75           1606          47.00       173.50
  164.39        2979.00           1610          51.00       190.93
  164.42        2979.25           1613          45.00       164.78
  164.45        2979.50           1616          48.00       177.86
  164.48        2979.75           1620          38.00       134.26
  164.51        2980.00           1623          39.00       138.62
  164.54        2980.25           1626          43.00       156.06
  164.57        2980.50           1630          49.00       182.22
  164.60        2980.75           1633          43.00       156.06
  164.63        2981.00           1637          50.00       186.57
  164.66        2981.25           1640          46.00       169.14
  164.69        2981.50           1643          39.00       138.62
  164.73        2981.75           1647          48.00       177.86
  164.76        2982.00           1650          40.00       142.98
  164.79        2982.25           1653          41.00       147.34
  164.82        2982.50           1657          41.00       147.34
  164.85        2982.75           1660          41.00       147.34
  164.88        2983.00           1663          45.00       164.78
  164.91        2983.25           1667          45.00       164.78
  164.94        2983.50           1670          42.00       151.70
  164.97        2983.75           1673          52.00       195.29
  165.00        2984.00           1677          41.00       147.34
HS scan finished at 02:45:13
end
************************************************************
  HS Scan of (1) Internal mercury lamp
************************************************************
Integration time is 0.2294 seconds per sample
dh070617El Arenosillo 37.1 6.73 3.340665pr1000
************************************************************
Dead Time -------------------------  3E-08 
Number of Cycles Used -------------  4 
Starting Wavelength (Angstroms) ---  2950 
Final Wavelength (Angstoms) -------  2984 
Wavelength Increment (Angstroms) --  .25 
Filter Wheel #1 Position ---------- (1) Ground quartz diffuser (ND=2.32)
Filter Wheel #2 Position ---------- (1) Neutral Density 0.494



************************************************************
HS scan start time = 20:38:37
Dark Count =  4.2 


Time (GMT)  Wavelength (Ang)  Step Number  Raw Counts  Counts/Second

 1238.98        2950.00           1222          38.00       147.34
 1239.05        2950.25           1226          44.00       173.50
 1239.08        2950.50           1229          52.00       208.37
 1239.11        2950.75           1232          43.00       169.14
 1239.14        2951.00           1236          41.00       160.42
 1239.17        2951.25           1239          35.00       134.26
 1239.20        2951.50           1242          43.00       169.14
 1239.23        2951.75           1246          44.00       173.50
 1239.26        2952.00           1249          35.00       134.26
 1239.29        2952.25           1252          34.00       129.90
 1239.33        2952.50           1256          43.00       169.14
 1239.36        2952.75           1259          37.00       142.98
 1239.39        2953.00           1262          36.00       138.62
 1239.42        2953.25           1266          45.00       177.86
 1239.45        2953.50           1269          42.00       164.78
 1239.48        2953.75           1272          40.00       156.06
 1239.51        2954.00           1276          45.00       177.86
 1239.54        2954.25           1279          44.00       173.50
 1239.57        2954.50           1282          42.00       164.78
 1239.60        2954.75           1286          41.00       160.42
 1239.63        2955.00           1289          36.00       138.62
 1239.66        2955.25           1292          47.00       186.57
 1239.69        2955.50           1296          43.00       169.14
 1239.72        2955.75           1299          37.00       142.98
 1239.75        2956.00           1302          46.00       182.22
 1239.79        2956.25           1306          43.00       169.14
 1239.82        2956.50           1309          47.00       186.57
 1239.85        2956.75           1312          38.00       147.34
 1239.88        2957.00           1316          41.00       160.42
 1239.91        2957.25           1319          43.00       169.14
 1239.94        2957.50           1322          42.00       164.78
 1239.97        2957.75           1326          51.00       204.01
 1240.00        2958.00           1329          47.00       186.57
 1240.03        2958.25           1332          43.00       169.14
 1240.06        2958.50           1336          45.00       177.86
 1240.09        2958.75           1339          47.00       186.57
 1240.12        2959.00           1342          45.00       177.86
 1240.15        2959.25           1346          50.00       199.65
 1240.19        2959.50           1349          67.00       273.76
 1240.22        2959.75           1352          81.00       334.79
 1240.25        2960.00           1356         137.00       578.91
 1240.28        2960.25           1359         187.00       796.88
 1240.31        2960.50           1362         244.00      1045.37
 1240.34        2960.75           1366         306.00      1315.66
 1240.37        2961.00           1369         377.00      1625.19
 1240.40        2961.25           1372         431.00      1860.61
 1240.43        2961.50           1376         507.00      2191.95
 1240.46        2961.75           1379         711.00      3081.37
 1240.50        2962.00           1382        1373.00      5967.94
 1240.53        2962.25           1386        3294.00     14347.06
 1240.56        2962.50           1389        5167.00     22520.88
 1240.59        2962.75           1392        7215.00     31462.99
 1240.62        2963.00           1396       10144.00     44260.13
 1240.65        2963.25           1399       12226.00     53362.61
 1240.68        2963.50           1402       14296.00     62417.56
 1240.71        2963.75           1406       17056.00     74498.50
 1240.74        2964.00           1409       19201.00     83893.53
 1240.77        2964.25           1412       21284.00     93022.09
 1240.80        2964.50           1416       24365.00    106533.50
 1240.84        2964.75           1419       26477.00    115801.80
 1240.87        2965.00           1422       28626.00    125237.70
 1240.90        2965.25           1426       31382.00    137346.80
 1240.93        2965.50           1429       33613.00    147155.60
 1240.96        2965.75           1432       35861.00    157045.10
 1240.99        2966.00           1436       38632.00    169243.40
 1241.02        2966.25           1439       40597.00    177899.00
 1241.05        2966.50           1442       42647.00    186933.80
 1241.08        2966.75           1446       44788.00    196374.90
 1241.11        2967.00           1449       45610.00    200001.10
 1241.15        2967.25           1452       45496.00    199498.20
 1241.18        2967.50           1456       45664.00    200239.40
 1241.21        2967.75           1459       45557.00    199767.30
 1241.24        2968.00           1462       45388.00    199021.70
 1241.27        2968.25           1466       44850.00    196648.40
 1241.30        2968.50           1469       43077.00    188829.50
 1241.33        2968.75           1472       41012.00    179727.60
 1241.36        2969.00           1476       38043.00    166649.80
 1241.40        2969.25           1479       35991.00    157617.10
 1241.43        2969.50           1482       33917.00    148492.60
 1241.46        2969.75           1486       30971.00    135540.40
 1241.49        2970.00           1489       28886.00    126379.70
 1241.52        2970.25           1492       26889.00    117610.40
 1241.55        2970.50           1496       24277.00    106147.40
 1241.58        2970.75           1499       22371.00     97787.77
 1241.61        2971.00           1502       20224.00     88376.12
 1241.64        2971.25           1506       17556.00     76688.00
 1241.67        2971.50           1509       15517.00     67760.98
 1241.71        2971.75           1513       12674.00     55321.91
 1241.74        2972.00           1516       10405.00     45400.94
 1241.77        2972.25           1519        8238.00     35931.48
 1241.80        2972.50           1523        5327.00     23219.31
 1241.83        2972.75           1526        3420.00     14896.81
 1241.86        2973.00           1529        1759.00      7651.28
 1241.89        2973.25           1533         594.00      2571.25
 1241.92        2973.50           1536         371.00      1599.03
 1241.95        2973.75           1539         304.00      1306.94
 1241.98        2974.00           1543         223.00       953.82
 1242.02        2974.25           1546         150.00       635.58
 1242.05        2974.50           1549         105.00       439.41
 1242.08        2974.75           1553          66.00       269.40
 1242.11        2975.00           1556          49.00       195.29
 1242.14        2975.25           1559          47.00       186.57
 1242.17        2975.50           1563          45.00       177.86
 1242.20        2975.75           1566          52.00       208.37
 1242.23        2976.00           1569          46.00       182.22
 1242.26        2976.25           1573          47.00       186.57
 1242.29        2976.50           1576          44.00       173.50
 1242.33        2976.75           1579          44.00       173.50
 1242.36        2977.00           1583          46.00       182.22
 1242.39        2977.25           1586          42.00       164.78
 1242.42        2977.50           1590          42.00       164.78
 1242.45        2977.75           1593          40.00       156.06
 1242.48        2978.00           1596          47.00       186.57
 1242.51        2978.25           1600          41.00       160.42
 1242.54        2978.50           1603          42.00       164.78
 1242.57        2978.75           1606          40.00       156.06
 1242.60        2979.00           1610          39.00       151.70
 1242.63        2979.25           1613          38.00       147.34
 1242.66        2979.50           1616          50.00       199.65
 1242.70        2979.75           1620          39.00       151.70
 1242.73        2980.00           1623          44.00       173.50
 1242.76        2980.25           1626          45.00       177.86
 1242.79        2980.50           1630          52.00       208.37
 1242.82        2980.75           1633          53.00       212.73
 1242.85        2981.00           1637          42.00       164.78
 1242.88        2981.25           1640          42.00       164.78
 1242.91        2981.50           1643          41.00       160.42
 1242.94        2981.75           1647          32.00       121.19
 1242.97        2982.00           1650          40.00       156.06
 1243.00        2982.25           1653          39.00       151.70
 1243.03        2982.50           1657          46.00       182.22
 1243.06        2982.75           1660          42.00       164.78
 1243.09        2983.00           1663          42.00       164.78
 1243.13        2983.25           1667          37.00       142.98
 1243.16        2983.50           1670          34.00       129.90
 1243.19        2983.75           1673          42.00       164.78
 1243.22        2984.00           1677          39.00       151.70
HS scan finished at 20:43:26
end
