************************************************************
  HS Scan of (1) Internal mercury lamp
************************************************************
Integration time is 0.2294 seconds per sample
dh310517El Arenosillo 37.1 6.73 3.072425pr1000
************************************************************
Dead Time -------------------------  3E-08 
Number of Cycles Used -------------  4 
Starting Wavelength (Angstroms) ---  2950 
Final Wavelength (Angstoms) -------  2984 
Wavelength Increment (Angstroms) --  .25 
Filter Wheel #1 Position ---------- (1) Ground quartz diffuser (ND=2.32)
Filter Wheel #2 Position ---------- (1) Neutral Density 0.494



************************************************************
HS scan start time = 02:40:28
Dark Count =  7 


Time (GMT)  Wavelength (Ang)  Step Number  Raw Counts  Counts/Second

  160.83        2950.00           1222          41.00       148.21
  160.90        2950.25           1226          40.00       143.85
  160.93        2950.50           1229          37.00       130.78
  160.96        2950.75           1232          40.00       143.85
  160.99        2951.00           1236          37.00       130.78
  161.02        2951.25           1239          45.00       165.65
  161.06        2951.50           1242          42.00       152.57
  161.09        2951.75           1246          44.00       161.29
  161.12        2952.00           1249          45.00       165.65
  161.15        2952.25           1252          42.00       152.57
  161.18        2952.50           1256          39.00       139.49
  161.21        2952.75           1259          48.00       178.73
  161.24        2953.00           1262          44.00       161.29
  161.27        2953.25           1266          50.00       187.45
  161.30        2953.50           1269          53.00       200.52
  161.33        2953.75           1272          47.00       174.37
  161.37        2954.00           1276          41.00       148.21
  161.40        2954.25           1279          42.00       152.57
  161.43        2954.50           1282          43.00       156.93
  161.46        2954.75           1286          42.00       152.57
  161.49        2955.00           1289          39.00       139.49
  161.52        2955.25           1292          42.00       152.57
  161.55        2955.50           1296          48.00       178.73
  161.58        2955.75           1299          36.00       126.42
  161.61        2956.00           1302          48.00       178.73
  161.64        2956.25           1306          37.00       130.78
  161.67        2956.50           1309          44.00       161.29
  161.70        2956.75           1312          43.00       156.93
  161.73        2957.00           1316          45.00       165.65
  161.76        2957.25           1319          42.00       152.57
  161.79        2957.50           1322          42.00       152.57
  161.82        2957.75           1326          46.00       170.01
  161.85        2958.00           1329          48.00       178.73
  161.89        2958.25           1332          48.00       178.73
  161.92        2958.50           1336          45.00       165.65
  161.95        2958.75           1339          39.00       139.49
  161.98        2959.00           1342          50.00       187.45
  162.01        2959.25           1346          43.00       156.93
  162.04        2959.50           1349          61.00       235.40
  162.07        2959.75           1352          88.00       353.10
  162.10        2960.00           1356         124.00       510.03
  162.13        2960.25           1359         189.00       793.39
  162.16        2960.50           1362         224.00       945.97
  162.19        2960.75           1366         284.00      1207.54
  162.22        2961.00           1369         342.00      1460.40
  162.25        2961.25           1372         394.00      1687.10
  162.29        2961.50           1376         563.00      2423.89
  162.32        2961.75           1379         965.00      4176.63
  162.35        2962.00           1382        2132.00      9265.87
  162.38        2962.25           1386        4400.00     19160.97
  162.41        2962.50           1389        6338.00     27620.96
  162.44        2962.75           1392        8139.00     35486.76
  162.47        2963.00           1396       10731.00     46813.74
  162.50        2963.25           1399       12625.00     55095.35
  162.53        2963.50           1402       14538.00     63464.23
  162.56        2963.75           1406       17096.00     74661.38
  162.59        2964.00           1409       19033.00     83145.24
  162.62        2964.25           1412       21151.00     92426.81
  162.65        2964.50           1416       23803.00    104055.80
  162.69        2964.75           1419       25561.00    111769.10
  162.72        2965.00           1422       27769.00    121461.90
  162.75        2965.25           1426       30046.00    131463.40
  162.78        2965.50           1429       31959.00    139870.80
  162.81        2965.75           1432       34284.00    150094.60
  162.84        2966.00           1436       36664.00    160566.70
  162.87        2966.25           1439       38578.00    168993.20
  162.90        2966.50           1442       40275.00    176467.90
  162.94        2966.75           1446       41629.00    182434.30
  162.97        2967.00           1449       42052.00    184298.70
  163.00        2967.25           1452       41995.00    184047.40
  163.03        2967.50           1456       42024.00    184175.20
  163.06        2967.75           1459       41924.00    183734.50
  163.09        2968.00           1462       41531.00    182002.40
  163.12        2968.25           1466       40076.00    175591.30
  163.15        2968.50           1469       38404.00    168227.00
  163.18        2968.75           1472       36477.00    159743.70
  163.22        2969.00           1476       33990.00    148801.40
  163.25        2969.25           1479       32014.00    140112.60
  163.28        2969.50           1482       29860.00    130646.20
  163.31        2969.75           1486       27385.00    119775.70
  163.34        2970.00           1489       25438.00    111229.30
  163.37        2970.25           1492       23668.00    103463.60
  163.40        2970.50           1496       21208.00     92676.66
  163.43        2970.75           1499       19248.00     84087.18
  163.46        2971.00           1502       17425.00     76102.06
  163.49        2971.25           1506       14680.00     64085.60
  163.53        2971.50           1509       12691.00     55384.01
  163.56        2971.75           1513       10248.00     44702.46
  163.59        2972.00           1516        8153.00     35547.92
  163.62        2972.25           1519        6257.00     27267.29
  163.65        2972.50           1523        3788.00     16490.28
  163.68        2972.75           1526        2112.00      9178.64
  163.71        2973.00           1529         913.00      3949.90
  163.74        2973.25           1533         474.00      2035.87
  163.77        2973.50           1536         371.00      1586.82
  163.80        2973.75           1539         325.00      1386.28
  163.83        2974.00           1543         256.00      1085.48
  163.87        2974.25           1546         190.00       797.75
  163.90        2974.50           1549         145.00       601.58
  163.93        2974.75           1553          92.00       370.54
  163.96        2975.00           1556          61.00       235.40
  163.99        2975.25           1559          54.00       204.88
  164.02        2975.50           1563          52.00       196.17
  164.05        2975.75           1566          42.00       152.57
  164.08        2976.00           1569          43.00       156.93
  164.11        2976.25           1573          50.00       187.45
  164.14        2976.50           1576          48.00       178.73
  164.17        2976.75           1579          50.00       187.45
  164.20        2977.00           1583          48.00       178.73
  164.24        2977.25           1586          47.00       174.37
  164.27        2977.50           1590          52.00       196.17
  164.30        2977.75           1593          46.00       170.01
  164.33        2978.00           1596          48.00       178.73
  164.36        2978.25           1600          47.00       174.37
  164.39        2978.50           1603          45.00       165.65
  164.42        2978.75           1606          43.00       156.93
  164.45        2979.00           1610          45.00       165.65
  164.48        2979.25           1613          52.00       196.17
  164.51        2979.50           1616          46.00       170.01
  164.54        2979.75           1620          44.00       161.29
  164.57        2980.00           1623          44.00       161.29
  164.60        2980.25           1626          44.00       161.29
  164.64        2980.50           1630          49.00       183.09
  164.67        2980.75           1633          43.00       156.93
  164.70        2981.00           1637          42.00       152.57
  164.73        2981.25           1640          45.00       165.65
  164.76        2981.50           1643          46.00       170.01
  164.79        2981.75           1647          42.00       152.57
  164.82        2982.00           1650          42.00       152.57
  164.85        2982.25           1653          50.00       187.45
  164.88        2982.50           1657          44.00       161.29
  164.91        2982.75           1660          43.00       156.93
  164.94        2983.00           1663          43.00       156.93
  164.97        2983.25           1667          43.00       156.93
  165.00        2983.50           1670          51.00       191.81
  165.04        2983.75           1673          39.00       139.49
  165.07        2984.00           1677          42.00       152.57
HS scan finished at 02:45:17
end
************************************************************
  HS Scan of (1) Internal mercury lamp
************************************************************
Integration time is 0.2294 seconds per sample
dh310517El Arenosillo 37.1 6.73 3.126073pr1000
************************************************************
Dead Time -------------------------  3E-08 
Number of Cycles Used -------------  4 
Starting Wavelength (Angstroms) ---  2950 
Final Wavelength (Angstoms) -------  2984 
Wavelength Increment (Angstroms) --  .25 
Filter Wheel #1 Position ---------- (1) Ground quartz diffuser (ND=2.32)
Filter Wheel #2 Position ---------- (1) Neutral Density 0.494



************************************************************
HS scan start time = 21:36:11
Dark Count =  8 


Time (GMT)  Wavelength (Ang)  Step Number  Raw Counts  Counts/Second

 1296.56        2950.00           1222          53.00       196.17
 1296.63        2950.25           1226          41.00       143.85
 1296.66        2950.50           1229          45.00       161.29
 1296.69        2950.75           1232          47.00       170.01
 1296.72        2951.00           1236          43.00       152.57
 1296.75        2951.25           1239          40.00       139.49
 1296.78        2951.50           1242          39.00       135.14
 1296.81        2951.75           1246          39.00       135.14
 1296.84        2952.00           1249          46.00       165.65
 1296.88        2952.25           1252          42.00       148.21
 1296.91        2952.50           1256          42.00       148.21
 1296.94        2952.75           1259          36.00       122.06
 1296.97        2953.00           1262          41.00       143.85
 1297.00        2953.25           1266          41.00       143.85
 1297.03        2953.50           1269          44.00       156.93
 1297.06        2953.75           1272          38.00       130.78
 1297.09        2954.00           1276          45.00       161.29
 1297.12        2954.25           1279          41.00       143.85
 1297.15        2954.50           1282          43.00       152.57
 1297.18        2954.75           1286          46.00       165.65
 1297.21        2955.00           1289          39.00       135.14
 1297.24        2955.25           1292          37.00       126.42
 1297.27        2955.50           1296          46.00       165.65
 1297.31        2955.75           1299          43.00       152.57
 1297.34        2956.00           1302          55.00       204.88
 1297.37        2956.25           1306          46.00       165.65
 1297.40        2956.50           1309          47.00       170.01
 1297.43        2956.75           1312          47.00       170.01
 1297.46        2957.00           1316          37.00       126.42
 1297.49        2957.25           1319          41.00       143.85
 1297.52        2957.50           1322          53.00       196.17
 1297.55        2957.75           1326          45.00       161.29
 1297.58        2958.00           1329          40.00       139.49
 1297.61        2958.25           1332          41.00       143.85
 1297.64        2958.50           1336          47.00       170.01
 1297.68        2958.75           1339          46.00       165.65
 1297.71        2959.00           1342          39.00       135.14
 1297.74        2959.25           1346          43.00       152.57
 1297.77        2959.50           1349          60.00       226.68
 1297.80        2959.75           1352          83.00       326.94
 1297.83        2960.00           1356         111.00       449.00
 1297.86        2960.25           1359         160.00       662.61
 1297.89        2960.50           1362         202.00       845.71
 1297.92        2960.75           1366         299.00      1268.57
 1297.96        2961.00           1369         335.00      1425.52
 1297.99        2961.25           1372         380.00      1621.70
 1298.02        2961.50           1376         496.00      2127.42
 1298.05        2961.75           1379         709.00      3056.08
 1298.08        2962.00           1382        1426.00      6182.49
 1298.11        2962.25           1386        3489.00     15181.28
 1298.14        2962.50           1389        5340.00     23259.47
 1298.17        2962.75           1392        7289.00     31769.59
 1298.20        2963.00           1396       10065.00     43898.23
 1298.23        2963.25           1399       12059.00     52615.69
 1298.26        2963.50           1402       14080.00     61455.83
 1298.30        2963.75           1406       16634.00     72634.13
 1298.33        2964.00           1409       18816.00     82190.21
 1298.36        2964.25           1412       20905.00     91344.13
 1298.39        2964.50           1416       23713.00    103656.60
 1298.42        2964.75           1419       25714.00    112436.20
 1298.45        2965.00           1422       27809.00    121633.10
 1298.48        2965.25           1426       30721.00    134425.10
 1298.51        2965.50           1429       32480.00    142156.80
 1298.54        2965.75           1432       34617.00    151555.00
 1298.58        2966.00           1436       37087.00    162424.20
 1298.61        2966.25           1439       39095.00    171265.70
 1298.64        2966.50           1442       40892.00    179182.10
 1298.67        2966.75           1446       42675.00    187040.50
 1298.70        2967.00           1449       43219.00    189438.90
 1298.73        2967.25           1452       43670.00    191427.50
 1298.76        2967.50           1456       43635.00    191273.20
 1298.79        2967.75           1459       43351.00    190020.90
 1298.82        2968.00           1462       43301.00    189800.40
 1298.85        2968.25           1466       42007.00    184095.90
 1298.88        2968.50           1469       40400.00    177014.30
 1298.92        2968.75           1472       38277.00    167663.40
 1298.95        2969.00           1476       35833.00    156905.10
 1298.98        2969.25           1479       33932.00    148541.90
 1299.01        2969.50           1482       32001.00    140051.00
 1299.04        2969.75           1486       29188.00    127689.60
 1299.07        2970.00           1489       27467.00    120131.40
 1299.10        2970.25           1492       25284.00    110549.10
 1299.13        2970.50           1496       22641.00     98955.06
 1299.16        2970.75           1499       20780.00     90796.24
 1299.20        2971.00           1502       18565.00     81090.68
 1299.23        2971.25           1506       15887.00     69363.90
 1299.26        2971.50           1509       13967.00     60961.43
 1299.29        2971.75           1513       11282.00     49218.22
 1299.32        2972.00           1516        9381.00     40908.93
 1299.35        2972.25           1519        7401.00     32258.76
 1299.38        2972.50           1523        4931.00     21474.16
 1299.41        2972.75           1526        2953.00     12842.79
 1299.44        2973.00           1529        1337.00      5794.38
 1299.47        2973.25           1533         529.00      2271.30
 1299.50        2973.50           1536         396.00      1691.45
 1299.53        2973.75           1539         317.00      1347.05
 1299.56        2974.00           1543         248.00      1046.24
 1299.60        2974.25           1546         186.00       775.96
 1299.63        2974.50           1549         121.00       492.60
 1299.66        2974.75           1553          84.00       331.30
 1299.69        2975.00           1556          68.00       261.55
 1299.72        2975.25           1559          50.00       183.09
 1299.75        2975.50           1563          47.00       170.01
 1299.78        2975.75           1566          47.00       170.01
 1299.81        2976.00           1569          53.00       196.17
 1299.84        2976.25           1573          45.00       161.29
 1299.87        2976.50           1576          41.00       143.85
 1299.91        2976.75           1579          44.00       156.93
 1299.94        2977.00           1583          47.00       170.01
 1299.97        2977.25           1586          42.00       148.21
 1300.00        2977.50           1590          49.00       178.73
 1300.03        2977.75           1593          43.00       152.57
 1300.06        2978.00           1596          43.00       152.57
 1300.09        2978.25           1600          42.00       148.21
 1300.12        2978.50           1603          46.00       165.65
 1300.15        2978.75           1606          41.00       143.85
 1300.18        2979.00           1610          41.00       143.85
 1300.21        2979.25           1613          41.00       143.85
 1300.24        2979.50           1616          36.00       122.06
 1300.27        2979.75           1620          43.00       152.57
 1300.30        2980.00           1623          45.00       161.29
 1300.33        2980.25           1626          40.00       139.49
 1300.36        2980.50           1630          45.00       161.29
 1300.40        2980.75           1633          42.00       148.21
 1300.43        2981.00           1637          41.00       143.85
 1300.46        2981.25           1640          40.00       139.49
 1300.49        2981.50           1643          46.00       165.65
 1300.52        2981.75           1647          42.00       148.21
 1300.55        2982.00           1650          37.00       126.42
 1300.58        2982.25           1653          49.00       178.73
 1300.61        2982.50           1657          49.00       178.73
 1300.64        2982.75           1660          42.00       148.21
 1300.67        2983.00           1663          49.00       178.73
 1300.70        2983.25           1667          42.00       148.21
 1300.73        2983.50           1670          41.00       143.85
 1300.77        2983.75           1673          45.00       161.29
 1300.80        2984.00           1677          42.00       148.21
HS scan finished at 21:41:01
end
