************************************************************
  HS Scan of (1) Internal mercury lamp
************************************************************
Integration time is 0.2294 seconds per sample
dh070618Manchester 53.47 2.23 2.804185pr1000
************************************************************
Dead Time -------------------------  3E-08 
Number of Cycles Used -------------  4 
Starting Wavelength (Angstroms) ---  2950 
Final Wavelength (Angstoms) -------  2984 
Wavelength Increment (Angstroms) --  .25 
Filter Wheel #1 Position ---------- (1) Ground quartz diffuser (ND=2.32)
Filter Wheel #2 Position ---------- (1) Neutral Density 0.494



************************************************************
HS scan start time = 02:12:37
Dark Count =  6.1 


Time (GMT)  Wavelength (Ang)  Step Number  Raw Counts  Counts/Second

  132.99        2950.00           1222          54.00       208.81
  133.06        2950.25           1226          62.00       243.68
  133.09        2950.50           1229          50.00       191.37
  133.12        2950.75           1232          61.00       239.32
  133.15        2951.00           1236          51.00       195.73
  133.18        2951.25           1239          59.00       230.60
  133.21        2951.50           1242          58.00       226.24
  133.24        2951.75           1246          57.00       221.88
  133.27        2952.00           1249          56.00       217.53
  133.30        2952.25           1252          58.00       226.24
  133.33        2952.50           1256          60.00       234.96
  133.37        2952.75           1259          65.00       256.76
  133.40        2953.00           1262          57.00       221.88
  133.43        2953.25           1266          51.00       195.73
  133.46        2953.50           1269          55.00       213.17
  133.49        2953.75           1272          63.00       248.04
  133.52        2954.00           1276          48.00       182.65
  133.55        2954.25           1279          58.00       226.24
  133.58        2954.50           1282          48.00       182.65
  133.61        2954.75           1286          60.00       234.96
  133.64        2955.00           1289          60.00       234.96
  133.68        2955.25           1292          55.00       213.17
  133.71        2955.50           1296          51.00       195.73
  133.74        2955.75           1299          54.00       208.81
  133.77        2956.00           1302          54.00       208.81
  133.80        2956.25           1306          55.00       213.17
  133.83        2956.50           1309          56.00       217.53
  133.86        2956.75           1312          59.00       230.60
  133.89        2957.00           1316          52.00       200.09
  133.92        2957.25           1319          63.00       248.04
  133.95        2957.50           1322          65.00       256.76
  133.98        2957.75           1326          55.00       213.17
  134.01        2958.00           1329          54.00       208.81
  134.04        2958.25           1332          56.00       217.53
  134.08        2958.50           1336          58.00       226.24
  134.11        2958.75           1339          55.00       213.17
  134.14        2959.00           1342          51.00       195.73
  134.17        2959.25           1346          58.00       226.24
  134.20        2959.50           1349          66.00       261.12
  134.23        2959.75           1352          74.00       295.99
  134.26        2960.00           1356          98.00       400.62
  134.29        2960.25           1359         132.00       548.83
  134.32        2960.50           1362         171.00       718.85
  134.35        2960.75           1366         219.00       928.10
  134.38        2961.00           1369         245.00      1041.44
  134.42        2961.25           1372         280.00      1194.03
  134.45        2961.50           1376         376.00      1612.55
  134.48        2961.75           1379         570.00      2458.33
  134.51        2962.00           1382        1330.00      5772.14
  134.54        2962.25           1386        3030.00     13186.99
  134.57        2962.50           1389        4527.00     19719.16
  134.60        2962.75           1392        5856.00     25520.41
  134.63        2963.00           1396        7618.00     33214.86
  134.66        2963.25           1399        9042.00     39435.91
  134.70        2963.50           1402       10488.00     45755.45
  134.73        2963.75           1406       12504.00     54570.09
  134.76        2964.00           1409       13997.00     61101.01
  134.79        2964.25           1412       15309.00     66842.28
  134.82        2964.50           1416       17392.00     75961.50
  134.85        2964.75           1419       18782.00     82049.59
  134.88        2965.00           1422       20367.00     88994.48
  134.91        2965.25           1426       22155.00     96832.33
  134.94        2965.50           1429       23751.00    103831.70
  134.98        2965.75           1432       25189.00    110140.60
  135.01        2966.00           1436       26953.00    117883.00
  135.04        2966.25           1439       28382.00    124157.80
  135.07        2966.50           1442       29285.00    128124.10
  135.10        2966.75           1446       30828.00    134903.60
  135.13        2967.00           1449       30896.00    135202.50
  135.16        2967.25           1452       31089.00    136050.70
  135.19        2967.50           1456       30864.00    135061.90
  135.22        2967.75           1459       30755.00    134582.80
  135.25        2968.00           1462       30610.00    133945.60
  135.29        2968.25           1466       29215.00    127816.60
  135.32        2968.50           1469       27807.00    121632.70
  135.35        2968.75           1472       26554.00    116131.40
  135.38        2969.00           1476       24741.00    108174.80
  135.41        2969.25           1479       23248.00    101625.40
  135.44        2969.50           1482       21891.00     95674.84
  135.47        2969.75           1486       20018.00     87465.04
  135.50        2970.00           1489       18698.00     81681.61
  135.53        2970.25           1492       17191.00     75081.31
  135.57        2970.50           1496       15426.00     67354.36
  135.60        2970.75           1499       13824.00     60344.11
  135.63        2971.00           1502       12300.00     53677.92
  135.66        2971.25           1506       10308.00     44968.65
  135.69        2971.50           1509        8828.00     38500.86
  135.72        2971.75           1513        6971.00     30389.07
  135.75        2972.00           1516        5644.00     24594.86
  135.78        2972.25           1519        4211.00     18340.08
  135.81        2972.50           1523        2510.00     10918.57
  135.85        2972.75           1526        1383.00      6003.26
  135.88        2973.00           1529         589.00      2541.17
  135.91        2973.25           1533         352.00      1507.91
  135.94        2973.50           1536         289.00      1233.26
  135.97        2973.75           1539         248.00      1054.52
  136.00        2974.00           1543         215.00       910.66
  136.03        2974.25           1546         160.00       670.89
  136.06        2974.50           1549         120.00       496.52
  136.09        2974.75           1553          83.00       335.23
  136.13        2975.00           1556          75.00       300.35
  136.16        2975.25           1559          57.00       221.88
  136.19        2975.50           1563          46.00       173.93
  136.22        2975.75           1566          57.00       221.88
  136.25        2976.00           1569          55.00       213.17
  136.28        2976.25           1573          60.00       234.96
  136.31        2976.50           1576          55.00       213.17
  136.34        2976.75           1579          57.00       221.88
  136.37        2977.00           1583          55.00       213.17
  136.41        2977.25           1586          56.00       217.53
  136.44        2977.50           1590          53.00       204.45
  136.47        2977.75           1593          54.00       208.81
  136.50        2978.00           1596          56.00       217.53
  136.53        2978.25           1600          57.00       221.88
  136.56        2978.50           1603          53.00       204.45
  136.59        2978.75           1606          54.00       208.81
  136.62        2979.00           1610          59.00       230.60
  136.65        2979.25           1613          50.00       191.37
  136.68        2979.50           1616          51.00       195.73
  136.72        2979.75           1620          55.00       213.17
  136.75        2980.00           1623          52.00       200.09
  136.78        2980.25           1626          43.00       160.86
  136.81        2980.50           1630          53.00       204.45
  136.84        2980.75           1633          48.00       182.65
  136.87        2981.00           1637          53.00       204.45
  136.90        2981.25           1640          49.00       187.01
  136.93        2981.50           1643          54.00       208.81
  136.96        2981.75           1647          54.00       208.81
  136.99        2982.00           1650          53.00       204.45
  137.02        2982.25           1653          56.00       217.53
  137.05        2982.50           1657          53.00       204.45
  137.09        2982.75           1660          48.00       182.65
  137.12        2983.00           1663          45.00       169.57
  137.15        2983.25           1667          51.00       195.73
  137.18        2983.50           1670          49.00       187.01
  137.21        2983.75           1673          50.00       191.37
  137.24        2984.00           1677          51.00       195.73
HS scan finished at 02:17:28
end
************************************************************
  HS Scan of (1) Internal mercury lamp
************************************************************
Integration time is 0.2294 seconds per sample
dh070618Manchester 53.47 2.23 2.965129pr1000
************************************************************
Dead Time -------------------------  3E-08 
Number of Cycles Used -------------  4 
Starting Wavelength (Angstroms) ---  2950 
Final Wavelength (Angstoms) -------  2984 
Wavelength Increment (Angstroms) --  .25 
Filter Wheel #1 Position ---------- (1) Ground quartz diffuser (ND=2.32)
Filter Wheel #2 Position ---------- (1) Neutral Density 0.494



************************************************************
HS scan start time = 21:42:06
Dark Count =  6.6 


Time (GMT)  Wavelength (Ang)  Step Number  Raw Counts  Counts/Second

 1302.46        2950.00           1222          66.00       258.94
 1302.53        2950.25           1226          56.00       215.35
 1302.56        2950.50           1229          63.00       245.86
 1302.59        2950.75           1232          48.00       180.47
 1302.62        2951.00           1236          58.00       224.06
 1302.65        2951.25           1239          56.00       215.35
 1302.69        2951.50           1242          59.00       228.42
 1302.72        2951.75           1246          56.00       215.35
 1302.75        2952.00           1249          55.00       210.99
 1302.78        2952.25           1252          53.00       202.27
 1302.81        2952.50           1256          56.00       215.35
 1302.84        2952.75           1259          57.00       219.71
 1302.87        2953.00           1262          57.00       219.71
 1302.90        2953.25           1266          53.00       202.27
 1302.94        2953.50           1269          62.00       241.50
 1302.97        2953.75           1272          51.00       193.55
 1303.00        2954.00           1276          54.00       206.63
 1303.03        2954.25           1279          50.00       189.19
 1303.06        2954.50           1282          51.00       193.55
 1303.09        2954.75           1286          51.00       193.55
 1303.12        2955.00           1289          52.00       197.91
 1303.15        2955.25           1292          58.00       224.06
 1303.18        2955.50           1296          62.00       241.50
 1303.21        2955.75           1299          54.00       206.63
 1303.24        2956.00           1302          54.00       206.63
 1303.28        2956.25           1306          57.00       219.71
 1303.31        2956.50           1309          58.00       224.06
 1303.34        2956.75           1312          59.00       228.42
 1303.37        2957.00           1316          59.00       228.42
 1303.40        2957.25           1319          55.00       210.99
 1303.43        2957.50           1322          54.00       206.63
 1303.46        2957.75           1326          54.00       206.63
 1303.49        2958.00           1329          53.00       202.27
 1303.52        2958.25           1332          54.00       206.63
 1303.55        2958.50           1336          64.00       250.22
 1303.58        2958.75           1339          59.00       228.42
 1303.62        2959.00           1342          55.00       210.99
 1303.65        2959.25           1346          61.00       237.14
 1303.68        2959.50           1349          69.00       272.02
 1303.71        2959.75           1352          74.00       293.81
 1303.74        2960.00           1356         106.00       433.31
 1303.77        2960.25           1359         145.00       603.32
 1303.80        2960.50           1362         178.00       747.18
 1303.83        2960.75           1366         227.00       960.79
 1303.86        2961.00           1369         260.00      1104.66
 1303.89        2961.25           1372         312.00      1331.35
 1303.92        2961.50           1376         410.00      1758.59
 1303.95        2961.75           1379         615.00      2652.35
 1303.99        2962.00           1382        1337.00      5800.49
 1304.02        2962.25           1386        3059.00     13311.33
 1304.05        2962.50           1389        4446.00     19363.47
 1304.08        2962.75           1392        5928.00     25832.57
 1304.11        2963.00           1396        7918.00     34523.10
 1304.14        2963.25           1399        9526.00     41548.71
 1304.17        2963.50           1402       11228.00     48988.25
 1304.20        2963.75           1406       13274.00     57935.84
 1304.23        2964.00           1409       14655.00     63977.96
 1304.27        2964.25           1412       16440.00     71790.90
 1304.30        2964.50           1416       18591.00     81210.69
 1304.33        2964.75           1419       20105.00     87844.10
 1304.36        2965.00           1422       21595.00     94374.93
 1304.39        2965.25           1426       23550.00    102947.80
 1304.42        2965.50           1429       25192.00    110151.60
 1304.45        2965.75           1432       26968.00    117946.70
 1304.48        2966.00           1436       28840.00    126167.10
 1304.51        2966.25           1439       30345.00    132779.00
 1304.54        2966.50           1442       31846.00    139375.80
 1304.58        2966.75           1446       33039.00    144620.90
 1304.61        2967.00           1449       32931.00    144146.00
 1304.64        2967.25           1452       33032.00    144590.10
 1304.67        2967.50           1456       33236.00    145487.10
 1304.70        2967.75           1459       33006.00    144475.70
 1304.73        2968.00           1462       32930.00    144141.60
 1304.76        2968.25           1466       31707.00    138764.80
 1304.79        2968.50           1469       30407.00    133051.40
 1304.82        2968.75           1472       28860.00    126255.00
 1304.86        2969.00           1476       26706.00    116796.50
 1304.89        2969.25           1479       25118.00    109826.80
 1304.92        2969.50           1482       23658.00    103421.50
 1304.95        2969.75           1486       21636.00     94554.68
 1304.98        2970.00           1489       20035.00     87537.34
 1305.01        2970.25           1492       18632.00     81390.30
 1305.04        2970.50           1496       16695.00     72907.33
 1305.07        2970.75           1499       15212.00     66415.56
 1305.10        2971.00           1502       13669.00     59663.81
 1305.14        2971.25           1506       11744.00     51244.37
 1305.17        2971.50           1509       10120.00     44144.74
 1305.20        2971.75           1513        8113.00     35374.92
 1305.23        2972.00           1516        6497.00     28316.98
 1305.26        2972.25           1519        4912.00     21397.34
 1305.29        2972.50           1523        2990.00     13010.31
 1305.32        2972.75           1526        1651.00      7169.81
 1305.35        2973.00           1529         752.00      3249.66
 1305.38        2973.25           1533         400.00      1715.00
 1305.42        2973.50           1536         314.00      1340.07
 1305.45        2973.75           1539         271.00      1152.61
 1305.48        2974.00           1543         229.00       969.51
 1305.51        2974.25           1546         177.00       742.82
 1305.54        2974.50           1549         133.00       551.01
 1305.57        2974.75           1553          97.00       394.08
 1305.60        2975.00           1556          65.00       254.58
 1305.63        2975.25           1559          70.00       276.38
 1305.66        2975.50           1563          55.00       210.99
 1305.69        2975.75           1566          57.00       219.71
 1305.72        2976.00           1569          52.00       197.91
 1305.76        2976.25           1573          58.00       224.06
 1305.79        2976.50           1576          56.00       215.35
 1305.82        2976.75           1579          60.00       232.78
 1305.85        2977.00           1583          53.00       202.27
 1305.88        2977.25           1586          59.00       228.42
 1305.91        2977.50           1590          51.00       193.55
 1305.94        2977.75           1593          53.00       202.27
 1305.97        2978.00           1596          53.00       202.27
 1306.00        2978.25           1600          53.00       202.27
 1306.03        2978.50           1603          51.00       193.55
 1306.06        2978.75           1606          52.00       197.91
 1306.10        2979.00           1610          54.00       206.63
 1306.13        2979.25           1613          51.00       193.55
 1306.16        2979.50           1616          50.00       189.19
 1306.19        2979.75           1620          55.00       210.99
 1306.22        2980.00           1623          50.00       189.19
 1306.25        2980.25           1626          51.00       193.55
 1306.28        2980.50           1630          57.00       219.71
 1306.31        2980.75           1633          54.00       206.63
 1306.34        2981.00           1637          52.00       197.91
 1306.37        2981.25           1640          50.00       189.19
 1306.41        2981.50           1643          48.00       180.47
 1306.44        2981.75           1647          57.00       219.71
 1306.47        2982.00           1650          56.00       215.35
 1306.50        2982.25           1653          51.00       193.55
 1306.53        2982.50           1657          48.00       180.47
 1306.56        2982.75           1660          57.00       219.71
 1306.59        2983.00           1663          48.00       180.47
 1306.62        2983.25           1667          51.00       193.55
 1306.65        2983.50           1670          51.00       193.55
 1306.69        2983.75           1673          61.00       237.14
 1306.72        2984.00           1677          54.00       206.63
HS scan finished at 21:46:56
end
