************************************************************
  HS Scan of (1) Internal mercury lamp
************************************************************
Integration time is 0.2294 seconds per sample
dh050618Manchester 53.47 2.23 2.804185pr1000
************************************************************
Dead Time -------------------------  3E-08 
Number of Cycles Used -------------  4 
Starting Wavelength (Angstroms) ---  2950 
Final Wavelength (Angstoms) -------  2984 
Wavelength Increment (Angstroms) --  .25 
Filter Wheel #1 Position ---------- (1) Ground quartz diffuser (ND=2.32)
Filter Wheel #2 Position ---------- (1) Neutral Density 0.494



************************************************************
HS scan start time = 01:35:49
Dark Count =  6.8 


Time (GMT)  Wavelength (Ang)  Step Number  Raw Counts  Counts/Second

   96.19        2950.00           1222          55.00       210.11
   96.26        2950.25           1226          56.00       214.47
   96.29        2950.50           1229          55.00       210.11
   96.32        2950.75           1232          60.00       231.91
   96.35        2951.00           1236          50.00       188.32
   96.38        2951.25           1239          54.00       205.76
   96.41        2951.50           1242          58.00       223.19
   96.44        2951.75           1246          61.00       236.27
   96.48        2952.00           1249          68.00       266.79
   96.51        2952.25           1252          55.00       210.11
   96.54        2952.50           1256          51.00       192.68
   96.57        2952.75           1259          54.00       205.76
   96.60        2953.00           1262          57.00       218.83
   96.63        2953.25           1266          50.00       188.32
   96.66        2953.50           1269          62.00       240.63
   96.69        2953.75           1272          58.00       223.19
   96.72        2954.00           1276          55.00       210.11
   96.75        2954.25           1279          59.00       227.55
   96.78        2954.50           1282          45.00       166.52
   96.81        2954.75           1286          56.00       214.47
   96.85        2955.00           1289          55.00       210.11
   96.88        2955.25           1292          55.00       210.11
   96.91        2955.50           1296          54.00       205.76
   96.94        2955.75           1299          51.00       192.68
   96.97        2956.00           1302          57.00       218.83
   97.00        2956.25           1306          54.00       205.76
   97.03        2956.50           1309          57.00       218.83
   97.06        2956.75           1312          55.00       210.11
   97.09        2957.00           1316          57.00       218.83
   97.12        2957.25           1319          59.00       227.55
   97.15        2957.50           1322          51.00       192.68
   97.18        2957.75           1326          57.00       218.83
   97.21        2958.00           1329          52.00       197.04
   97.25        2958.25           1332          57.00       218.83
   97.28        2958.50           1336          63.00       244.99
   97.31        2958.75           1339          57.00       218.83
   97.34        2959.00           1342          52.00       197.04
   97.37        2959.25           1346          64.00       249.35
   97.40        2959.50           1349          59.00       227.55
   97.43        2959.75           1352          81.00       323.46
   97.46        2960.00           1356          81.00       323.46
   97.49        2960.25           1359         134.00       554.50
   97.52        2960.50           1362         154.00       641.69
   97.55        2960.75           1366         211.00       890.17
   97.58        2961.00           1369         228.00       964.28
   97.61        2961.25           1372         281.00      1195.34
   97.65        2961.50           1376         368.00      1574.62
   97.68        2961.75           1379         581.00      2503.24
   97.71        2962.00           1382        1361.00      5904.27
   97.74        2962.25           1386        2983.00     12978.90
   97.77        2962.50           1389        4313.00     18782.16
   97.80        2962.75           1392        5667.00     24692.22
   97.83        2963.00           1396        7484.00     32626.52
   97.86        2963.25           1399        8905.00     38834.24
   97.89        2963.50           1402       10354.00     45166.65
   97.92        2963.75           1406       12261.00     53504.30
   97.96        2964.00           1409       13932.00     60813.56
   97.99        2964.25           1412       15564.00     67955.31
   98.02        2964.50           1416       17436.00     76151.10
   98.05        2964.75           1419       18864.00     82405.74
   98.08        2965.00           1422       20331.00     88833.64
   98.11        2965.25           1426       22271.00     97337.88
   98.14        2965.50           1429       23722.00    103701.40
   98.17        2965.75           1432       24921.00    108961.50
   98.20        2966.00           1436       26859.00    117467.30
   98.24        2966.25           1439       28207.00    123386.10
   98.27        2966.50           1442       29543.00    129254.40
   98.30        2966.75           1446       30724.00    134443.50
   98.33        2967.00           1449       30919.00    135300.50
   98.36        2967.25           1452       30804.00    134795.10
   98.39        2967.50           1456       30797.00    134764.30
   98.42        2967.75           1459       30786.00    134716.00
   98.45        2968.00           1462       30672.00    134215.00
   98.48        2968.25           1466       29498.00    129056.70
   98.52        2968.50           1469       28375.00    124124.00
   98.55        2968.75           1472       27022.00    118182.90
   98.58        2969.00           1476       25126.00    109861.10
   98.61        2969.25           1479       23708.00    103640.00
   98.64        2969.50           1482       22145.00     96785.41
   98.67        2969.75           1486       20319.00     88781.05
   98.70        2970.00           1489       18881.00     82480.22
   98.73        2970.25           1492       17522.00     76527.71
   98.76        2970.50           1496       15684.00     68480.56
   98.80        2970.75           1499       14201.00     61990.51
   98.83        2971.00           1502       12779.00     55769.78
   98.86        2971.25           1506       10835.00     47269.26
   98.89        2971.50           1509        9360.00     40822.42
   98.92        2971.75           1513        7677.00     33469.51
   98.95        2972.00           1516        6244.00     27211.40
   98.98        2972.25           1519        4812.00     20959.99
   99.01        2972.50           1523        3012.00     13105.41
   99.04        2972.75           1526        1647.00      7151.49
   99.07        2973.00           1529         714.00      3083.11
   99.11        2973.25           1533         374.00      1600.77
   99.14        2973.50           1536         300.00      1278.17
   99.17        2973.75           1539         270.00      1147.38
   99.20        2974.00           1543         236.00       999.16
   99.23        2974.25           1546         176.00       737.59
   99.26        2974.50           1549         141.00       585.01
   99.29        2974.75           1553         105.00       428.08
   99.32        2975.00           1556          80.00       319.10
   99.35        2975.25           1559          54.00       205.76
   99.39        2975.50           1563          53.00       201.40
   99.42        2975.75           1566          52.00       197.04
   99.45        2976.00           1569          53.00       201.40
   99.48        2976.25           1573          54.00       205.76
   99.51        2976.50           1576          59.00       227.55
   99.54        2976.75           1579          54.00       205.76
   99.57        2977.00           1583          51.00       192.68
   99.60        2977.25           1586          48.00       179.60
   99.63        2977.50           1590          52.00       197.04
   99.66        2977.75           1593          55.00       210.11
   99.70        2978.00           1596          49.00       183.96
   99.73        2978.25           1600          49.00       183.96
   99.76        2978.50           1603          52.00       197.04
   99.79        2978.75           1606          54.00       205.76
   99.82        2979.00           1610          58.00       223.19
   99.85        2979.25           1613          58.00       223.19
   99.88        2979.50           1616          50.00       188.32
   99.91        2979.75           1620          49.00       183.96
   99.94        2980.00           1623          49.00       183.96
   99.97        2980.25           1626          58.00       223.19
  100.01        2980.50           1630          52.00       197.04
  100.04        2980.75           1633          54.00       205.76
  100.07        2981.00           1637          56.00       214.47
  100.10        2981.25           1640          47.00       175.24
  100.13        2981.50           1643          53.00       201.40
  100.16        2981.75           1647          53.00       201.40
  100.19        2982.00           1650          49.00       183.96
  100.22        2982.25           1653          46.00       170.88
  100.25        2982.50           1657          51.00       192.68
  100.28        2982.75           1660          53.00       201.40
  100.32        2983.00           1663          42.00       153.44
  100.35        2983.25           1667          54.00       205.76
  100.38        2983.50           1670          54.00       205.76
  100.41        2983.75           1673          49.00       183.96
  100.44        2984.00           1677          57.00       218.83
HS scan finished at 01:40:39
end
************************************************************
  HS Scan of (1) Internal mercury lamp
************************************************************
Integration time is 0.2294 seconds per sample
dh050618Manchester 53.47 2.23 2.857833pr1000
************************************************************
Dead Time -------------------------  3E-08 
Number of Cycles Used -------------  4 
Starting Wavelength (Angstroms) ---  2950 
Final Wavelength (Angstoms) -------  2984 
Wavelength Increment (Angstroms) --  .25 
Filter Wheel #1 Position ---------- (1) Ground quartz diffuser (ND=2.32)
Filter Wheel #2 Position ---------- (1) Neutral Density 0.494



************************************************************
HS scan start time = 21:42:06
Dark Count =  3.7 


Time (GMT)  Wavelength (Ang)  Step Number  Raw Counts  Counts/Second

 1302.47        2950.00           1222          55.00       223.63
 1302.54        2950.25           1226          51.00       206.19
 1302.57        2950.50           1229          60.00       245.42
 1302.60        2950.75           1232          56.00       227.99
 1302.63        2951.00           1236          56.00       227.99
 1302.66        2951.25           1239          58.00       236.71
 1302.69        2951.50           1242          56.00       227.99
 1302.72        2951.75           1246          60.00       245.42
 1302.75        2952.00           1249          59.00       241.07
 1302.78        2952.25           1252          56.00       227.99
 1302.81        2952.50           1256          64.00       262.86
 1302.84        2952.75           1259          59.00       241.07
 1302.88        2953.00           1262          57.00       232.35
 1302.91        2953.25           1266          55.00       223.63
 1302.94        2953.50           1269          49.00       197.47
 1302.97        2953.75           1272          53.00       214.91
 1303.00        2954.00           1276          51.00       206.19
 1303.03        2954.25           1279          57.00       232.35
 1303.06        2954.50           1282          60.00       245.42
 1303.09        2954.75           1286          58.00       236.71
 1303.12        2955.00           1289          65.00       267.22
 1303.15        2955.25           1292          57.00       232.35
 1303.18        2955.50           1296          56.00       227.99
 1303.21        2955.75           1299          51.00       206.19
 1303.25        2956.00           1302          54.00       219.27
 1303.28        2956.25           1306          57.00       232.35
 1303.31        2956.50           1309          51.00       206.19
 1303.34        2956.75           1312          53.00       214.91
 1303.37        2957.00           1316          63.00       258.50
 1303.40        2957.25           1319          52.00       210.55
 1303.43        2957.50           1322          56.00       227.99
 1303.46        2957.75           1326          64.00       262.86
 1303.50        2958.00           1329          53.00       214.91
 1303.53        2958.25           1332          61.00       249.78
 1303.56        2958.50           1336          58.00       236.71
 1303.59        2958.75           1339          57.00       232.35
 1303.62        2959.00           1342          59.00       241.07
 1303.65        2959.25           1346          61.00       249.78
 1303.68        2959.50           1349          58.00       236.71
 1303.71        2959.75           1352          69.00       284.66
 1303.74        2960.00           1356          91.00       380.56
 1303.77        2960.25           1359         131.00       554.94
 1303.80        2960.50           1362         148.00       629.04
 1303.84        2960.75           1366         210.00       899.33
 1303.87        2961.00           1369         252.00      1082.42
 1303.90        2961.25           1372         293.00      1261.16
 1303.93        2961.50           1376         355.00      1531.46
 1303.96        2961.75           1379         544.00      2355.44
 1303.99        2962.00           1382        1220.00      5302.94
 1304.02        2962.25           1386        2877.00     12529.99
 1304.05        2962.50           1389        4247.00     18507.66
 1304.08        2962.75           1392        5696.00     24832.36
 1304.11        2963.00           1396        7384.00     32203.28
 1304.14        2963.25           1399        8867.00     38681.74
 1304.18        2963.50           1402       10331.00     45079.67
 1304.21        2963.75           1406       12183.00     53176.75
 1304.24        2964.00           1409       13666.00     59663.37
 1304.27        2964.25           1412       15289.00     66765.25
 1304.30        2964.50           1416       17129.00     74820.33
 1304.33        2964.75           1419       18688.00     81648.32
 1304.36        2965.00           1422       20023.00     87497.46
 1304.39        2965.25           1426       22059.00     96421.94
 1304.42        2965.50           1429       23631.00    103315.80
 1304.45        2965.75           1432       25073.00    109642.10
 1304.49        2966.00           1436       27035.00    118253.60
 1304.52        2966.25           1439       28384.00    124177.10
 1304.55        2966.50           1442       29768.00    130256.50
 1304.58        2966.75           1446       30986.00    135608.60
 1304.61        2967.00           1449       31232.00    136689.70
 1304.64        2967.25           1452       31247.00    136755.60
 1304.67        2967.50           1456       31281.00    136905.10
 1304.70        2967.75           1459       31230.00    136680.90
 1304.73        2968.00           1462       31115.00    136175.50
 1304.77        2968.25           1466       29858.00    130651.90
 1304.80        2968.50           1469       28629.00    125253.10
 1304.83        2968.75           1472       27388.00    119803.40
 1304.86        2969.00           1476       25554.00    111752.90
 1304.89        2969.25           1479       24016.00    105004.60
 1304.92        2969.50           1482       22646.00     98995.84
 1304.95        2969.75           1486       20853.00     91135.06
 1304.98        2970.00           1489       19313.00     84386.42
 1305.02        2970.25           1492       17891.00     78157.33
 1305.05        2970.50           1496       16033.00     70021.83
 1305.08        2970.75           1499       14505.00     63334.26
 1305.11        2971.00           1502       13182.00     57546.08
 1305.14        2971.25           1506       11276.00     49210.78
 1305.17        2971.50           1509        9696.00     42304.31
 1305.20        2971.75           1513        7824.00     34125.15
 1305.23        2972.00           1516        6476.00     28237.95
 1305.26        2972.25           1519        5030.00     21925.05
 1305.29        2972.50           1523        3107.00     13533.39
 1305.33        2972.75           1526        1774.00      7718.88
 1305.36        2973.00           1529         810.00      3515.19
 1305.39        2973.25           1533         373.00      1609.93
 1305.42        2973.50           1536         307.00      1322.20
 1305.45        2973.75           1539         263.00      1130.38
 1305.48        2974.00           1543         212.00       908.05
 1305.51        2974.25           1546         161.00       685.72
 1305.54        2974.50           1549         132.00       559.29
 1305.57        2974.75           1553          95.00       398.00
 1305.60        2975.00           1556          73.00       302.10
 1305.64        2975.25           1559          62.00       254.14
 1305.67        2975.50           1563          54.00       219.27
 1305.70        2975.75           1566          56.00       227.99
 1305.73        2976.00           1569          50.00       201.83
 1305.76        2976.25           1573          60.00       245.42
 1305.79        2976.50           1576          52.00       210.55
 1305.82        2976.75           1579          57.00       232.35
 1305.85        2977.00           1583          50.00       201.83
 1305.88        2977.25           1586          59.00       241.07
 1305.91        2977.50           1590          55.00       223.63
 1305.94        2977.75           1593          53.00       214.91
 1305.98        2978.00           1596          51.00       206.19
 1306.01        2978.25           1600          53.00       214.91
 1306.04        2978.50           1603          48.00       193.11
 1306.07        2978.75           1606          55.00       223.63
 1306.10        2979.00           1610          46.00       184.40
 1306.13        2979.25           1613          51.00       206.19
 1306.16        2979.50           1616          56.00       227.99
 1306.19        2979.75           1620          50.00       201.83
 1306.22        2980.00           1623          51.00       206.19
 1306.25        2980.25           1626          55.00       223.63
 1306.29        2980.50           1630          52.00       210.55
 1306.32        2980.75           1633          55.00       223.63
 1306.35        2981.00           1637          53.00       214.91
 1306.38        2981.25           1640          48.00       193.11
 1306.41        2981.50           1643          49.00       197.47
 1306.44        2981.75           1647          58.00       236.71
 1306.47        2982.00           1650          56.00       227.99
 1306.50        2982.25           1653          55.00       223.63
 1306.53        2982.50           1657          48.00       193.11
 1306.56        2982.75           1660          47.00       188.75
 1306.59        2983.00           1663          50.00       201.83
 1306.62        2983.25           1667          53.00       214.91
 1306.66        2983.50           1670          45.00       180.04
 1306.69        2983.75           1673          60.00       245.42
 1306.72        2984.00           1677          51.00       206.19
HS scan finished at 21:46:56
end
