************************************************************
  HS Scan of (1) Internal mercury lamp
************************************************************
Integration time is 0.2294 seconds per sample
dh070619Manchester 53.47 2.23 2.804185pr1000
************************************************************
Dead Time -------------------------  3E-08 
Number of Cycles Used -------------  4 
Starting Wavelength (Angstroms) ---  2950 
Final Wavelength (Angstoms) -------  2984 
Wavelength Increment (Angstroms) --  .25 
Filter Wheel #1 Position ---------- (1) Ground quartz diffuser (ND=2.32)
Filter Wheel #2 Position ---------- (1) Neutral Density 0.494



************************************************************
HS scan start time = 02:12:11
Dark Count =  5 


Time (GMT)  Wavelength (Ang)  Step Number  Raw Counts  Counts/Second

  132.56        2950.00           1222          57.00       226.68
  132.63        2950.25           1226          65.00       261.55
  132.66        2950.50           1229          50.00       196.17
  132.69        2950.75           1232          58.00       231.04
  132.72        2951.00           1236          56.00       222.32
  132.75        2951.25           1239          62.00       248.48
  132.78        2951.50           1242          58.00       231.04
  132.81        2951.75           1246          50.00       196.17
  132.84        2952.00           1249          53.00       209.24
  132.87        2952.25           1252          63.00       252.84
  132.90        2952.50           1256          51.00       200.52
  132.93        2952.75           1259          54.00       213.60
  132.96        2953.00           1262          51.00       200.52
  132.99        2953.25           1266          55.00       217.96
  133.03        2953.50           1269          58.00       231.04
  133.06        2953.75           1272          51.00       200.52
  133.09        2954.00           1276          63.00       252.84
  133.12        2954.25           1279          56.00       222.32
  133.15        2954.50           1282          56.00       222.32
  133.18        2954.75           1286          54.00       213.60
  133.21        2955.00           1289          58.00       231.04
  133.24        2955.25           1292          52.00       204.88
  133.27        2955.50           1296          54.00       213.60
  133.30        2955.75           1299          54.00       213.60
  133.33        2956.00           1302          61.00       244.12
  133.37        2956.25           1306          64.00       257.19
  133.40        2956.50           1309          60.00       239.76
  133.43        2956.75           1312          54.00       213.60
  133.46        2957.00           1316          52.00       204.88
  133.49        2957.25           1319          52.00       204.88
  133.52        2957.50           1322          56.00       222.32
  133.55        2957.75           1326          51.00       200.52
  133.58        2958.00           1329          54.00       213.60
  133.61        2958.25           1332          54.00       213.60
  133.64        2958.50           1336          54.00       213.60
  133.67        2958.75           1339          56.00       222.32
  133.70        2959.00           1342          55.00       217.96
  133.73        2959.25           1346          54.00       213.60
  133.77        2959.50           1349          64.00       257.19
  133.80        2959.75           1352          70.00       283.35
  133.83        2960.00           1356          89.00       366.18
  133.86        2960.25           1359         112.00       466.44
  133.89        2960.50           1362         156.00       658.25
  133.92        2960.75           1366         196.00       832.63
  133.95        2961.00           1369         216.00       919.82
  133.98        2961.25           1372         263.00      1124.71
  134.01        2961.50           1376         316.00      1355.77
  134.05        2961.75           1379         447.00      1926.88
  134.08        2962.00           1382         962.00      4172.27
  134.11        2962.25           1386        2360.00     10269.07
  134.14        2962.50           1389        3584.00     15608.88
  134.17        2962.75           1392        4867.00     21207.91
  134.20        2963.00           1396        6514.00     28398.20
  134.23        2963.25           1399        7753.00     33809.35
  134.26        2963.50           1402        9046.00     39458.19
  134.29        2963.75           1406       10916.00     47631.23
  134.32        2964.00           1409       12313.00     53739.58
  134.36        2964.25           1412       13646.00     59570.19
  134.39        2964.50           1416       15309.00     66847.08
  134.42        2964.75           1419       16669.00     72800.50
  134.45        2965.00           1422       17922.00     78287.41
  134.48        2965.25           1426       19687.00     86019.42
  134.51        2965.50           1429       20954.00     91572.06
  134.54        2965.75           1432       22311.00     97521.18
  134.57        2966.00           1436       23877.00    104389.20
  134.60        2966.25           1439       25135.00    109908.50
  134.64        2966.50           1442       26329.00    115148.60
  134.67        2966.75           1446       27929.00    122173.20
  134.70        2967.00           1449       28322.00    123899.10
  134.73        2967.25           1452       28298.00    123793.70
  134.76        2967.50           1456       28200.00    123363.30
  134.79        2967.75           1459       28328.00    123925.40
  134.82        2968.00           1462       28307.00    123833.20
  134.85        2968.25           1466       27544.00    120482.60
  134.88        2968.50           1469       26376.00    115354.90
  134.91        2968.75           1472       25223.00    110294.60
  134.95        2969.00           1476       23529.00    102862.70
  134.98        2969.25           1479       22155.00     96837.15
  135.01        2969.50           1482       21006.00     91799.99
  135.04        2969.75           1486       19099.00     83443.15
  135.07        2970.00           1489       17714.00     77376.45
  135.10        2970.25           1492       16586.00     72437.10
  135.13        2970.50           1496       14874.00     64943.32
  135.16        2970.75           1499       13612.00     59421.44
  135.20        2971.00           1502       12332.00     53822.67
  135.23        2971.25           1506       10586.00     46188.64
  135.26        2971.50           1509        9292.00     40533.13
  135.29        2971.75           1513        7600.00     33141.04
  135.32        2972.00           1516        6157.00     26839.39
  135.35        2972.25           1519        4920.00     21439.25
  135.38        2972.50           1523        3234.00     14081.80
  135.41        2972.75           1526        2002.00      8707.59
  135.44        2973.00           1529         927.00      4019.67
  135.48        2973.25           1533         385.00      1656.58
  135.51        2973.50           1536         289.00      1238.06
  135.54        2973.75           1539         258.00      1102.91
  135.57        2974.00           1543         225.00       959.05
  135.60        2974.25           1546         165.00       697.49
  135.63        2974.50           1549         136.00       571.06
  135.66        2974.75           1553          85.00       348.74
  135.69        2975.00           1556          64.00       257.19
  135.72        2975.25           1559          53.00       209.24
  135.75        2975.50           1563          51.00       200.52
  135.78        2975.75           1566          55.00       217.96
  135.82        2976.00           1569          52.00       204.88
  135.85        2976.25           1573          48.00       187.45
  135.88        2976.50           1576          67.00       270.27
  135.91        2976.75           1579          47.00       183.09
  135.94        2977.00           1583          47.00       183.09
  135.97        2977.25           1586          49.00       191.81
  136.00        2977.50           1590          45.00       174.37
  136.03        2977.75           1593          56.00       222.32
  136.06        2978.00           1596          49.00       191.81
  136.09        2978.25           1600          54.00       213.60
  136.13        2978.50           1603          53.00       209.24
  136.16        2978.75           1606          50.00       196.17
  136.19        2979.00           1610          56.00       222.32
  136.22        2979.25           1613          50.00       196.17
  136.25        2979.50           1616          52.00       204.88
  136.28        2979.75           1620          50.00       196.17
  136.31        2980.00           1623          53.00       209.24
  136.34        2980.25           1626          51.00       200.52
  136.37        2980.50           1630          51.00       200.52
  136.40        2980.75           1633          49.00       191.81
  136.43        2981.00           1637          42.00       161.29
  136.46        2981.25           1640          42.00       161.29
  136.49        2981.50           1643          56.00       222.32
  136.52        2981.75           1647          50.00       196.17
  136.55        2982.00           1650          52.00       204.88
  136.59        2982.25           1653          51.00       200.52
  136.62        2982.50           1657          52.00       204.88
  136.65        2982.75           1660          48.00       187.45
  136.68        2983.00           1663          57.00       226.68
  136.71        2983.25           1667          50.00       196.17
  136.74        2983.50           1670          53.00       209.24
  136.77        2983.75           1673          52.00       204.88
  136.80        2984.00           1677          52.00       204.88
HS scan finished at 02:17:01
end
************************************************************
  HS Scan of (1) Internal mercury lamp
************************************************************
Integration time is 0.2294 seconds per sample
dh070619Manchester 53.47 2.23 2.804185pr1000
************************************************************
Dead Time -------------------------  3E-08 
Number of Cycles Used -------------  4 
Starting Wavelength (Angstroms) ---  2950 
Final Wavelength (Angstoms) -------  2984 
Wavelength Increment (Angstroms) --  .25 
Filter Wheel #1 Position ---------- (1) Ground quartz diffuser (ND=2.32)
Filter Wheel #2 Position ---------- (1) Neutral Density 0.494



************************************************************
HS scan start time = 21:42:04
Dark Count =  5.5 


Time (GMT)  Wavelength (Ang)  Step Number  Raw Counts  Counts/Second

 1302.43        2950.00           1222          56.00       220.14
 1302.50        2950.25           1226          55.00       215.78
 1302.53        2950.50           1229          53.00       207.06
 1302.56        2950.75           1232          58.00       228.86
 1302.59        2951.00           1236          55.00       215.78
 1302.63        2951.25           1239          70.00       281.17
 1302.66        2951.50           1242          61.00       241.94
 1302.69        2951.75           1246          50.00       193.99
 1302.72        2952.00           1249          59.00       233.22
 1302.75        2952.25           1252          58.00       228.86
 1302.78        2952.50           1256          62.00       246.30
 1302.81        2952.75           1259          59.00       233.22
 1302.84        2953.00           1262          55.00       215.78
 1302.87        2953.25           1266          59.00       233.22
 1302.90        2953.50           1269          53.00       207.06
 1302.93        2953.75           1272          49.00       189.63
 1302.96        2954.00           1276          57.00       224.50
 1303.00        2954.25           1279          51.00       198.34
 1303.03        2954.50           1282          52.00       202.70
 1303.06        2954.75           1286          53.00       207.06
 1303.09        2955.00           1289          58.00       228.86
 1303.12        2955.25           1292          50.00       193.99
 1303.15        2955.50           1296          56.00       220.14
 1303.18        2955.75           1299          60.00       237.58
 1303.21        2956.00           1302          59.00       233.22
 1303.24        2956.25           1306          62.00       246.30
 1303.27        2956.50           1309          57.00       224.50
 1303.31        2956.75           1312          63.00       250.66
 1303.34        2957.00           1316          58.00       228.86
 1303.37        2957.25           1319          64.00       255.02
 1303.40        2957.50           1322          53.00       207.06
 1303.43        2957.75           1326          53.00       207.06
 1303.46        2958.00           1329          53.00       207.06
 1303.49        2958.25           1332          53.00       207.06
 1303.52        2958.50           1336          56.00       220.14
 1303.55        2958.75           1339          57.00       224.50
 1303.58        2959.00           1342          57.00       224.50
 1303.61        2959.25           1346          58.00       228.86
 1303.65        2959.50           1349          65.00       259.37
 1303.68        2959.75           1352          80.00       324.76
 1303.71        2960.00           1356          97.00       398.87
 1303.74        2960.25           1359         139.00       581.96
 1303.77        2960.50           1362         169.00       712.74
 1303.80        2960.75           1366         227.00       965.59
 1303.83        2961.00           1369         248.00      1057.14
 1303.86        2961.25           1372         281.00      1201.00
 1303.89        2961.50           1376         351.00      1506.17
 1303.92        2961.75           1379         615.00      2657.14
 1303.95        2962.00           1382        1331.00      5779.12
 1303.99        2962.25           1386        2866.00     12474.15
 1304.02        2962.50           1389        4120.00     17945.58
 1304.05        2962.75           1392        5390.00     23488.65
 1304.08        2963.00           1396        7044.00     30710.50
 1304.11        2963.25           1399        8342.00     36380.14
 1304.14        2963.50           1402        9633.00     42021.12
 1304.17        2963.75           1406       11324.00     49412.78
 1304.20        2964.00           1409       12760.00     55692.36
 1304.23        2964.25           1412       14066.00     61405.52
 1304.27        2964.50           1416       15673.00     68438.11
 1304.30        2964.75           1419       17095.00     74663.57
 1304.33        2965.00           1422       18480.00     80729.28
 1304.36        2965.25           1426       20209.00     88304.68
 1304.39        2965.50           1429       21500.00     93963.28
 1304.42        2965.75           1432       22754.00     99461.56
 1304.45        2966.00           1436       24485.00    107054.30
 1304.48        2966.25           1439       25588.00    111894.20
 1304.51        2966.50           1442       26885.00    117587.10
 1304.54        2966.75           1446       28082.00    122842.90
 1304.58        2967.00           1449       28087.00    122864.90
 1304.61        2967.25           1452       27967.00    122337.90
 1304.64        2967.50           1456       27974.00    122368.60
 1304.67        2967.75           1459       28130.00    123053.70
 1304.70        2968.00           1462       27743.00    121354.30
 1304.73        2968.25           1466       26760.00    117038.40
 1304.76        2968.50           1469       25555.00    111749.40
 1304.79        2968.75           1472       24386.00    106619.90
 1304.83        2969.00           1476       22815.00     99729.06
 1304.86        2969.25           1479       21512.00     94015.89
 1304.89        2969.50           1482       20272.00     88580.78
 1304.92        2969.75           1486       18587.00     81198.00
 1304.95        2970.00           1489       17290.00     75517.45
 1304.98        2970.25           1492       16039.00     70040.22
 1305.01        2970.50           1496       14412.00     62919.44
 1305.04        2970.75           1499       12862.00     56138.50
 1305.07        2971.00           1502       11649.00     50833.78
 1305.10        2971.25           1506        9946.00     43389.05
 1305.13        2971.50           1509        8515.00     37135.95
 1305.16        2971.75           1513        6884.00     30011.75
 1305.19        2972.00           1516        5592.00     24370.47
 1305.23        2972.25           1519        4292.00     18696.19
 1305.26        2972.50           1523        2643.00     11501.35
 1305.29        2972.75           1526        1443.00      6267.53
 1305.32        2973.00           1529         624.00      2696.38
 1305.35        2973.25           1533         348.00      1493.09
 1305.38        2973.50           1536         269.00      1148.69
 1305.41        2973.75           1539         223.00       948.15
 1305.44        2974.00           1543         174.00       734.54
 1305.47        2974.25           1546         134.00       560.17
 1305.50        2974.50           1549         108.00       446.82
 1305.54        2974.75           1553          72.00       289.89
 1305.57        2975.00           1556          59.00       233.22
 1305.60        2975.25           1559          48.00       185.27
 1305.63        2975.50           1563          50.00       193.99
 1305.66        2975.75           1566          60.00       237.58
 1305.69        2976.00           1569          59.00       233.22
 1305.72        2976.25           1573          68.00       272.45
 1305.75        2976.50           1576          44.00       167.83
 1305.78        2976.75           1579          52.00       202.70
 1305.82        2977.00           1583          49.00       189.63
 1305.85        2977.25           1586          53.00       207.06
 1305.88        2977.50           1590          58.00       228.86
 1305.91        2977.75           1593          54.00       211.42
 1305.94        2978.00           1596          53.00       207.06
 1305.97        2978.25           1600          60.00       237.58
 1306.00        2978.50           1603          58.00       228.86
 1306.03        2978.75           1606          50.00       193.99
 1306.06        2979.00           1610          54.00       211.42
 1306.09        2979.25           1613          47.00       180.91
 1306.12        2979.50           1616          54.00       211.42
 1306.16        2979.75           1620          54.00       211.42
 1306.19        2980.00           1623          56.00       220.14
 1306.22        2980.25           1626          48.00       185.27
 1306.25        2980.50           1630          48.00       185.27
 1306.28        2980.75           1633          45.00       172.19
 1306.31        2981.00           1637          55.00       215.78
 1306.34        2981.25           1640          56.00       220.14
 1306.37        2981.50           1643          48.00       185.27
 1306.40        2981.75           1647          52.00       202.70
 1306.43        2982.00           1650          47.00       180.91
 1306.47        2982.25           1653          50.00       193.99
 1306.50        2982.50           1657          54.00       211.42
 1306.53        2982.75           1660          54.00       211.42
 1306.56        2983.00           1663          57.00       224.50
 1306.59        2983.25           1667          51.00       198.34
 1306.62        2983.50           1670          51.00       198.34
 1306.65        2983.75           1673          51.00       198.34
 1306.68        2984.00           1677          50.00       193.99
HS scan finished at 21:46:54
end
