************************************************************
  HS Scan of (1) Internal mercury lamp
************************************************************
Integration time is 0.2294 seconds per sample
dh310518Manchester 53.47 2.23 2.965129pr1000
************************************************************
Dead Time -------------------------  3E-08 
Number of Cycles Used -------------  4 
Starting Wavelength (Angstroms) ---  2950 
Final Wavelength (Angstoms) -------  2984 
Wavelength Increment (Angstroms) --  .25 
Filter Wheel #1 Position ---------- (1) Ground quartz diffuser (ND=2.32)
Filter Wheel #2 Position ---------- (1) Neutral Density 0.494



************************************************************
HS scan start time = 02:11:02
Dark Count =  5 


Time (GMT)  Wavelength (Ang)  Step Number  Raw Counts  Counts/Second

  131.41        2950.00           1222          63.00       252.84
  131.47        2950.25           1226          67.00       270.27
  131.50        2950.50           1229          53.00       209.24
  131.54        2950.75           1232          55.00       217.96
  131.57        2951.00           1236          55.00       217.96
  131.60        2951.25           1239          52.00       204.88
  131.63        2951.50           1242          55.00       217.96
  131.66        2951.75           1246          52.00       204.88
  131.69        2952.00           1249          54.00       213.60
  131.72        2952.25           1252          56.00       222.32
  131.75        2952.50           1256          57.00       226.68
  131.78        2952.75           1259          53.00       209.24
  131.82        2953.00           1262          57.00       226.68
  131.85        2953.25           1266          48.00       187.45
  131.88        2953.50           1269          62.00       248.48
  131.91        2953.75           1272          49.00       191.81
  131.94        2954.00           1276          53.00       209.24
  131.97        2954.25           1279          59.00       235.40
  132.00        2954.50           1282          57.00       226.68
  132.03        2954.75           1286          58.00       231.04
  132.06        2955.00           1289          49.00       191.81
  132.09        2955.25           1292          62.00       248.48
  132.12        2955.50           1296          50.00       196.17
  132.15        2955.75           1299          51.00       200.52
  132.18        2956.00           1302          51.00       200.52
  132.22        2956.25           1306          54.00       213.60
  132.25        2956.50           1309          56.00       222.32
  132.28        2956.75           1312          55.00       217.96
  132.31        2957.00           1316          48.00       187.45
  132.34        2957.25           1319          54.00       213.60
  132.37        2957.50           1322          60.00       239.76
  132.40        2957.75           1326          59.00       235.40
  132.43        2958.00           1329          52.00       204.88
  132.46        2958.25           1332          57.00       226.68
  132.49        2958.50           1336          53.00       209.24
  132.52        2958.75           1339          57.00       226.68
  132.55        2959.00           1342          59.00       235.40
  132.59        2959.25           1346          64.00       257.19
  132.62        2959.50           1349          60.00       239.76
  132.65        2959.75           1352          78.00       318.22
  132.68        2960.00           1356         108.00       449.00
  132.71        2960.25           1359         131.00       549.27
  132.74        2960.50           1362         172.00       728.00
  132.77        2960.75           1366         213.00       906.74
  132.80        2961.00           1369         266.00      1137.79
  132.83        2961.25           1372         312.00      1338.33
  132.86        2961.50           1376         379.00      1630.42
  132.89        2961.75           1379         534.00      2306.18
  132.92        2962.00           1382        1229.00      5336.51
  132.95        2962.25           1386        3084.00     13427.38
  132.99        2962.50           1389        4638.00     20208.41
  133.02        2962.75           1392        6171.00     26900.51
  133.05        2963.00           1396        8154.00     35561.02
  133.08        2963.25           1399        9612.00     41931.53
  133.11        2963.50           1402       11157.00     48684.83
  133.14        2963.75           1406       13219.00     57702.24
  133.17        2964.00           1409       14781.00     64536.34
  133.20        2964.25           1412       16507.00     72091.23
  133.23        2964.50           1416       18569.00     81121.33
  133.27        2964.75           1419       20229.00     88394.52
  133.30        2965.00           1422       21954.00     95955.87
  133.33        2965.25           1426       24122.00    105463.90
  133.36        2965.50           1429       25495.00    111488.20
  133.39        2965.75           1432       27235.00    119125.90
  133.42        2966.00           1436       29405.00    128656.00
  133.45        2966.25           1439       30891.00    135185.40
  133.48        2966.50           1442       32103.00    140512.60
  133.51        2966.75           1446       33451.00    146439.70
  133.54        2967.00           1449       33641.00    147275.30
  133.57        2967.25           1452       33530.00    146787.10
  133.61        2967.50           1456       33612.00    147147.70
  133.64        2967.75           1459       33484.00    146584.80
  133.67        2968.00           1462       33345.00    145973.50
  133.70        2968.25           1466       31868.00    139479.60
  133.73        2968.50           1469       30679.00    134253.70
  133.76        2968.75           1472       29133.00    127461.20
  133.79        2969.00           1476       27028.00    118217.10
  133.82        2969.25           1479       25435.00    111224.90
  133.85        2969.50           1482       23942.00    104674.30
  133.88        2969.75           1486       21895.00     95697.19
  133.92        2970.00           1489       20301.00     88710.05
  133.95        2970.25           1492       18946.00     82772.85
  133.98        2970.50           1496       16939.00     73982.68
  134.01        2970.75           1499       15206.00     66396.30
  134.04        2971.00           1502       13607.00     59399.57
  134.07        2971.25           1506       11397.00     49734.14
  134.10        2971.50           1509        9765.00     42600.19
  134.13        2971.75           1513        7832.00     34154.42
  134.17        2972.00           1516        6314.00     27524.90
  134.20        2972.25           1519        4822.00     21011.50
  134.23        2972.50           1523        2915.00     12690.10
  134.26        2972.75           1526        1607.00      6984.90
  134.29        2973.00           1529         722.00      3125.84
  134.32        2973.25           1533         390.00      1678.38
  134.35        2973.50           1536         331.00      1421.16
  134.38        2973.75           1539         267.00      1142.15
  134.41        2974.00           1543         239.00      1020.08
  134.44        2974.25           1546         174.00       736.72
  134.47        2974.50           1549         141.00       592.86
  134.51        2974.75           1553         100.00       414.13
  134.54        2975.00           1556          79.00       322.58
  134.57        2975.25           1559          63.00       252.84
  134.60        2975.50           1563          57.00       226.68
  134.63        2975.75           1566          66.00       265.91
  134.66        2976.00           1569          48.00       187.45
  134.69        2976.25           1573          59.00       235.40
  134.72        2976.50           1576          59.00       235.40
  134.75        2976.75           1579          57.00       226.68
  134.78        2977.00           1583          58.00       231.04
  134.81        2977.25           1586          59.00       235.40
  134.84        2977.50           1590          49.00       191.81
  134.87        2977.75           1593          56.00       222.32
  134.91        2978.00           1596          55.00       217.96
  134.94        2978.25           1600          58.00       231.04
  134.97        2978.50           1603          48.00       187.45
  135.00        2978.75           1606          51.00       200.52
  135.03        2979.00           1610          52.00       204.88
  135.06        2979.25           1613          53.00       209.24
  135.09        2979.50           1616          55.00       217.96
  135.12        2979.75           1620          58.00       231.04
  135.15        2980.00           1623          58.00       231.04
  135.18        2980.25           1626          44.00       170.01
  135.21        2980.50           1630          53.00       209.24
  135.24        2980.75           1633          50.00       196.17
  135.28        2981.00           1637          59.00       235.40
  135.31        2981.25           1640          52.00       204.88
  135.34        2981.50           1643          45.00       174.37
  135.37        2981.75           1647          49.00       191.81
  135.40        2982.00           1650          61.00       244.12
  135.43        2982.25           1653          55.00       217.96
  135.46        2982.50           1657          51.00       200.52
  135.49        2982.75           1660          46.00       178.73
  135.52        2983.00           1663          51.00       200.52
  135.55        2983.25           1667          48.00       187.45
  135.58        2983.50           1670          52.00       204.88
  135.61        2983.75           1673          51.00       200.52
  135.64        2984.00           1677          57.00       226.68
HS scan finished at 02:15:52
end
************************************************************
  HS Scan of (1) Internal mercury lamp
************************************************************
Integration time is 0.2294 seconds per sample
dh310518Manchester 53.47 2.23 3.072425pr1000
************************************************************
Dead Time -------------------------  3E-08 
Number of Cycles Used -------------  4 
Starting Wavelength (Angstroms) ---  2950 
Final Wavelength (Angstoms) -------  2984 
Wavelength Increment (Angstroms) --  .25 
Filter Wheel #1 Position ---------- (1) Ground quartz diffuser (ND=2.32)
Filter Wheel #2 Position ---------- (1) Neutral Density 0.494



************************************************************
HS scan start time = 21:12:04
Dark Count =  5.6 


Time (GMT)  Wavelength (Ang)  Step Number  Raw Counts  Counts/Second

 1272.43        2950.00           1222          57.00       224.06
 1272.50        2950.25           1226          54.00       210.99
 1272.53        2950.50           1229          52.00       202.27
 1272.56        2950.75           1232          58.00       228.42
 1272.59        2951.00           1236          48.00       184.83
 1272.62        2951.25           1239          62.00       245.86
 1272.65        2951.50           1242          60.00       237.14
 1272.69        2951.75           1246          59.00       232.78
 1272.72        2952.00           1249          56.00       219.71
 1272.75        2952.25           1252          51.00       197.91
 1272.78        2952.50           1256          58.00       228.42
 1272.81        2952.75           1259          63.00       250.22
 1272.84        2953.00           1262          64.00       254.58
 1272.87        2953.25           1266          61.00       241.50
 1272.90        2953.50           1269          52.00       202.27
 1272.93        2953.75           1272          64.00       254.58
 1272.96        2954.00           1276          66.00       263.30
 1272.99        2954.25           1279          56.00       219.71
 1273.03        2954.50           1282          55.00       215.35
 1273.06        2954.75           1286          63.00       250.22
 1273.09        2955.00           1289          61.00       241.50
 1273.12        2955.25           1292          53.00       206.63
 1273.15        2955.50           1296          63.00       250.22
 1273.18        2955.75           1299          61.00       241.50
 1273.21        2956.00           1302          51.00       197.91
 1273.24        2956.25           1306          61.00       241.50
 1273.27        2956.50           1309          51.00       197.91
 1273.31        2956.75           1312          59.00       232.78
 1273.34        2957.00           1316          61.00       241.50
 1273.37        2957.25           1319          58.00       228.42
 1273.40        2957.50           1322          56.00       219.71
 1273.43        2957.75           1326          57.00       224.06
 1273.46        2958.00           1329          57.00       224.06
 1273.49        2958.25           1332          56.00       219.71
 1273.52        2958.50           1336          57.00       224.06
 1273.55        2958.75           1339          61.00       241.50
 1273.58        2959.00           1342          53.00       206.63
 1273.61        2959.25           1346          60.00       237.14
 1273.65        2959.50           1349          78.00       315.61
 1273.68        2959.75           1352          87.00       354.84
 1273.71        2960.00           1356         119.00       494.34
 1273.74        2960.25           1359         146.00       612.04
 1273.77        2960.50           1362         203.00       860.53
 1273.80        2960.75           1366         242.00      1030.55
 1273.83        2961.00           1369         294.00      1257.24
 1273.86        2961.25           1372         325.00      1392.39
 1273.89        2961.50           1376         406.00      1745.51
 1273.92        2961.75           1379         511.00      2203.28
 1273.95        2962.00           1382        1023.00      4435.64
 1273.98        2962.25           1386        2697.00     11736.48
 1274.02        2962.50           1389        4237.00     18455.73
 1274.05        2962.75           1392        5604.00     24422.42
 1274.08        2963.00           1396        7732.00     33714.99
 1274.11        2963.25           1399        9345.00     40762.11
 1274.14        2963.50           1402       10731.00     46819.87
 1274.17        2963.75           1406       12886.00     56243.03
 1274.20        2964.00           1409       14346.00     62630.21
 1274.23        2964.25           1412       16153.00     70538.83
 1274.26        2964.50           1416       18128.00     79187.03
 1274.30        2964.75           1419       19689.00     86025.57
 1274.33        2965.00           1422       21559.00     94221.49
 1274.36        2965.25           1426       23723.00    103711.00
 1274.39        2965.50           1429       25368.00    110928.30
 1274.42        2965.75           1432       26955.00    117894.00
 1274.45        2966.00           1436       29015.00    126940.20
 1274.48        2966.25           1439       30618.00    133983.00
 1274.51        2966.50           1442       32088.00    140444.00
 1274.54        2966.75           1446       33686.00    147470.50
 1274.58        2967.00           1449       34375.00    150501.00
 1274.61        2967.25           1452       34478.00    150954.10
 1274.64        2967.50           1456       34544.00    151244.40
 1274.67        2967.75           1459       34503.00    151064.10
 1274.70        2968.00           1462       34390.00    150567.00
 1274.73        2968.25           1466       33557.00    146903.20
 1274.76        2968.50           1469       32523.00    142356.50
 1274.79        2968.75           1472       30878.00    135125.60
 1274.82        2969.00           1476       28950.00    126654.70
 1274.86        2969.25           1479       27477.00    120185.80
 1274.89        2969.50           1482       25802.00    112832.90
 1274.92        2969.75           1486       23723.00    103711.00
 1274.95        2970.00           1489       22094.00     96567.06
 1274.98        2970.25           1492       20619.00     90101.10
 1275.01        2970.50           1496       18743.00     81880.93
 1275.04        2970.75           1499       16867.00     73664.80
 1275.07        2971.00           1502       15347.00     67010.78
 1275.11        2971.25           1506       13039.00     56912.26
 1275.14        2971.50           1509       11403.00     49757.74
 1275.17        2971.75           1513        9531.00     41574.93
 1275.20        2972.00           1516        7783.00     33937.76
 1275.23        2972.25           1519        6284.00     27391.29
 1275.26        2972.50           1523        4200.00     18294.26
 1275.29        2972.75           1526        2778.00     12089.82
 1275.32        2973.00           1529        1455.00      6319.42
 1275.35        2973.25           1533         480.00      2068.13
 1275.38        2973.50           1536         311.00      1331.35
 1275.42        2973.75           1539         265.00      1130.81
 1275.45        2974.00           1543         225.00       956.44
 1275.48        2974.25           1546         153.00       642.56
 1275.51        2974.50           1549         120.00       498.70
 1275.54        2974.75           1553          75.00       302.53
 1275.57        2975.00           1556          65.00       258.94
 1275.60        2975.25           1559          57.00       224.06
 1275.63        2975.50           1563          62.00       245.86
 1275.66        2975.75           1566          58.00       228.42
 1275.70        2976.00           1569          54.00       210.99
 1275.73        2976.25           1573          47.00       180.47
 1275.76        2976.50           1576          46.00       176.11
 1275.79        2976.75           1579          57.00       224.06
 1275.82        2977.00           1583          55.00       215.35
 1275.85        2977.25           1586          46.00       176.11
 1275.88        2977.50           1590          51.00       197.91
 1275.91        2977.75           1593          56.00       219.71
 1275.94        2978.00           1596          53.00       206.63
 1275.98        2978.25           1600          53.00       206.63
 1276.01        2978.50           1603          55.00       215.35
 1276.04        2978.75           1606          51.00       197.91
 1276.07        2979.00           1610          48.00       184.83
 1276.10        2979.25           1613          56.00       219.71
 1276.13        2979.50           1616          55.00       215.35
 1276.16        2979.75           1620          53.00       206.63
 1276.19        2980.00           1623          54.00       210.99
 1276.22        2980.25           1626          60.00       237.14
 1276.25        2980.50           1630          52.00       202.27
 1276.28        2980.75           1633          55.00       215.35
 1276.32        2981.00           1637          54.00       210.99
 1276.35        2981.25           1640          46.00       176.11
 1276.38        2981.50           1643          46.00       176.11
 1276.41        2981.75           1647          49.00       189.19
 1276.44        2982.00           1650          55.00       215.35
 1276.47        2982.25           1653          66.00       263.30
 1276.51        2982.50           1657          54.00       210.99
 1276.54        2982.75           1660          49.00       189.19
 1276.57        2983.00           1663          52.00       202.27
 1276.60        2983.25           1667          52.00       202.27
 1276.63        2983.50           1670          52.00       202.27
 1276.66        2983.75           1673          50.00       193.55
 1276.69        2984.00           1677          50.00       193.55
HS scan finished at 21:16:55
end
