************************************************************
  HS Scan of (1) Internal mercury lamp
************************************************************
Integration time is 0.2294 seconds per sample
dh300517El Arenosillo 37.1 6.73 2.965129pr1000
************************************************************
Dead Time -------------------------  3E-08 
Number of Cycles Used -------------  4 
Starting Wavelength (Angstroms) ---  2950 
Final Wavelength (Angstoms) -------  2984 
Wavelength Increment (Angstroms) --  .25 
Filter Wheel #1 Position ---------- (1) Ground quartz diffuser (ND=2.32)
Filter Wheel #2 Position ---------- (1) Neutral Density 0.494



************************************************************
HS scan start time = 03:22:25
Dark Count =  7.4 


Time (GMT)  Wavelength (Ang)  Step Number  Raw Counts  Counts/Second

  202.79        2950.00           1222          40.00       142.11
  202.86        2950.25           1226          43.00       155.19
  202.89        2950.50           1229          46.00       168.27
  202.92        2950.75           1232          46.00       168.27
  202.95        2951.00           1236          50.00       185.70
  202.98        2951.25           1239          55.00       207.50
  203.01        2951.50           1242          43.00       155.19
  203.04        2951.75           1246          41.00       146.47
  203.07        2952.00           1249          45.00       163.91
  203.10        2952.25           1252          41.00       146.47
  203.13        2952.50           1256          44.00       159.55
  203.16        2952.75           1259          47.00       172.63
  203.19        2953.00           1262          44.00       159.55
  203.22        2953.25           1266          41.00       146.47
  203.25        2953.50           1269          43.00       155.19
  203.29        2953.75           1272          40.00       142.11
  203.32        2954.00           1276          49.00       181.34
  203.35        2954.25           1279          46.00       168.27
  203.38        2954.50           1282          48.00       176.98
  203.41        2954.75           1286          45.00       163.91
  203.44        2955.00           1289          44.00       159.55
  203.47        2955.25           1292          49.00       181.34
  203.50        2955.50           1296          45.00       163.91
  203.53        2955.75           1299          39.00       137.75
  203.56        2956.00           1302          43.00       155.19
  203.59        2956.25           1306          47.00       172.63
  203.62        2956.50           1309          49.00       181.34
  203.65        2956.75           1312          45.00       163.91
  203.68        2957.00           1316          45.00       163.91
  203.72        2957.25           1319          43.00       155.19
  203.75        2957.50           1322          36.00       124.67
  203.78        2957.75           1326          50.00       185.70
  203.81        2958.00           1329          47.00       172.63
  203.84        2958.25           1332          44.00       159.55
  203.87        2958.50           1336          43.00       155.19
  203.90        2958.75           1339          44.00       159.55
  203.93        2959.00           1342          49.00       181.34
  203.96        2959.25           1346          44.00       159.55
  203.99        2959.50           1349          51.00       190.06
  204.02        2959.75           1352          58.00       220.58
  204.06        2960.00           1356         101.00       408.03
  204.09        2960.25           1359         141.00       582.40
  204.12        2960.50           1362         168.00       700.10
  204.15        2960.75           1366         240.00      1013.98
  204.18        2961.00           1369         283.00      1201.44
  204.21        2961.25           1372         352.00      1502.25
  204.24        2961.50           1376         450.00      1929.49
  204.27        2961.75           1379         718.00      3097.93
  204.30        2962.00           1382        1489.00      6459.84
  204.33        2962.25           1386        3460.00     15057.37
  204.37        2962.50           1389        5282.00     23008.90
  204.40        2962.75           1392        7058.00     30763.34
  204.43        2963.00           1396        9442.00     41178.13
  204.46        2963.25           1399       11228.00     48984.75
  204.49        2963.50           1402       13129.00     57298.06
  204.52        2963.75           1406       15871.00     69296.48
  204.55        2964.00           1409       17773.00     77624.33
  204.58        2964.25           1412       19585.00     85561.98
  204.61        2964.50           1416       22342.00     97646.58
  204.65        2964.75           1419       24227.00    105914.00
  204.68        2965.00           1422       25988.00    113641.40
  204.71        2965.25           1426       28498.00    124661.50
  204.74        2965.50           1429       30410.00    133061.10
  204.77        2965.75           1432       32172.00    140805.40
  204.80        2966.00           1436       34726.00    152037.20
  204.83        2966.25           1439       36505.00    159865.10
  204.86        2966.50           1442       38192.00    167291.70
  204.90        2966.75           1446       39746.00    174135.80
  204.93        2967.00           1449       40168.00    175994.80
  204.96        2967.25           1452       40314.00    176638.00
  204.99        2967.50           1456       40309.00    176616.00
  205.02        2967.75           1459       40143.00    175884.70
  205.05        2968.00           1462       40003.00    175267.90
  205.08        2968.25           1466       38770.00    169837.00
  205.11        2968.50           1469       37328.00    163487.80
  205.14        2968.75           1472       35677.00    156221.30
  205.17        2969.00           1476       33000.00    144445.90
  205.21        2969.25           1479       31233.00    136677.90
  205.24        2969.50           1482       29368.00    128483.00
  205.27        2969.75           1486       26928.00    117767.60
  205.30        2970.00           1489       25138.00    109911.10
  205.33        2970.25           1492       23142.00    101154.80
  205.36        2970.50           1496       20783.00     90812.02
  205.39        2970.75           1499       18923.00     82661.58
  205.42        2971.00           1502       17063.00     74515.12
  205.45        2971.25           1506       14718.00     64250.15
  205.48        2971.50           1509       12898.00     56287.65
  205.52        2971.75           1513       10528.00     45924.61
  205.55        2972.00           1516        8637.00     37660.66
  205.58        2972.25           1519        6681.00     29116.97
  205.61        2972.50           1523        4306.00     18748.99
  205.64        2972.75           1526        2550.00     11087.39
  205.67        2973.00           1529        1137.00      4924.88
  205.70        2973.25           1533         478.00      2051.57
  205.73        2973.50           1536         356.00      1519.69
  205.76        2973.75           1539         290.00      1231.96
  205.79        2974.00           1543         251.00      1061.93
  205.82        2974.25           1546         162.00       673.95
  205.85        2974.50           1549         133.00       547.52
  205.89        2974.75           1553          79.00       312.12
  205.92        2975.00           1556          64.00       246.73
  205.95        2975.25           1559          54.00       203.14
  205.98        2975.50           1563          60.00       229.30
  206.01        2975.75           1566          49.00       181.34
  206.04        2976.00           1569          43.00       155.19
  206.07        2976.25           1573          46.00       168.27
  206.10        2976.50           1576          47.00       172.63
  206.13        2976.75           1579          46.00       168.27
  206.16        2977.00           1583          46.00       168.27
  206.19        2977.25           1586          43.00       155.19
  206.22        2977.50           1590          47.00       172.63
  206.25        2977.75           1593          44.00       159.55
  206.28        2978.00           1596          45.00       163.91
  206.32        2978.25           1600          45.00       163.91
  206.35        2978.50           1603          40.00       142.11
  206.38        2978.75           1606          50.00       185.70
  206.41        2979.00           1610          42.00       150.83
  206.44        2979.25           1613          46.00       168.27
  206.47        2979.50           1616          37.00       129.03
  206.50        2979.75           1620          48.00       176.98
  206.53        2980.00           1623          50.00       185.70
  206.56        2980.25           1626          46.00       168.27
  206.59        2980.50           1630          54.00       203.14
  206.62        2980.75           1633          43.00       155.19
  206.65        2981.00           1637          40.00       142.11
  206.68        2981.25           1640          46.00       168.27
  206.72        2981.50           1643          52.00       194.42
  206.75        2981.75           1647          38.00       133.39
  206.78        2982.00           1650          48.00       176.98
  206.81        2982.25           1653          46.00       168.27
  206.84        2982.50           1657          38.00       133.39
  206.87        2982.75           1660          41.00       146.47
  206.90        2983.00           1663          40.00       142.11
  206.93        2983.25           1667          42.00       150.83
  206.96        2983.50           1670          45.00       163.91
  206.99        2983.75           1673          48.00       176.98
  207.02        2984.00           1677          42.00       150.83
HS scan finished at 03:27:14
end
************************************************************
  HS Scan of (1) Internal mercury lamp
************************************************************
Integration time is 0.2294 seconds per sample
dh300517El Arenosillo 37.1 6.73 3.179721pr1000
************************************************************
Dead Time -------------------------  3E-08 
Number of Cycles Used -------------  4 
Starting Wavelength (Angstroms) ---  2950 
Final Wavelength (Angstoms) -------  2984 
Wavelength Increment (Angstroms) --  .25 
Filter Wheel #1 Position ---------- (1) Ground quartz diffuser (ND=2.32)
Filter Wheel #2 Position ---------- (1) Neutral Density 0.494



************************************************************
HS scan start time = 20:15:57
Dark Count =  5.4 


Time (GMT)  Wavelength (Ang)  Step Number  Raw Counts  Counts/Second

 1216.32        2950.00           1222          44.00       168.27
 1216.39        2950.25           1226          43.00       163.91
 1216.42        2950.50           1229          41.00       155.19
 1216.45        2950.75           1232          40.00       150.83
 1216.48        2951.00           1236          47.00       181.34
 1216.51        2951.25           1239          40.00       150.83
 1216.54        2951.50           1242          43.00       163.91
 1216.58        2951.75           1246          45.00       172.63
 1216.61        2952.00           1249          39.00       146.47
 1216.64        2952.25           1252          37.00       137.75
 1216.67        2952.50           1256          43.00       163.91
 1216.70        2952.75           1259          48.00       185.70
 1216.73        2953.00           1262          43.00       163.91
 1216.76        2953.25           1266          49.00       190.06
 1216.79        2953.50           1269          46.00       176.98
 1216.82        2953.75           1272          42.00       159.55
 1216.85        2954.00           1276          42.00       159.55
 1216.89        2954.25           1279          47.00       181.34
 1216.92        2954.50           1282          45.00       172.63
 1216.95        2954.75           1286          32.00       115.96
 1216.98        2955.00           1289          41.00       155.19
 1217.01        2955.25           1292          43.00       163.91
 1217.04        2955.50           1296          37.00       137.75
 1217.07        2955.75           1299          43.00       163.91
 1217.10        2956.00           1302          50.00       194.42
 1217.13        2956.25           1306          39.00       146.47
 1217.16        2956.50           1309          45.00       172.63
 1217.19        2956.75           1312          45.00       172.63
 1217.22        2957.00           1316          45.00       172.63
 1217.25        2957.25           1319          47.00       181.34
 1217.28        2957.50           1322          36.00       133.39
 1217.31        2957.75           1326          42.00       159.55
 1217.34        2958.00           1329          42.00       159.55
 1217.38        2958.25           1332          43.00       163.91
 1217.41        2958.50           1336          40.00       150.83
 1217.44        2958.75           1339          45.00       172.63
 1217.47        2959.00           1342          42.00       159.55
 1217.50        2959.25           1346          52.00       203.14
 1217.53        2959.50           1349          64.00       255.45
 1217.56        2959.75           1352          83.00       338.28
 1217.59        2960.00           1356         127.00       530.09
 1217.62        2960.25           1359         181.00       765.49
 1217.65        2960.50           1362         233.00       992.18
 1217.68        2960.75           1366         315.00      1349.66
 1217.72        2961.00           1369         372.00      1598.16
 1217.75        2961.25           1372         403.00      1733.31
 1217.78        2961.50           1376         487.00      2099.52
 1217.81        2961.75           1379         668.00      2888.65
 1217.84        2962.00           1382        1198.00      5199.59
 1217.87        2962.25           1386        2927.00     12740.70
 1217.90        2962.50           1389        4827.00     21031.58
 1217.93        2962.75           1392        6817.00     29719.60
 1217.96        2963.00           1396        9385.00     40937.78
 1217.99        2963.25           1399       11288.00     49255.82
 1218.02        2963.50           1402       13213.00     57674.25
 1218.06        2963.75           1406       16220.00     70833.01
 1218.09        2964.00           1409       18330.00     80072.68
 1218.12        2964.25           1412       20335.00     88857.31
 1218.15        2964.50           1416       23132.00    101119.70
 1218.18        2964.75           1419       25129.00    109880.40
 1218.21        2965.00           1422       27278.00    119313.00
 1218.24        2965.25           1426       30242.00    132331.60
 1218.27        2965.50           1429       31974.00    139943.80
 1218.30        2965.75           1432       34249.00    149947.70
 1218.34        2966.00           1436       36644.00    160485.70
 1218.37        2966.25           1439       38745.00    169735.70
 1218.40        2966.50           1442       40463.00    177303.30
 1218.43        2966.75           1446       42741.00    187342.90
 1218.46        2967.00           1449       43399.00    190244.00
 1218.49        2967.25           1452       43779.00    191919.60
 1218.52        2967.50           1456       43765.00    191857.90
 1218.55        2967.75           1459       43783.00    191937.30
 1218.58        2968.00           1462       43572.00    191006.80
 1218.61        2968.25           1466       42847.00    187810.20
 1218.65        2968.50           1469       41388.00    181379.20
 1218.68        2968.75           1472       39641.00    173682.10
 1218.71        2969.00           1476       37225.00    163043.20
 1218.74        2969.25           1479       34786.00    152309.90
 1218.77        2969.50           1482       32867.00    143869.90
 1218.80        2969.75           1486       30269.00    132450.30
 1218.83        2970.00           1489       28171.00    123234.20
 1218.86        2970.25           1492       26214.00    114642.10
 1218.89        2970.50           1496       23670.00    103479.40
 1218.92        2970.75           1499       21416.00     93595.48
 1218.96        2971.00           1502       19469.00     85062.48
 1218.99        2971.25           1506       16792.00     73337.28
 1219.02        2971.50           1509       14941.00     65234.78
 1219.05        2971.75           1513       12178.00     53147.45
 1219.08        2972.00           1516       10356.00     45181.51
 1219.11        2972.25           1519        8313.00     36253.88
 1219.14        2972.50           1523        5393.00     23502.18
 1219.17        2972.75           1526        3421.00     14895.93
 1219.20        2973.00           1529        1687.00      7332.04
 1219.24        2973.25           1533         560.00      2417.79
 1219.27        2973.50           1536         400.00      1720.23
 1219.30        2973.75           1539         338.00      1449.93
 1219.33        2974.00           1543         263.00      1122.97
 1219.36        2974.25           1546         184.00       778.57
 1219.39        2974.50           1549         134.00       560.60
 1219.42        2974.75           1553          79.00       320.84
 1219.45        2975.00           1556          64.00       255.45
 1219.48        2975.25           1559          51.00       198.78
 1219.51        2975.50           1563          47.00       181.34
 1219.54        2975.75           1566          48.00       185.70
 1219.57        2976.00           1569          52.00       203.14
 1219.60        2976.25           1573          47.00       181.34
 1219.63        2976.50           1576          45.00       172.63
 1219.67        2976.75           1579          53.00       207.50
 1219.70        2977.00           1583          39.00       146.47
 1219.73        2977.25           1586          42.00       159.55
 1219.76        2977.50           1590          45.00       172.63
 1219.79        2977.75           1593          40.00       150.83
 1219.82        2978.00           1596          43.00       163.91
 1219.85        2978.25           1600          43.00       163.91
 1219.88        2978.50           1603          47.00       181.34
 1219.91        2978.75           1606          47.00       181.34
 1219.94        2979.00           1610          45.00       172.63
 1219.97        2979.25           1613          43.00       163.91
 1220.00        2979.50           1616          41.00       155.19
 1220.04        2979.75           1620          46.00       176.98
 1220.07        2980.00           1623          44.00       168.27
 1220.10        2980.25           1626          51.00       198.78
 1220.13        2980.50           1630          39.00       146.47
 1220.16        2980.75           1633          42.00       159.55
 1220.19        2981.00           1637          48.00       185.70
 1220.22        2981.25           1640          37.00       137.75
 1220.25        2981.50           1643          48.00       185.70
 1220.28        2981.75           1647          45.00       172.63
 1220.31        2982.00           1650          46.00       176.98
 1220.34        2982.25           1653          49.00       190.06
 1220.37        2982.50           1657          40.00       150.83
 1220.41        2982.75           1660          40.00       150.83
 1220.44        2983.00           1663          44.00       168.27
 1220.47        2983.25           1667          45.00       172.63
 1220.50        2983.50           1670          40.00       150.83
 1220.53        2983.75           1673          43.00       163.91
 1220.56        2984.00           1677          50.00       194.42
HS scan finished at 20:20:47
end
