************************************************************
  HS Scan of (1) Internal mercury lamp
************************************************************
Integration time is 0.2294 seconds per sample
dh060617El Arenosillo 37.1 6.73 3.018777pr1000
************************************************************
Dead Time -------------------------  3E-08 
Number of Cycles Used -------------  4 
Starting Wavelength (Angstroms) ---  2950 
Final Wavelength (Angstoms) -------  2984 
Wavelength Increment (Angstroms) --  .25 
Filter Wheel #1 Position ---------- (1) Ground quartz diffuser (ND=2.32)
Filter Wheel #2 Position ---------- (1) Neutral Density 0.494



************************************************************
HS scan start time = 02:03:35
Dark Count =  7.2 


Time (GMT)  Wavelength (Ang)  Step Number  Raw Counts  Counts/Second

  123.95        2950.00           1222          46.00       169.14
  124.01        2950.25           1226          44.00       160.42
  124.05        2950.50           1229          41.00       147.34
  124.08        2950.75           1232          48.00       177.86
  124.11        2951.00           1236          49.00       182.22
  124.14        2951.25           1239          41.00       147.34
  124.17        2951.50           1242          43.00       156.06
  124.20        2951.75           1246          37.00       129.90
  124.23        2952.00           1249          37.00       129.90
  124.26        2952.25           1252          45.00       164.78
  124.29        2952.50           1256          44.00       160.42
  124.32        2952.75           1259          46.00       169.14
  124.35        2953.00           1262          43.00       156.06
  124.38        2953.25           1266          39.00       138.62
  124.41        2953.50           1269          40.00       142.98
  124.45        2953.75           1272          47.00       173.50
  124.48        2954.00           1276          45.00       164.78
  124.51        2954.25           1279          46.00       169.14
  124.54        2954.50           1282          38.00       134.26
  124.57        2954.75           1286          43.00       156.06
  124.60        2955.00           1289          48.00       177.86
  124.63        2955.25           1292          46.00       169.14
  124.66        2955.50           1296          43.00       156.06
  124.69        2955.75           1299          41.00       147.34
  124.72        2956.00           1302          50.00       186.57
  124.75        2956.25           1306          45.00       164.78
  124.78        2956.50           1309          45.00       164.78
  124.81        2956.75           1312          46.00       169.14
  124.84        2957.00           1316          50.00       186.57
  124.87        2957.25           1319          39.00       138.62
  124.91        2957.50           1322          39.00       138.62
  124.94        2957.75           1326          44.00       160.42
  124.97        2958.00           1329          48.00       177.86
  125.00        2958.25           1332          49.00       182.22
  125.03        2958.50           1336          42.00       151.70
  125.06        2958.75           1339          51.00       190.93
  125.09        2959.00           1342          50.00       186.57
  125.12        2959.25           1346          40.00       142.98
  125.15        2959.50           1349          55.00       208.37
  125.18        2959.75           1352          81.00       321.71
  125.21        2960.00           1356         119.00       487.37
  125.24        2960.25           1359         163.00       679.18
  125.27        2960.50           1362         208.00       875.35
  125.30        2960.75           1366         265.00      1123.84
  125.34        2961.00           1369         308.00      1311.30
  125.37        2961.25           1372         370.00      1581.59
  125.40        2961.50           1376         482.00      2069.88
  125.43        2961.75           1379         692.00      2985.45
  125.46        2962.00           1382        1375.00      5963.58
  125.49        2962.25           1386        3491.00     15193.50
  125.52        2962.50           1389        5502.00     23970.15
  125.55        2962.75           1392        7315.00     31886.63
  125.58        2963.00           1396        9936.00     43337.91
  125.61        2963.25           1399       11612.00     50664.57
  125.65        2963.50           1402       13636.00     59516.81
  125.68        2963.75           1406       16354.00     71411.77
  125.71        2964.00           1409       18346.00     80134.88
  125.74        2964.25           1412       20136.00     87977.32
  125.77        2964.50           1416       22777.00     99554.96
  125.80        2964.75           1419       24737.00    108152.50
  125.83        2965.00           1422       26657.00    116578.80
  125.86        2965.25           1426       29411.00    128672.70
  125.89        2965.50           1429       31372.00    137289.70
  125.93        2965.75           1432       33185.00    145260.30
  125.96        2966.00           1436       35673.00    156204.60
  125.99        2966.25           1439       37437.00    163968.50
  126.02        2966.50           1442       39096.00    171273.60
  126.05        2966.75           1446       40813.00    178837.50
  126.08        2967.00           1449       41463.00    181701.80
  126.11        2967.25           1452       41467.00    181719.40
  126.14        2967.50           1456       41522.00    181961.80
  126.17        2967.75           1459       41559.00    182124.90
  126.20        2968.00           1462       41141.00    180282.80
  126.23        2968.25           1466       39916.00    174885.50
  126.27        2968.50           1469       38201.00    167332.20
  126.30        2968.75           1472       36306.00    158990.20
  126.33        2969.00           1476       33882.00    148325.50
  126.36        2969.25           1479       31951.00    139834.70
  126.39        2969.50           1482       30372.00    132895.00
  126.42        2969.75           1486       27613.00    120776.00
  126.45        2970.00           1489       25756.00    112624.00
  126.48        2970.25           1492       23786.00    103980.30
  126.51        2970.50           1496       21479.00     93863.77
  126.54        2970.75           1499       19581.00     85545.33
  126.58        2971.00           1502       17693.00     77274.84
  126.61        2971.25           1506       14978.00     65388.83
  126.64        2971.50           1509       12908.00     56332.26
  126.67        2971.75           1513       10563.00     46078.48
  126.70        2972.00           1516        8674.00     37823.19
  126.73        2972.25           1519        6758.00     29454.09
  126.76        2972.50           1523        4434.00     19308.48
  126.79        2972.75           1526        2708.00     11777.48
  126.82        2973.00           1529        1219.00      5283.31
  126.86        2973.25           1533         492.00      2113.47
  126.89        2973.50           1536         355.00      1516.20
  126.92        2973.75           1539         307.00      1306.94
  126.95        2974.00           1543         229.00       966.90
  126.98        2974.25           1546         156.00       648.66
  127.01        2974.50           1549         120.00       491.72
  127.04        2974.75           1553          79.00       312.99
  127.07        2975.00           1556          63.00       243.25
  127.10        2975.25           1559          60.00       230.17
  127.13        2975.50           1563          52.00       195.29
  127.16        2975.75           1566          52.00       195.29
  127.19        2976.00           1569          47.00       173.50
  127.22        2976.25           1573          39.00       138.62
  127.26        2976.50           1576          45.00       164.78
  127.29        2976.75           1579          41.00       147.34
  127.32        2977.00           1583          41.00       147.34
  127.35        2977.25           1586          48.00       177.86
  127.38        2977.50           1590          43.00       156.06
  127.41        2977.75           1593          43.00       156.06
  127.44        2978.00           1596          52.00       195.29
  127.47        2978.25           1600          43.00       156.06
  127.50        2978.50           1603          43.00       156.06
  127.53        2978.75           1606          43.00       156.06
  127.56        2979.00           1610          43.00       156.06
  127.60        2979.25           1613          46.00       169.14
  127.63        2979.50           1616          43.00       156.06
  127.66        2979.75           1620          45.00       164.78
  127.69        2980.00           1623          47.00       173.50
  127.72        2980.25           1626          41.00       147.34
  127.75        2980.50           1630          40.00       142.98
  127.78        2980.75           1633          38.00       134.26
  127.81        2981.00           1637          46.00       169.14
  127.84        2981.25           1640          48.00       177.86
  127.88        2981.50           1643          47.00       173.50
  127.91        2981.75           1647          45.00       164.78
  127.94        2982.00           1650          39.00       138.62
  127.97        2982.25           1653          38.00       134.26
  128.00        2982.50           1657          43.00       156.06
  128.03        2982.75           1660          42.00       151.70
  128.06        2983.00           1663          47.00       173.50
  128.09        2983.25           1667          43.00       156.06
  128.12        2983.50           1670          48.00       177.86
  128.15        2983.75           1673          48.00       177.86
  128.18        2984.00           1677          41.00       147.34
HS scan finished at 02:08:24
end
************************************************************
  HS Scan of (1) Internal mercury lamp
************************************************************
Integration time is 0.2294 seconds per sample
dh060617El Arenosillo 37.1 6.73 3.126073pr1000
************************************************************
Dead Time -------------------------  3E-08 
Number of Cycles Used -------------  4 
Starting Wavelength (Angstroms) ---  2950 
Final Wavelength (Angstoms) -------  2984 
Wavelength Increment (Angstroms) --  .25 
Filter Wheel #1 Position ---------- (1) Ground quartz diffuser (ND=2.32)
Filter Wheel #2 Position ---------- (1) Neutral Density 0.494



************************************************************
HS scan start time = 20:38:39
Dark Count =  5.1 


Time (GMT)  Wavelength (Ang)  Step Number  Raw Counts  Counts/Second

 1239.02        2950.00           1222          41.00       156.50
 1239.09        2950.25           1226          41.00       156.50
 1239.12        2950.50           1229          40.00       152.14
 1239.15        2950.75           1232          40.00       152.14
 1239.18        2951.00           1236          40.00       152.14
 1239.21        2951.25           1239          37.00       139.06
 1239.24        2951.50           1242          49.00       191.37
 1239.27        2951.75           1246          37.00       139.06
 1239.31        2952.00           1249          43.00       165.21
 1239.34        2952.25           1252          43.00       165.21
 1239.37        2952.50           1256          47.00       182.65
 1239.40        2952.75           1259          44.00       169.57
 1239.43        2953.00           1262          40.00       152.14
 1239.46        2953.25           1266          41.00       156.50
 1239.49        2953.50           1269          37.00       139.06
 1239.52        2953.75           1272          51.00       200.09
 1239.55        2954.00           1276          36.00       134.70
 1239.58        2954.25           1279          42.00       160.86
 1239.61        2954.50           1282          40.00       152.14
 1239.64        2954.75           1286          47.00       182.65
 1239.68        2955.00           1289          37.00       139.06
 1239.71        2955.25           1292          45.00       173.93
 1239.74        2955.50           1296          43.00       165.21
 1239.77        2955.75           1299          39.00       147.78
 1239.80        2956.00           1302          49.00       191.37
 1239.83        2956.25           1306          43.00       165.21
 1239.86        2956.50           1309          46.00       178.29
 1239.89        2956.75           1312          49.00       191.37
 1239.92        2957.00           1316          37.00       139.06
 1239.95        2957.25           1319          40.00       152.14
 1239.98        2957.50           1322          41.00       156.50
 1240.01        2957.75           1326          40.00       152.14
 1240.05        2958.00           1329          47.00       182.65
 1240.08        2958.25           1332          44.00       169.57
 1240.11        2958.50           1336          42.00       160.86
 1240.14        2958.75           1339          47.00       182.65
 1240.17        2959.00           1342          41.00       156.50
 1240.20        2959.25           1346          49.00       191.37
 1240.23        2959.50           1349          50.00       195.73
 1240.26        2959.75           1352          85.00       348.30
 1240.29        2960.00           1356         110.00       457.29
 1240.32        2960.25           1359         164.00       692.69
 1240.36        2960.50           1362         224.00       954.26
 1240.39        2960.75           1366         282.00      1207.11
 1240.42        2961.00           1369         329.00      1412.00
 1240.45        2961.25           1372         394.00      1695.38
 1240.48        2961.50           1376         470.00      2026.71
 1240.51        2961.75           1379         622.00      2689.41
 1240.54        2962.00           1382        1147.00      4978.51
 1240.57        2962.25           1386        2795.00     12166.17
 1240.60        2962.50           1389        4660.00     20303.99
 1240.63        2962.75           1392        6699.00     29205.61
 1240.66        2963.00           1396        9380.00     40917.24
 1240.70        2963.25           1399       11189.00     48824.30
 1240.73        2963.50           1402       12971.00     56617.01
 1240.76        2963.75           1406       15928.00     69556.07
 1240.79        2964.00           1409       18054.00     78865.11
 1240.82        2964.25           1412       20223.00     88367.78
 1240.85        2964.50           1416       22929.00    100230.80
 1240.88        2964.75           1419       24774.00    108324.00
 1240.91        2965.00           1422       26820.00    117303.50
 1240.94        2965.25           1426       29457.00    128884.00
 1240.97        2965.50           1429       31491.00    137822.00
 1241.00        2965.75           1432       33732.00    147675.00
 1241.04        2966.00           1436       36504.00    159870.90
 1241.07        2966.25           1439       38274.00    167662.90
 1241.10        2966.50           1442       40237.00    176308.90
 1241.13        2966.75           1446       41966.00    183928.00
 1241.16        2967.00           1449       43047.00    188693.30
 1241.19        2967.25           1452       43170.00    189235.60
 1241.22        2967.50           1456       43180.00    189279.70
 1241.25        2967.75           1459       43025.00    188596.30
 1241.28        2968.00           1462       43184.00    189297.40
 1241.31        2968.25           1466       42340.00    185576.50
 1241.34        2968.50           1469       40934.00    179379.90
 1241.38        2968.75           1472       39173.00    171622.00
 1241.41        2969.00           1476       36577.00    160192.10
 1241.44        2969.25           1479       34678.00    151836.10
 1241.47        2969.50           1482       32730.00    143268.80
 1241.50        2969.75           1486       29879.00    130738.00
 1241.53        2970.00           1489       27730.00    121298.90
 1241.56        2970.25           1492       25702.00    112396.20
 1241.59        2970.50           1496       23383.00    102221.90
 1241.63        2970.75           1499       21264.00     92930.48
 1241.66        2971.00           1502       19246.00     84086.75
 1241.69        2971.25           1506       16766.00     73224.77
 1241.72        2971.50           1509       14883.00     64982.27
 1241.75        2971.75           1513       12269.00     53546.72
 1241.78        2972.00           1516       10450.00     45593.71
 1241.81        2972.25           1519        8449.00     36849.35
 1241.84        2972.50           1523        5870.00     25585.89
 1241.87        2972.75           1526        3908.00     17022.21
 1241.90        2973.00           1529        2122.00      9230.54
 1241.93        2973.25           1533         658.00      2846.36
 1241.97        2973.50           1536         391.00      1682.30
 1242.00        2973.75           1539         323.00      1385.85
 1242.03        2974.00           1543         269.00      1150.43
 1242.06        2974.25           1546         201.00       853.99
 1242.09        2974.50           1549         145.00       609.86
 1242.12        2974.75           1553          95.00       391.90
 1242.15        2975.00           1556          71.00       287.27
 1242.18        2975.25           1559          52.00       204.45
 1242.21        2975.50           1563          50.00       195.73
 1242.24        2975.75           1566          41.00       156.50
 1242.27        2976.00           1569          48.00       187.01
 1242.30        2976.25           1573          38.00       143.42
 1242.33        2976.50           1576          43.00       165.21
 1242.36        2976.75           1579          32.00       117.26
 1242.39        2977.00           1583          45.00       173.93
 1242.43        2977.25           1586          44.00       169.57
 1242.46        2977.50           1590          48.00       187.01
 1242.49        2977.75           1593          42.00       160.86
 1242.52        2978.00           1596          40.00       152.14
 1242.55        2978.25           1600          45.00       173.93
 1242.58        2978.50           1603          38.00       143.42
 1242.61        2978.75           1606          44.00       169.57
 1242.64        2979.00           1610          38.00       143.42
 1242.67        2979.25           1613          48.00       187.01
 1242.70        2979.50           1616          50.00       195.73
 1242.73        2979.75           1620          40.00       152.14
 1242.76        2980.00           1623          45.00       173.93
 1242.80        2980.25           1626          37.00       139.06
 1242.83        2980.50           1630          42.00       160.86
 1242.86        2980.75           1633          48.00       187.01
 1242.89        2981.00           1637          45.00       173.93
 1242.92        2981.25           1640          41.00       156.50
 1242.95        2981.50           1643          42.00       160.86
 1242.98        2981.75           1647          46.00       178.29
 1243.01        2982.00           1650          41.00       156.50
 1243.04        2982.25           1653          40.00       152.14
 1243.07        2982.50           1657          45.00       173.93
 1243.10        2982.75           1660          45.00       173.93
 1243.13        2983.00           1663          42.00       160.86
 1243.17        2983.25           1667          40.00       152.14
 1243.20        2983.50           1670          37.00       139.06
 1243.23        2983.75           1673          39.00       147.78
 1243.26        2984.00           1677          38.00       143.42
HS scan finished at 20:43:29
end
