************************************************************
  HS Scan of (1) Internal mercury lamp
************************************************************
Integration time is 0.2294 seconds per sample
dh080617El Arenosillo 37.1 6.73 3.018777pr1000
************************************************************
Dead Time -------------------------  3E-08 
Number of Cycles Used -------------  4 
Starting Wavelength (Angstroms) ---  2950 
Final Wavelength (Angstoms) -------  2984 
Wavelength Increment (Angstroms) --  .25 
Filter Wheel #1 Position ---------- (1) Ground quartz diffuser (ND=2.32)
Filter Wheel #2 Position ---------- (1) Neutral Density 0.494



************************************************************
HS scan start time = 01:59:46
Dark Count =  5.4 


Time (GMT)  Wavelength (Ang)  Step Number  Raw Counts  Counts/Second

  120.13        2950.00           1222          50.00       194.42
  120.20        2950.25           1226          46.00       176.98
  120.23        2950.50           1229          38.00       142.11
  120.26        2950.75           1232          42.00       159.55
  120.29        2951.00           1236          48.00       185.70
  120.32        2951.25           1239          37.00       137.75
  120.35        2951.50           1242          43.00       163.91
  120.38        2951.75           1246          42.00       159.55
  120.42        2952.00           1249          49.00       190.06
  120.45        2952.25           1252          39.00       146.47
  120.48        2952.50           1256          40.00       150.83
  120.51        2952.75           1259          41.00       155.19
  120.54        2953.00           1262          40.00       150.83
  120.57        2953.25           1266          49.00       190.06
  120.60        2953.50           1269          39.00       146.47
  120.63        2953.75           1272          52.00       203.14
  120.66        2954.00           1276          43.00       163.91
  120.69        2954.25           1279          44.00       168.27
  120.72        2954.50           1282          43.00       163.91
  120.76        2954.75           1286          39.00       146.47
  120.79        2955.00           1289          42.00       159.55
  120.82        2955.25           1292          51.00       198.78
  120.85        2955.50           1296          49.00       190.06
  120.88        2955.75           1299          42.00       159.55
  120.91        2956.00           1302          46.00       176.98
  120.94        2956.25           1306          48.00       185.70
  120.97        2956.50           1309          43.00       163.91
  121.00        2956.75           1312          40.00       150.83
  121.03        2957.00           1316          41.00       155.19
  121.06        2957.25           1319          45.00       172.63
  121.09        2957.50           1322          41.00       155.19
  121.12        2957.75           1326          39.00       146.47
  121.16        2958.00           1329          47.00       181.34
  121.19        2958.25           1332          41.00       155.19
  121.22        2958.50           1336          43.00       163.91
  121.25        2958.75           1339          48.00       185.70
  121.28        2959.00           1342          52.00       203.14
  121.31        2959.25           1346          44.00       168.27
  121.34        2959.50           1349          61.00       242.37
  121.37        2959.75           1352          78.00       316.48
  121.40        2960.00           1356         130.00       543.16
  121.43        2960.25           1359         163.00       687.02
  121.46        2960.50           1362         192.00       813.45
  121.49        2960.75           1366         276.00      1179.64
  121.53        2961.00           1369         311.00      1332.22
  121.56        2961.25           1372         382.00      1641.75
  121.59        2961.50           1376         542.00      2339.31
  121.62        2961.75           1379         989.00      4288.26
  121.65        2962.00           1382        2154.00      9368.81
  121.68        2962.25           1386        4441.00     19346.88
  121.71        2962.50           1389        6294.00     27435.83
  121.74        2962.75           1392        8017.00     34960.80
  121.77        2963.00           1396       10468.00     45671.08
  121.81        2963.25           1399       12187.00     53186.81
  121.84        2963.50           1402       14076.00     61449.71
  121.87        2963.75           1406       16886.00     73748.86
  121.90        2964.00           1409       18775.00     82021.98
  121.93        2964.25           1412       20752.00     90684.92
  121.96        2964.50           1416       23601.00    103176.80
  121.99        2964.75           1419       25462.00    111341.70
  122.02        2965.00           1422       27417.00    119923.30
  122.05        2965.25           1426       29754.00    130187.50
  122.09        2965.50           1429       31858.00    139433.80
  122.12        2965.75           1432       33861.00    148241.10
  122.15        2966.00           1436       36180.00    158443.60
  122.18        2966.25           1439       37970.00    166323.10
  122.21        2966.50           1442       39563.00    173338.50
  122.24        2966.75           1446       40918.00    179308.10
  122.27        2967.00           1449       41076.00    180004.30
  122.30        2967.25           1452       41156.00    180356.90
  122.33        2967.50           1456       41127.00    180229.10
  122.36        2967.75           1459       41188.00    180497.90
  122.40        2968.00           1462       40488.00    177413.40
  122.43        2968.25           1466       38961.00    170687.00
  122.46        2968.50           1469       37368.00    163672.70
  122.49        2968.75           1472       35614.00    155952.90
  122.52        2969.00           1476       33390.00    146169.70
  122.55        2969.25           1479       31373.00    137302.00
  122.58        2969.50           1482       29537.00    129234.20
  122.61        2969.75           1486       26863.00    117491.00
  122.64        2970.00           1489       25017.00    109388.90
  122.68        2970.25           1492       23017.00    100615.40
  122.71        2970.50           1496       20462.00     89413.89
  122.74        2970.75           1499       18624.00     81360.51
  122.77        2971.00           1502       16691.00     72895.08
  122.80        2971.25           1506       14167.00     61847.87
  122.83        2971.50           1509       12180.00     53156.19
  122.86        2971.75           1513        9737.00     42476.06
  122.89        2972.00           1516        7850.00     34231.30
  122.92        2972.25           1519        5919.00     25798.51
  122.96        2972.50           1523        3595.00     15655.13
  122.99        2972.75           1526        2024.00      8801.80
  123.02        2973.00           1529         843.00      3651.66
  123.05        2973.25           1533         446.00      1920.77
  123.08        2973.50           1536         340.00      1458.65
  123.11        2973.75           1539         300.00      1284.27
  123.14        2974.00           1543         251.00      1070.65
  123.17        2974.25           1546         175.00       739.34
  123.20        2974.50           1549         120.00       499.57
  123.23        2974.75           1553          81.00       329.56
  123.27        2975.00           1556          62.00       246.73
  123.30        2975.25           1559          49.00       190.06
  123.33        2975.50           1563          50.00       194.42
  123.36        2975.75           1566          47.00       181.34
  123.39        2976.00           1569          40.00       150.83
  123.42        2976.25           1573          44.00       168.27
  123.45        2976.50           1576          37.00       137.75
  123.48        2976.75           1579          45.00       172.63
  123.51        2977.00           1583          41.00       155.19
  123.54        2977.25           1586          47.00       181.34
  123.58        2977.50           1590          45.00       172.63
  123.61        2977.75           1593          42.00       159.55
  123.64        2978.00           1596          39.00       146.47
  123.67        2978.25           1600          45.00       172.63
  123.70        2978.50           1603          41.00       155.19
  123.73        2978.75           1606          49.00       190.06
  123.76        2979.00           1610          42.00       159.55
  123.79        2979.25           1613          47.00       181.34
  123.82        2979.50           1616          44.00       168.27
  123.85        2979.75           1620          48.00       185.70
  123.88        2980.00           1623          47.00       181.34
  123.92        2980.25           1626          47.00       181.34
  123.95        2980.50           1630          46.00       176.98
  123.98        2980.75           1633          43.00       163.91
  124.01        2981.00           1637          41.00       155.19
  124.04        2981.25           1640          37.00       137.75
  124.07        2981.50           1643          41.00       155.19
  124.10        2981.75           1647          49.00       190.06
  124.13        2982.00           1650          48.00       185.70
  124.16        2982.25           1653          46.00       176.98
  124.19        2982.50           1657          43.00       163.91
  124.22        2982.75           1660          43.00       163.91
  124.25        2983.00           1663          45.00       172.63
  124.28        2983.25           1667          40.00       150.83
  124.32        2983.50           1670          40.00       150.83
  124.35        2983.75           1673          46.00       176.98
  124.38        2984.00           1677          43.00       163.91
HS scan finished at 02:04:36
end
