************************************************************
  HS Scan of (1) Internal mercury lamp
************************************************************
Integration time is 0.2294 seconds per sample
dh020617El Arenosillo 37.1 6.73 3.179721pr1000
************************************************************
Dead Time -------------------------  3E-08 
Number of Cycles Used -------------  4 
Starting Wavelength (Angstroms) ---  2950 
Final Wavelength (Angstoms) -------  2984 
Wavelength Increment (Angstroms) --  .25 
Filter Wheel #1 Position ---------- (1) Ground quartz diffuser (ND=2.32)
Filter Wheel #2 Position ---------- (1) Neutral Density 0.494



************************************************************
HS scan start time = 01:49:28
Dark Count =  5.8 


Time (GMT)  Wavelength (Ang)  Step Number  Raw Counts  Counts/Second

  109.84        2950.00           1222          38.00       140.37
  109.91        2950.25           1226          49.00       188.32
  109.94        2950.50           1229          41.00       153.44
  109.97        2950.75           1232          38.00       140.37
  110.00        2951.00           1236          40.00       149.09
  110.03        2951.25           1239          54.00       210.11
  110.06        2951.50           1242          46.00       175.24
  110.09        2951.75           1246          47.00       179.60
  110.12        2952.00           1249          40.00       149.09
  110.16        2952.25           1252          40.00       149.09
  110.19        2952.50           1256          43.00       162.16
  110.22        2952.75           1259          41.00       153.44
  110.25        2953.00           1262          46.00       175.24
  110.28        2953.25           1266          39.00       144.73
  110.31        2953.50           1269          46.00       175.24
  110.34        2953.75           1272          42.00       157.80
  110.37        2954.00           1276          44.00       166.52
  110.40        2954.25           1279          46.00       175.24
  110.43        2954.50           1282          41.00       153.44
  110.46        2954.75           1286          35.00       127.29
  110.49        2955.00           1289          44.00       166.52
  110.52        2955.25           1292          45.00       170.88
  110.55        2955.50           1296          46.00       175.24
  110.59        2955.75           1299          39.00       144.73
  110.62        2956.00           1302          45.00       170.88
  110.65        2956.25           1306          40.00       149.09
  110.68        2956.50           1309          40.00       149.09
  110.71        2956.75           1312          41.00       153.44
  110.74        2957.00           1316          38.00       140.37
  110.77        2957.25           1319          41.00       153.44
  110.80        2957.50           1322          45.00       170.88
  110.83        2957.75           1326          39.00       144.73
  110.86        2958.00           1329          44.00       166.52
  110.89        2958.25           1332          39.00       144.73
  110.92        2958.50           1336          41.00       153.44
  110.95        2958.75           1339          40.00       149.09
  110.99        2959.00           1342          48.00       183.96
  111.02        2959.25           1346          53.00       205.76
  111.05        2959.50           1349          75.00       301.66
  111.08        2959.75           1352         102.00       419.36
  111.11        2960.00           1356         146.00       611.17
  111.14        2960.25           1359         195.00       824.78
  111.17        2960.50           1362         252.00      1073.27
  111.20        2960.75           1366         342.00      1465.63
  111.23        2961.00           1369         386.00      1657.45
  111.26        2961.25           1372         394.00      1692.33
  111.29        2961.50           1376         614.00      2651.48
  111.33        2961.75           1379        1082.00      4692.03
  111.36        2962.00           1382        2314.00     10064.94
  111.39        2962.25           1386        4882.00     21269.89
  111.42        2962.50           1389        6963.00     30355.45
  111.45        2962.75           1392        8855.00     38620.13
  111.48        2963.00           1396       11672.00     50933.05
  111.51        2963.25           1399       13703.00     59816.06
  111.54        2963.50           1402       15828.00     69115.26
  111.57        2963.75           1406       18656.00     81498.93
  111.60        2964.00           1409       20620.00     90104.61
  111.63        2964.25           1412       22780.00     99574.25
  111.66        2964.50           1416       25463.00    111344.30
  111.70        2964.75           1419       27484.00    120215.70
  111.73        2965.00           1422       29656.00    129755.20
  111.76        2965.25           1426       32328.00    141498.20
  111.79        2965.50           1429       34499.00    151045.60
  111.82        2965.75           1432       36891.00    161571.10
  111.85        2966.00           1436       39553.00    173292.70
  111.88        2966.25           1439       41407.00    181461.20
  111.91        2966.50           1442       43195.00    189342.70
  111.94        2966.75           1446       44342.00    194400.70
  111.98        2967.00           1449       44740.00    196156.20
  112.01        2967.25           1452       44614.00    195600.40
  112.04        2967.50           1456       44753.00    196213.50
  112.07        2967.75           1459       44686.00    195918.00
  112.10        2968.00           1462       44138.00    193501.00
  112.13        2968.25           1466       42033.00    184220.20
  112.16        2968.50           1469       40578.00    177808.20
  112.19        2968.75           1472       38224.00    167439.70
  112.23        2969.00           1476       35529.00    155577.10
  112.26        2969.25           1479       33423.00    146313.00
  112.29        2969.50           1482       31308.00    137014.50
  112.32        2969.75           1486       28747.00    125762.20
  112.35        2970.00           1489       26751.00    116997.60
  112.38        2970.25           1492       24870.00    108742.10
  112.41        2970.50           1496       22029.00     96281.19
  112.44        2970.75           1499       20080.00     87738.04
  112.47        2971.00           1502       18041.00     78805.10
  112.50        2971.25           1506       15060.00     65753.82
  112.53        2971.50           1509       13037.00     56902.64
  112.57        2971.75           1513       10392.00     45337.13
  112.60        2972.00           1516        8336.00     36352.61
  112.63        2972.25           1519        6343.00     27648.04
  112.66        2972.50           1523        3593.00     15644.66
  112.69        2972.75           1526        1774.00      7709.72
  112.72        2973.00           1529         771.00      3335.99
  112.75        2973.25           1533         478.00      2058.54
  112.78        2973.50           1536         364.00      1561.54
  112.81        2973.75           1539         320.00      1369.72
  112.84        2974.00           1543         258.00      1099.43
  112.88        2974.25           1546         171.00       720.16
  112.91        2974.50           1549         123.00       510.91
  112.94        2974.75           1553          84.00       340.89
  112.97        2975.00           1556          63.00       249.35
  113.00        2975.25           1559          51.00       197.04
  113.03        2975.50           1563          46.00       175.24
  113.06        2975.75           1566          39.00       144.73
  113.09        2976.00           1569          46.00       175.24
  113.12        2976.25           1573          48.00       183.96
  113.15        2976.50           1576          46.00       175.24
  113.18        2976.75           1579          40.00       149.09
  113.21        2977.00           1583          49.00       188.32
  113.25        2977.25           1586          50.00       192.68
  113.28        2977.50           1590          44.00       166.52
  113.31        2977.75           1593          51.00       197.04
  113.34        2978.00           1596          47.00       179.60
  113.37        2978.25           1600          42.00       157.80
  113.40        2978.50           1603          42.00       157.80
  113.43        2978.75           1606          46.00       175.24
  113.46        2979.00           1610          44.00       166.52
  113.49        2979.25           1613          40.00       149.09
  113.53        2979.50           1616          52.00       201.40
  113.56        2979.75           1620          41.00       153.44
  113.59        2980.00           1623          45.00       170.88
  113.62        2980.25           1626          43.00       162.16
  113.65        2980.50           1630          42.00       157.80
  113.68        2980.75           1633          41.00       153.44
  113.71        2981.00           1637          38.00       140.37
  113.74        2981.25           1640          45.00       170.88
  113.77        2981.50           1643          39.00       144.73
  113.80        2981.75           1647          38.00       140.37
  113.83        2982.00           1650          43.00       162.16
  113.87        2982.25           1653          36.00       131.65
  113.90        2982.50           1657          44.00       166.52
  113.93        2982.75           1660          45.00       170.88
  113.96        2983.00           1663          38.00       140.37
  113.99        2983.25           1667          44.00       166.52
  114.02        2983.50           1670          43.00       162.16
  114.05        2983.75           1673          43.00       162.16
  114.08        2984.00           1677          48.00       183.96
HS scan finished at 01:54:18
end
************************************************************
  HS Scan of (1) Internal mercury lamp
************************************************************
Integration time is 0.2294 seconds per sample
dh020617El Arenosillo 37.1 6.73 3.179721pr1000
************************************************************
Dead Time -------------------------  3E-08 
Number of Cycles Used -------------  4 
Starting Wavelength (Angstroms) ---  2950 
Final Wavelength (Angstoms) -------  2984 
Wavelength Increment (Angstroms) --  .25 
Filter Wheel #1 Position ---------- (1) Ground quartz diffuser (ND=2.32)
Filter Wheel #2 Position ---------- (1) Neutral Density 0.494



************************************************************
HS scan start time = 21:36:11
Dark Count =  5.9 


Time (GMT)  Wavelength (Ang)  Step Number  Raw Counts  Counts/Second

 1296.55        2950.00           1222          43.00       161.73
 1296.62        2950.25           1226          45.00       170.45
 1296.65        2950.50           1229          40.00       148.65
 1296.68        2950.75           1232          41.00       153.01
 1296.71        2951.00           1236          47.00       179.16
 1296.74        2951.25           1239          41.00       153.01
 1296.77        2951.50           1242          45.00       170.45
 1296.80        2951.75           1246          41.00       153.01
 1296.83        2952.00           1249          37.00       135.57
 1296.86        2952.25           1252          39.00       144.29
 1296.89        2952.50           1256          42.00       157.37
 1296.93        2952.75           1259          39.00       144.29
 1296.96        2953.00           1262          44.00       166.09
 1296.99        2953.25           1266          38.00       139.93
 1297.02        2953.50           1269          49.00       187.88
 1297.05        2953.75           1272          48.00       183.52
 1297.08        2954.00           1276          48.00       183.52
 1297.11        2954.25           1279          40.00       148.65
 1297.14        2954.50           1282          39.00       144.29
 1297.17        2954.75           1286          49.00       187.88
 1297.20        2955.00           1289          44.00       166.09
 1297.23        2955.25           1292          42.00       157.37
 1297.26        2955.50           1296          46.00       174.80
 1297.30        2955.75           1299          37.00       135.57
 1297.33        2956.00           1302          43.00       161.73
 1297.36        2956.25           1306          40.00       148.65
 1297.39        2956.50           1309          45.00       170.45
 1297.42        2956.75           1312          44.00       166.09
 1297.45        2957.00           1316          40.00       148.65
 1297.48        2957.25           1319          40.00       148.65
 1297.51        2957.50           1322          41.00       153.01
 1297.54        2957.75           1326          47.00       179.16
 1297.57        2958.00           1329          38.00       139.93
 1297.60        2958.25           1332          47.00       179.16
 1297.64        2958.50           1336          50.00       192.24
 1297.67        2958.75           1339          36.00       131.21
 1297.70        2959.00           1342          45.00       170.45
 1297.73        2959.25           1346          52.00       200.96
 1297.76        2959.50           1349          67.00       266.35
 1297.79        2959.75           1352          82.00       331.74
 1297.82        2960.00           1356         135.00       562.78
 1297.85        2960.25           1359         181.00       763.31
 1297.88        2960.50           1362         224.00       950.77
 1297.91        2960.75           1366         305.00      1303.89
 1297.94        2961.00           1369         339.00      1452.11
 1297.97        2961.25           1372         382.00      1639.58
 1298.01        2961.50           1376         490.00      2110.42
 1298.04        2961.75           1379         655.00      2829.80
 1298.07        2962.00           1382        1222.00      5302.06
 1298.10        2962.25           1386        3027.00     13174.78
 1298.13        2962.50           1389        4995.00     21762.68
 1298.16        2962.75           1392        6945.00     30276.40
 1298.19        2963.00           1396        9561.00     41704.72
 1298.22        2963.25           1399       11592.00     50582.80
 1298.25        2963.50           1402       13411.00     58538.20
 1298.29        2963.75           1406       16395.00     71596.95
 1298.32        2964.00           1409       18710.00     81735.06
 1298.35        2964.25           1412       20940.00     91506.74
 1298.38        2964.50           1416       23822.00    104144.00
 1298.41        2964.75           1419       25388.00    111014.70
 1298.44        2965.00           1422       27651.00    120948.50
 1298.47        2965.25           1426       30536.00    133621.30
 1298.50        2965.50           1429       32416.00    141884.70
 1298.53        2965.75           1432       34515.00    151115.50
 1298.56        2966.00           1436       37268.00    163230.30
 1298.60        2966.25           1439       39190.00    171693.40
 1298.63        2966.50           1442       41536.00    182029.30
 1298.66        2966.75           1446       43500.00    190687.20
 1298.69        2967.00           1449       44277.00    194113.60
 1298.72        2967.25           1452       44341.00    194395.90
 1298.75        2967.50           1456       44416.00    194726.70
 1298.78        2967.75           1459       44399.00    194651.70
 1298.81        2968.00           1462       44359.00    194475.30
 1298.84        2968.25           1466       43703.00    191582.30
 1298.87        2968.50           1469       42088.00    184462.20
 1298.91        2968.75           1472       40288.00    176530.10
 1298.94        2969.00           1476       37571.00    164564.20
 1298.97        2969.25           1479       35558.00    155704.30
 1299.00        2969.50           1482       33373.00    146092.70
 1299.03        2969.75           1486       30627.00    134021.20
 1299.06        2970.00           1489       28430.00    124369.50
 1299.09        2970.25           1492       26596.00    116316.70
 1299.12        2970.50           1496       23574.00    103056.10
 1299.16        2970.75           1499       21691.00     94798.86
 1299.19        2971.00           1502       19627.00     85752.58
 1299.22        2971.25           1506       17078.00     74587.38
 1299.25        2971.50           1509       14994.00     65464.54
 1299.28        2971.75           1513       12665.00     55275.11
 1299.31        2972.00           1516       10636.00     46403.27
 1299.34        2972.25           1519        8567.00     37361.38
 1299.37        2972.50           1523        5744.00     25032.31
 1299.40        2972.75           1526        3854.00     16783.08
 1299.44        2973.00           1529        2014.00      8756.01
 1299.47        2973.25           1533         626.00      2703.36
 1299.50        2973.50           1536         408.00      1752.93
 1299.53        2973.75           1539         306.00      1308.25
 1299.56        2974.00           1543         260.00      1107.71
 1299.59        2974.25           1546         176.00       741.52
 1299.62        2974.50           1549         128.00       532.27
 1299.65        2974.75           1553          85.00       344.82
 1299.68        2975.00           1556          60.00       235.83
 1299.71        2975.25           1559          51.00       196.60
 1299.74        2975.50           1563          55.00       214.04
 1299.77        2975.75           1566          48.00       183.52
 1299.81        2976.00           1569          50.00       192.24
 1299.84        2976.25           1573          46.00       174.80
 1299.87        2976.50           1576          50.00       192.24
 1299.90        2976.75           1579          49.00       187.88
 1299.93        2977.00           1583          47.00       179.16
 1299.96        2977.25           1586          43.00       161.73
 1299.99        2977.50           1590          43.00       161.73
 1300.02        2977.75           1593          49.00       187.88
 1300.05        2978.00           1596          43.00       161.73
 1300.09        2978.25           1600          48.00       183.52
 1300.12        2978.50           1603          45.00       170.45
 1300.15        2978.75           1606          47.00       179.16
 1300.18        2979.00           1610          43.00       161.73
 1300.21        2979.25           1613          49.00       187.88
 1300.24        2979.50           1616          41.00       153.01
 1300.27        2979.75           1620          44.00       166.09
 1300.30        2980.00           1623          44.00       166.09
 1300.33        2980.25           1626          45.00       170.45
 1300.36        2980.50           1630          44.00       166.09
 1300.39        2980.75           1633          38.00       139.93
 1300.42        2981.00           1637          49.00       187.88
 1300.45        2981.25           1640          40.00       148.65
 1300.49        2981.50           1643          44.00       166.09
 1300.52        2981.75           1647          52.00       200.96
 1300.55        2982.00           1650          40.00       148.65
 1300.58        2982.25           1653          47.00       179.16
 1300.61        2982.50           1657          42.00       157.37
 1300.64        2982.75           1660          37.00       135.57
 1300.67        2983.00           1663          41.00       153.01
 1300.70        2983.25           1667          47.00       179.16
 1300.73        2983.50           1670          46.00       174.80
 1300.76        2983.75           1673          41.00       153.01
 1300.79        2984.00           1677          38.00       139.93
HS scan finished at 21:41:01
end
