************************************************************
  HS Scan of (1) Internal mercury lamp
************************************************************
Integration time is 0.2294 seconds per sample
dh030617El Arenosillo 37.1 6.73 3.072425pr1000
************************************************************
Dead Time -------------------------  3E-08 
Number of Cycles Used -------------  4 
Starting Wavelength (Angstroms) ---  2950 
Final Wavelength (Angstoms) -------  2984 
Wavelength Increment (Angstroms) --  .25 
Filter Wheel #1 Position ---------- (1) Ground quartz diffuser (ND=2.32)
Filter Wheel #2 Position ---------- (1) Neutral Density 0.494



************************************************************
HS scan start time = 01:51:51
Dark Count =  5.6 


Time (GMT)  Wavelength (Ang)  Step Number  Raw Counts  Counts/Second

  112.23        2950.00           1222          38.00       141.24
  112.29        2950.25           1226          43.00       163.03
  112.32        2950.50           1229          46.00       176.11
  112.36        2950.75           1232          43.00       163.03
  112.39        2951.00           1236          43.00       163.03
  112.42        2951.25           1239          45.00       171.75
  112.45        2951.50           1242          61.00       241.50
  112.48        2951.75           1246          44.00       167.39
  112.51        2952.00           1249          44.00       167.39
  112.54        2952.25           1252          41.00       154.32
  112.57        2952.50           1256          41.00       154.32
  112.60        2952.75           1259          39.00       145.60
  112.63        2953.00           1262          54.00       210.99
  112.66        2953.25           1266          49.00       189.19
  112.69        2953.50           1269          45.00       171.75
  112.72        2953.75           1272          43.00       163.03
  112.76        2954.00           1276          44.00       167.39
  112.79        2954.25           1279          45.00       171.75
  112.82        2954.50           1282          42.00       158.68
  112.85        2954.75           1286          49.00       189.19
  112.88        2955.00           1289          48.00       184.83
  112.91        2955.25           1292          47.00       180.47
  112.94        2955.50           1296          41.00       154.32
  112.97        2955.75           1299          42.00       158.68
  113.00        2956.00           1302          42.00       158.68
  113.03        2956.25           1306          46.00       176.11
  113.07        2956.50           1309          46.00       176.11
  113.10        2956.75           1312          44.00       167.39
  113.13        2957.00           1316          42.00       158.68
  113.16        2957.25           1319          51.00       197.91
  113.19        2957.50           1322          49.00       189.19
  113.22        2957.75           1326          44.00       167.39
  113.25        2958.00           1329          44.00       167.39
  113.28        2958.25           1332          47.00       180.47
  113.31        2958.50           1336          58.00       228.42
  113.34        2958.75           1339          41.00       154.32
  113.37        2959.00           1342          39.00       145.60
  113.40        2959.25           1346          52.00       202.27
  113.43        2959.50           1349          65.00       258.94
  113.46        2959.75           1352          97.00       398.44
  113.49        2960.00           1356         141.00       590.25
  113.53        2960.25           1359         195.00       825.65
  113.56        2960.50           1362         234.00       995.67
  113.59        2960.75           1366         313.00      1340.07
  113.62        2961.00           1369         352.00      1510.09
  113.65        2961.25           1372         405.00      1741.15
  113.68        2961.50           1376         524.00      2259.96
  113.71        2961.75           1379         842.00      3646.43
  113.74        2962.00           1382        1756.00      7632.09
  113.77        2962.25           1386        3922.00     17081.12
  113.80        2962.50           1389        5858.00     25531.32
  113.83        2962.75           1392        7757.00     33824.19
  113.87        2963.00           1396       10528.00     45932.48
  113.90        2963.25           1399       12525.00     54664.12
  113.93        2963.50           1402       14307.00     62459.57
  113.96        2963.75           1406       16988.00     74194.61
  113.99        2964.00           1409       18958.00     82822.80
  114.02        2964.25           1412       20963.00     91608.88
  114.05        2964.50           1416       23556.00    102978.50
  114.08        2964.75           1419       25543.00    111696.20
  114.12        2965.00           1422       27557.00    120537.10
  114.15        2965.25           1426       30052.00    131495.90
  114.18        2965.50           1429       32090.00    140452.80
  114.21        2965.75           1432       33980.00    148763.60
  114.24        2966.00           1436       36697.00    160718.10
  114.27        2966.25           1439       38683.00    169461.80
  114.30        2966.50           1442       40408.00    177060.10
  114.33        2966.75           1446       42426.00    185953.40
  114.36        2967.00           1449       42752.00    187390.50
  114.39        2967.25           1452       42821.00    187694.70
  114.43        2967.50           1456       42899.00    188038.60
  114.46        2967.75           1459       42733.00    187306.80
  114.49        2968.00           1462       42519.00    186363.40
  114.52        2968.25           1466       41231.00    180686.50
  114.55        2968.50           1469       39561.00    173328.80
  114.58        2968.75           1472       37625.00    164803.20
  114.61        2969.00           1476       35068.00    153549.60
  114.64        2969.25           1479       33007.00    144484.60
  114.67        2969.50           1482       31061.00    135929.80
  114.71        2969.75           1486       28261.00    123628.60
  114.74        2970.00           1489       26333.00    115163.60
  114.77        2970.25           1492       24598.00    107549.60
  114.80        2970.50           1496       21988.00     96102.31
  114.83        2970.75           1499       20010.00     87432.18
  114.86        2971.00           1502       18272.00     79817.76
  114.89        2971.25           1506       15753.00     68787.85
  114.92        2971.50           1509       13435.00     58644.50
  114.95        2971.75           1513       10802.00     47130.24
  114.99        2972.00           1516        8775.00     38271.47
  115.02        2972.25           1519        6740.00     29382.47
  115.05        2972.50           1523        4268.00     18591.01
  115.08        2972.75           1526        2443.00     10628.50
  115.11        2973.00           1529        1043.00      4522.85
  115.14        2973.25           1533         485.00      2089.93
  115.17        2973.50           1536         365.00      1566.77
  115.20        2973.75           1539         291.00      1244.16
  115.23        2974.00           1543         242.00      1030.55
  115.26        2974.25           1546         178.00       751.54
  115.29        2974.50           1549         123.00       511.78
  115.32        2974.75           1553          82.00       333.05
  115.36        2975.00           1556          52.00       202.27
  115.39        2975.25           1559          51.00       197.91
  115.42        2975.50           1563          44.00       167.39
  115.45        2975.75           1566          45.00       171.75
  115.48        2976.00           1569          48.00       184.83
  115.51        2976.25           1573          48.00       184.83
  115.54        2976.50           1576          38.00       141.24
  115.57        2976.75           1579          46.00       176.11
  115.60        2977.00           1583          49.00       189.19
  115.63        2977.25           1586          45.00       171.75
  115.66        2977.50           1590          49.00       189.19
  115.69        2977.75           1593          38.00       141.24
  115.72        2978.00           1596          44.00       167.39
  115.76        2978.25           1600          45.00       171.75
  115.79        2978.50           1603          42.00       158.68
  115.82        2978.75           1606          43.00       163.03
  115.85        2979.00           1610          41.00       154.32
  115.88        2979.25           1613          43.00       163.03
  115.91        2979.50           1616          43.00       163.03
  115.94        2979.75           1620          46.00       176.11
  115.97        2980.00           1623          33.00       119.44
  116.00        2980.25           1626          45.00       171.75
  116.03        2980.50           1630          47.00       180.47
  116.07        2980.75           1633          40.00       149.96
  116.10        2981.00           1637          40.00       149.96
  116.13        2981.25           1640          41.00       154.32
  116.16        2981.50           1643          36.00       132.52
  116.19        2981.75           1647          44.00       167.39
  116.22        2982.00           1650          48.00       184.83
  116.25        2982.25           1653          43.00       163.03
  116.28        2982.50           1657          42.00       158.68
  116.31        2982.75           1660          49.00       189.19
  116.34        2983.00           1663          42.00       158.68
  116.37        2983.25           1667          43.00       163.03
  116.41        2983.50           1670          43.00       163.03
  116.44        2983.75           1673          40.00       149.96
  116.47        2984.00           1677          47.00       180.47
HS scan finished at 01:56:41
end
************************************************************
  HS Scan of (1) Internal mercury lamp
************************************************************
Integration time is 0.2294 seconds per sample
dh030617El Arenosillo 37.1 6.73 3.233369pr1000
************************************************************
Dead Time -------------------------  3E-08 
Number of Cycles Used -------------  4 
Starting Wavelength (Angstroms) ---  2950 
Final Wavelength (Angstoms) -------  2984 
Wavelength Increment (Angstroms) --  .25 
Filter Wheel #1 Position ---------- (1) Ground quartz diffuser (ND=2.32)
Filter Wheel #2 Position ---------- (1) Neutral Density 0.494



************************************************************
HS scan start time = 20:39:11
Dark Count =  4.4 


Time (GMT)  Wavelength (Ang)  Step Number  Raw Counts  Counts/Second

 1239.56        2950.00           1222          47.00       185.70
 1239.62        2950.25           1226          40.00       155.19
 1239.65        2950.50           1229          42.00       163.91
 1239.69        2950.75           1232          42.00       163.91
 1239.72        2951.00           1236          41.00       159.55
 1239.75        2951.25           1239          40.00       155.19
 1239.78        2951.50           1242          43.00       168.27
 1239.81        2951.75           1246          44.00       172.63
 1239.84        2952.00           1249          43.00       168.27
 1239.87        2952.25           1252          40.00       155.19
 1239.90        2952.50           1256          41.00       159.55
 1239.93        2952.75           1259          39.00       150.83
 1239.96        2953.00           1262          39.00       150.83
 1239.99        2953.25           1266          45.00       176.98
 1240.02        2953.50           1269          38.00       146.47
 1240.05        2953.75           1272          44.00       172.63
 1240.09        2954.00           1276          42.00       163.91
 1240.12        2954.25           1279          41.00       159.55
 1240.15        2954.50           1282          43.00       168.27
 1240.18        2954.75           1286          54.00       216.22
 1240.21        2955.00           1289          45.00       176.98
 1240.24        2955.25           1292          39.00       150.83
 1240.27        2955.50           1296          40.00       155.19
 1240.30        2955.75           1299          42.00       163.91
 1240.33        2956.00           1302          52.00       207.50
 1240.36        2956.25           1306          47.00       185.70
 1240.39        2956.50           1309          39.00       150.83
 1240.42        2956.75           1312          45.00       176.98
 1240.45        2957.00           1316          38.00       146.47
 1240.48        2957.25           1319          41.00       159.55
 1240.51        2957.50           1322          45.00       176.98
 1240.54        2957.75           1326          41.00       159.55
 1240.58        2958.00           1329          46.00       181.34
 1240.61        2958.25           1332          43.00       168.27
 1240.64        2958.50           1336          41.00       159.55
 1240.67        2958.75           1339          40.00       155.19
 1240.70        2959.00           1342          51.00       203.14
 1240.73        2959.25           1346          51.00       203.14
 1240.76        2959.50           1349          55.00       220.58
 1240.79        2959.75           1352          78.00       320.84
 1240.82        2960.00           1356         120.00       503.93
 1240.85        2960.25           1359         157.00       665.23
 1240.89        2960.50           1362         218.00       931.15
 1240.92        2960.75           1366         298.00      1279.91
 1240.95        2961.00           1369         352.00      1515.33
 1240.98        2961.25           1372         388.00      1672.27
 1241.01        2961.50           1376         512.00      2212.88
 1241.04        2961.75           1379         753.00      3263.62
 1241.07        2962.00           1382        1529.00      6647.36
 1241.10        2962.25           1386        3785.00     16488.54
 1241.13        2962.50           1389        5693.00     24816.20
 1241.17        2962.75           1392        7910.00     34497.76
 1241.20        2963.00           1396       10524.00     45920.24
 1241.23        2963.25           1399       12509.00     54599.39
 1241.26        2963.50           1402       14567.00     63602.49
 1241.29        2963.75           1406       17551.00     76665.23
 1241.32        2964.00           1409       19649.00     85855.56
 1241.35        2964.25           1412       21779.00     95191.24
 1241.38        2964.50           1416       24485.00    107059.10
 1241.41        2964.75           1419       26682.00    116700.80
 1241.44        2965.00           1422       28875.00    126330.50
 1241.47        2965.25           1426       31526.00    137978.90
 1241.51        2965.50           1429       33779.00    147884.80
 1241.54        2965.75           1432       35767.00    156630.50
 1241.57        2966.00           1436       38590.00    169057.50
 1241.60        2966.25           1439       40475.00    177360.60
 1241.63        2966.50           1442       42162.00    184795.00
 1241.66        2966.75           1446       44048.00    193110.30
 1241.69        2967.00           1449       44710.00    196030.00
 1241.72        2967.25           1452       44896.00    196850.50
 1241.75        2967.50           1456       44841.00    196607.90
 1241.79        2967.75           1459       44982.00    197229.80
 1241.82        2968.00           1462       44674.00    195871.20
 1241.85        2968.25           1466       43323.00    189913.30
 1241.88        2968.50           1469       41705.00    182780.70
 1241.91        2968.75           1472       39820.00    174475.00
 1241.94        2969.00           1476       36918.00    161696.20
 1241.97        2969.25           1479       34921.00    152908.20
 1242.00        2969.50           1482       32775.00    143469.70
 1242.03        2969.75           1486       29958.00    131088.20
 1242.06        2970.00           1489       28249.00    123581.10
 1242.09        2970.25           1492       26316.00    115094.20
 1242.13        2970.50           1496       23707.00    103646.10
 1242.16        2970.75           1499       21584.00     94336.35
 1242.19        2971.00           1502       19485.00     85136.96
 1242.22        2971.25           1506       16500.00     72063.21
 1242.25        2971.50           1509       14424.00     62976.76
 1242.28        2971.75           1513       11613.00     50681.19
 1242.31        2972.00           1516        9516.00     41514.62
 1242.34        2972.25           1519        7597.00     33130.56
 1242.38        2972.50           1523        5044.00     21983.11
 1242.41        2972.75           1526        3085.00     13434.36
 1242.44        2973.00           1529        1505.00      6542.70
 1242.47        2973.25           1533         578.00      2500.62
 1242.50        2973.50           1536         411.00      1772.54
 1242.53        2973.75           1539         335.00      1441.21
 1242.56        2974.00           1543         265.00      1136.05
 1242.59        2974.25           1546         186.00       791.65
 1242.62        2974.50           1549         122.00       512.65
 1242.65        2974.75           1553          94.00       390.59
 1242.68        2975.00           1556          65.00       264.17
 1242.72        2975.25           1559          50.00       198.78
 1242.75        2975.50           1563          43.00       168.27
 1242.78        2975.75           1566          47.00       185.70
 1242.81        2976.00           1569          39.00       150.83
 1242.84        2976.25           1573          46.00       181.34
 1242.87        2976.50           1576          49.00       194.42
 1242.90        2976.75           1579          48.00       190.06
 1242.93        2977.00           1583          45.00       176.98
 1242.96        2977.25           1586          42.00       163.91
 1242.99        2977.50           1590          43.00       168.27
 1243.02        2977.75           1593          50.00       198.78
 1243.06        2978.00           1596          47.00       185.70
 1243.09        2978.25           1600          37.00       142.11
 1243.12        2978.50           1603          38.00       146.47
 1243.15        2978.75           1606          42.00       163.91
 1243.18        2979.00           1610          41.00       159.55
 1243.21        2979.25           1613          42.00       163.91
 1243.24        2979.50           1616          41.00       159.55
 1243.27        2979.75           1620          43.00       168.27
 1243.30        2980.00           1623          38.00       146.47
 1243.33        2980.25           1626          47.00       185.70
 1243.36        2980.50           1630          45.00       176.98
 1243.40        2980.75           1633          43.00       168.27
 1243.43        2981.00           1637          50.00       198.78
 1243.46        2981.25           1640          38.00       146.47
 1243.49        2981.50           1643          43.00       168.27
 1243.52        2981.75           1647          40.00       155.19
 1243.55        2982.00           1650          44.00       172.63
 1243.58        2982.25           1653          40.00       155.19
 1243.61        2982.50           1657          47.00       185.70
 1243.64        2982.75           1660          42.00       163.91
 1243.67        2983.00           1663          46.00       181.34
 1243.70        2983.25           1667          40.00       155.19
 1243.73        2983.50           1670          48.00       190.06
 1243.76        2983.75           1673          39.00       150.83
 1243.79        2984.00           1677          39.00       150.83
HS scan finished at 20:44:01
end
