************************************************************
  HS Scan of (1) Internal mercury lamp
************************************************************
Integration time is 0.2294 seconds per sample
dh060619Manchester 53.47 2.23 2.804185pr1000
************************************************************
Dead Time -------------------------  3E-08 
Number of Cycles Used -------------  4 
Starting Wavelength (Angstroms) ---  2950 
Final Wavelength (Angstoms) -------  2984 
Wavelength Increment (Angstroms) --  .25 
Filter Wheel #1 Position ---------- (1) Ground quartz diffuser (ND=2.32)
Filter Wheel #2 Position ---------- (1) Neutral Density 0.494



************************************************************
HS scan start time = 01:35:20
Dark Count =  6.8 


Time (GMT)  Wavelength (Ang)  Step Number  Raw Counts  Counts/Second

   95.70        2950.00           1222          59.00       227.55
   95.77        2950.25           1226          57.00       218.83
   95.80        2950.50           1229          53.00       201.40
   95.83        2950.75           1232          50.00       188.32
   95.86        2951.00           1236          57.00       218.83
   95.89        2951.25           1239          59.00       227.55
   95.92        2951.50           1242          51.00       192.68
   95.95        2951.75           1246          55.00       210.11
   95.98        2952.00           1249          57.00       218.83
   96.01        2952.25           1252          72.00       284.22
   96.04        2952.50           1256          59.00       227.55
   96.07        2952.75           1259          58.00       223.19
   96.10        2953.00           1262          64.00       249.35
   96.13        2953.25           1266          61.00       236.27
   96.16        2953.50           1269          54.00       205.76
   96.19        2953.75           1272          62.00       240.63
   96.22        2954.00           1276          53.00       201.40
   96.25        2954.25           1279          56.00       214.47
   96.29        2954.50           1282          51.00       192.68
   96.32        2954.75           1286          49.00       183.96
   96.35        2955.00           1289          57.00       218.83
   96.38        2955.25           1292          52.00       197.04
   96.41        2955.50           1296          54.00       205.76
   96.44        2955.75           1299          53.00       201.40
   96.47        2956.00           1302          59.00       227.55
   96.50        2956.25           1306          62.00       240.63
   96.53        2956.50           1309          57.00       218.83
   96.56        2956.75           1312          50.00       188.32
   96.59        2957.00           1316          51.00       192.68
   96.62        2957.25           1319          56.00       214.47
   96.66        2957.50           1322          55.00       210.11
   96.69        2957.75           1326          66.00       258.07
   96.72        2958.00           1329          56.00       214.47
   96.75        2958.25           1332          72.00       284.22
   96.78        2958.50           1336          62.00       240.63
   96.81        2958.75           1339          52.00       197.04
   96.84        2959.00           1342          53.00       201.40
   96.87        2959.25           1346          54.00       205.76
   96.90        2959.50           1349          61.00       236.27
   96.93        2959.75           1352          65.00       253.71
   96.96        2960.00           1356          92.00       371.41
   96.99        2960.25           1359         123.00       506.55
   97.02        2960.50           1362         154.00       641.69
   97.06        2960.75           1366         205.00       864.02
   97.09        2961.00           1369         229.00       968.64
   97.12        2961.25           1372         267.00      1134.30
   97.15        2961.50           1376         324.00      1382.80
   97.18        2961.75           1379         419.00      1796.96
   97.21        2962.00           1382         728.00      3144.15
   97.24        2962.25           1386        1877.00      8154.57
   97.27        2962.50           1389        3120.00     13576.58
   97.30        2962.75           1392        4395.00     19140.02
   97.33        2963.00           1396        6248.00     27228.86
   97.36        2963.25           1399        7544.00     32888.58
   97.39        2963.50           1402        8611.00     37549.69
   97.42        2963.75           1406       10537.00     45966.57
   97.46        2964.00           1409       11754.00     51287.23
   97.49        2964.25           1412       13247.00     57816.86
   97.52        2964.50           1416       14872.00     64926.69
   97.55        2964.75           1419       16140.00     70476.66
   97.58        2965.00           1422       17509.00     76470.79
   97.61        2965.25           1426       19229.00     84004.81
   97.64        2965.50           1429       20621.00     90104.61
   97.67        2965.75           1432       21958.00     95965.51
   97.70        2966.00           1436       23788.00    103990.90
   97.74        2966.25           1439       25042.00    109492.50
   97.77        2966.50           1442       26077.00    114034.60
   97.80        2966.75           1446       27556.00    120527.40
   97.83        2967.00           1449       28132.00    123056.80
   97.86        2967.25           1452       28268.00    123654.00
   97.89        2967.50           1456       28138.00    123083.10
   97.92        2967.75           1459       28087.00    122859.20
   97.95        2968.00           1462       28080.00    122828.40
   97.98        2968.25           1466       27696.00    121142.20
   98.01        2968.50           1469       26655.00    116571.70
   98.04        2968.75           1472       25644.00    112134.20
   98.07        2969.00           1476       23766.00    103894.40
   98.10        2969.25           1479       22573.00     98662.12
   98.14        2969.50           1482       21077.00     92103.31
   98.17        2969.75           1486       19219.00     83961.00
   98.20        2970.00           1489       18205.00     79519.03
   98.23        2970.25           1492       16732.00     73068.45
   98.26        2970.50           1496       15283.00     66725.43
   98.29        2970.75           1499       13929.00     60800.43
   98.32        2971.00           1502       12822.00     55957.86
   98.35        2971.25           1506       11098.00     48419.02
   98.38        2971.50           1509        9764.00     42587.94
   98.42        2971.75           1513        8002.00     34889.16
   98.45        2972.00           1516        6568.00     28626.14
   98.48        2972.25           1519        5333.00     23234.15
   98.51        2972.50           1523        3643.00     15858.46
   98.54        2972.75           1526        2471.00     10745.40
   98.57        2973.00           1529        1317.00      5712.40
   98.60        2973.25           1533         445.00      1910.31
   98.63        2973.50           1536         288.00      1225.85
   98.66        2973.75           1539         243.00      1029.67
   98.70        2974.00           1543         196.00       824.78
   98.73        2974.25           1546         145.00       602.45
   98.76        2974.50           1549         111.00       454.23
   98.79        2974.75           1553          85.00       340.89
   98.82        2975.00           1556          63.00       244.99
   98.85        2975.25           1559          58.00       223.19
   98.88        2975.50           1563          55.00       210.11
   98.91        2975.75           1566          62.00       240.63
   98.94        2976.00           1569          55.00       210.11
   98.97        2976.25           1573          68.00       266.79
   99.00        2976.50           1576          50.00       188.32
   99.04        2976.75           1579          53.00       201.40
   99.07        2977.00           1583          51.00       192.68
   99.10        2977.25           1586          52.00       197.04
   99.13        2977.50           1590          57.00       218.83
   99.16        2977.75           1593          48.00       179.60
   99.19        2978.00           1596          54.00       205.76
   99.22        2978.25           1600          53.00       201.40
   99.25        2978.50           1603          49.00       183.96
   99.28        2978.75           1606          57.00       218.83
   99.31        2979.00           1610          57.00       218.83
   99.34        2979.25           1613          52.00       197.04
   99.37        2979.50           1616          55.00       210.11
   99.41        2979.75           1620          52.00       197.04
   99.44        2980.00           1623          48.00       179.60
   99.47        2980.25           1626          51.00       192.68
   99.50        2980.50           1630          52.00       197.04
   99.53        2980.75           1633          52.00       197.04
   99.56        2981.00           1637          52.00       197.04
   99.59        2981.25           1640          53.00       201.40
   99.62        2981.50           1643          43.00       157.80
   99.65        2981.75           1647          48.00       179.60
   99.68        2982.00           1650          49.00       183.96
   99.72        2982.25           1653          60.00       231.91
   99.75        2982.50           1657          57.00       218.83
   99.78        2982.75           1660          50.00       188.32
   99.81        2983.00           1663          48.00       179.60
   99.84        2983.25           1667          51.00       192.68
   99.87        2983.50           1670          56.00       214.47
   99.90        2983.75           1673          48.00       179.60
   99.93        2984.00           1677          55.00       210.11
HS scan finished at 01:40:09
end
************************************************************
  HS Scan of (1) Internal mercury lamp
************************************************************
Integration time is 0.2294 seconds per sample
dh060619Manchester 53.47 2.23 2.804185pr1000
************************************************************
Dead Time -------------------------  3E-08 
Number of Cycles Used -------------  4 
Starting Wavelength (Angstroms) ---  2950 
Final Wavelength (Angstoms) -------  2984 
Wavelength Increment (Angstroms) --  .25 
Filter Wheel #1 Position ---------- (1) Ground quartz diffuser (ND=2.32)
Filter Wheel #2 Position ---------- (1) Neutral Density 0.494



************************************************************
HS scan start time = 21:42:07
Dark Count =  5.9 


Time (GMT)  Wavelength (Ang)  Step Number  Raw Counts  Counts/Second

 1302.48        2950.00           1222          54.00       209.68
 1302.55        2950.25           1226          61.00       240.19
 1302.58        2950.50           1229          58.00       227.12
 1302.61        2950.75           1232          56.00       218.40
 1302.64        2951.00           1236          55.00       214.04
 1302.67        2951.25           1239          57.00       222.76
 1302.70        2951.50           1242          50.00       192.24
 1302.73        2951.75           1246          60.00       235.83
 1302.76        2952.00           1249          59.00       231.48
 1302.80        2952.25           1252          57.00       222.76
 1302.83        2952.50           1256          69.00       275.07
 1302.86        2952.75           1259          61.00       240.19
 1302.89        2953.00           1262          47.00       179.16
 1302.92        2953.25           1266          53.00       205.32
 1302.95        2953.50           1269          62.00       244.55
 1302.98        2953.75           1272          61.00       240.19
 1303.01        2954.00           1276          64.00       253.27
 1303.04        2954.25           1279          60.00       235.83
 1303.07        2954.50           1282          58.00       227.12
 1303.11        2954.75           1286          67.00       266.35
 1303.14        2955.00           1289          62.00       244.55
 1303.17        2955.25           1292          63.00       248.91
 1303.20        2955.50           1296          59.00       231.48
 1303.23        2955.75           1299          58.00       227.12
 1303.26        2956.00           1302          53.00       205.32
 1303.29        2956.25           1306          54.00       209.68
 1303.32        2956.50           1309          54.00       209.68
 1303.36        2956.75           1312          54.00       209.68
 1303.39        2957.00           1316          59.00       231.48
 1303.42        2957.25           1319          51.00       196.60
 1303.45        2957.50           1322          50.00       192.24
 1303.48        2957.75           1326          66.00       261.99
 1303.51        2958.00           1329          54.00       209.68
 1303.54        2958.25           1332          59.00       231.48
 1303.57        2958.50           1336          52.00       200.96
 1303.60        2958.75           1339          58.00       227.12
 1303.63        2959.00           1342          61.00       240.19
 1303.66        2959.25           1346          48.00       183.52
 1303.70        2959.50           1349          59.00       231.48
 1303.73        2959.75           1352          73.00       292.50
 1303.76        2960.00           1356          91.00       370.97
 1303.79        2960.25           1359         105.00       432.00
 1303.82        2960.50           1362         148.00       619.45
 1303.85        2960.75           1366         190.00       802.55
 1303.88        2961.00           1369         217.00       920.25
 1303.91        2961.25           1372         261.00      1112.07
 1303.94        2961.50           1376         320.00      1369.28
 1303.97        2961.75           1379         418.00      1796.52
 1304.00        2962.00           1382         833.00      3605.88
 1304.04        2962.25           1386        2089.00      9083.12
 1304.07        2962.50           1389        3362.00     14636.33
 1304.10        2962.75           1392        4565.00     19885.88
 1304.13        2963.00           1396        6264.00     27302.65
 1304.16        2963.25           1399        7551.00     32923.09
 1304.19        2963.50           1402        8974.00     39139.66
 1304.22        2963.75           1406       10755.00     46923.46
 1304.25        2964.00           1409       11857.00     51741.54
 1304.28        2964.25           1412       13237.00     57777.05
 1304.32        2964.50           1416       14957.00     65302.62
 1304.35        2964.75           1419       16277.00     71080.36
 1304.38        2965.00           1422       17733.00     77455.71
 1304.41        2965.25           1426       19403.00     84771.10
 1304.44        2965.50           1429       20782.00     90814.21
 1304.47        2965.75           1432       22128.00     96714.81
 1304.50        2966.00           1436       23874.00    104372.10
 1304.53        2966.25           1439       25072.00    109628.10
 1304.57        2966.50           1442       26251.00    114802.30
 1304.60        2966.75           1446       27586.00    120663.10
 1304.63        2967.00           1449       27866.00    121892.60
 1304.66        2967.25           1452       28014.00    122542.50
 1304.69        2967.50           1456       28004.00    122498.60
 1304.72        2967.75           1459       27991.00    122441.50
 1304.75        2968.00           1462       27805.00    121624.80
 1304.78        2968.25           1466       27383.00    119771.80
 1304.81        2968.50           1469       26172.00    114455.50
 1304.85        2968.75           1472       25051.00    109535.90
 1304.88        2969.00           1476       23327.00    101972.80
 1304.91        2969.25           1479       22145.00     96789.35
 1304.94        2969.50           1482       20912.00     91384.02
 1304.97        2969.75           1486       19075.00     83334.06
 1305.00        2970.00           1489       17803.00     77762.28
 1305.03        2970.25           1492       16564.00     72336.85
 1305.06        2970.50           1496       14898.00     65044.41
 1305.09        2970.75           1499       13620.00     59452.50
 1305.13        2971.00           1502       12367.00     53971.80
 1305.16        2971.25           1506       10692.00     46648.07
 1305.19        2971.50           1509        9464.00     41280.82
 1305.22        2971.75           1513        7746.00     33774.83
 1305.25        2972.00           1516        6435.00     28049.32
 1305.28        2972.25           1519        5096.00     22203.54
 1305.31        2972.50           1523        3346.00     14566.52
 1305.34        2972.75           1526        2130.00      9261.95
 1305.37        2973.00           1529        1140.00      4944.50
 1305.41        2973.25           1533         414.00      1779.08
 1305.44        2973.50           1536         301.00      1286.45
 1305.47        2973.75           1539         252.00      1072.83
 1305.50        2974.00           1543         212.00       898.45
 1305.53        2974.25           1546         165.00       693.56
 1305.56        2974.50           1549         130.00       540.99
 1305.59        2974.75           1553         106.00       436.36
 1305.62        2975.00           1556          74.00       296.86
 1305.65        2975.25           1559          63.00       248.91
 1305.68        2975.50           1563          52.00       200.96
 1305.71        2975.75           1566          54.00       209.68
 1305.75        2976.00           1569          53.00       205.32
 1305.78        2976.25           1573          58.00       227.12
 1305.81        2976.50           1576          54.00       209.68
 1305.84        2976.75           1579          53.00       205.32
 1305.87        2977.00           1583          49.00       187.88
 1305.90        2977.25           1586          48.00       183.52
 1305.93        2977.50           1590          49.00       187.88
 1305.96        2977.75           1593          48.00       183.52
 1305.99        2978.00           1596          57.00       222.76
 1306.02        2978.25           1600          54.00       209.68
 1306.05        2978.50           1603          51.00       196.60
 1306.08        2978.75           1606          50.00       192.24
 1306.11        2979.00           1610          53.00       205.32
 1306.14        2979.25           1613          49.00       187.88
 1306.18        2979.50           1616          59.00       231.48
 1306.21        2979.75           1620          58.00       227.12
 1306.24        2980.00           1623          53.00       205.32
 1306.27        2980.25           1626          56.00       218.40
 1306.30        2980.50           1630          54.00       209.68
 1306.33        2980.75           1633          50.00       192.24
 1306.36        2981.00           1637          48.00       183.52
 1306.39        2981.25           1640          50.00       192.24
 1306.42        2981.50           1643          55.00       214.04
 1306.45        2981.75           1647          50.00       192.24
 1306.48        2982.00           1650          54.00       209.68
 1306.51        2982.25           1653          49.00       187.88
 1306.55        2982.50           1657          48.00       183.52
 1306.58        2982.75           1660          56.00       218.40
 1306.61        2983.00           1663          50.00       192.24
 1306.64        2983.25           1667          53.00       205.32
 1306.67        2983.50           1670          47.00       179.16
 1306.70        2983.75           1673          56.00       218.40
 1306.73        2984.00           1677          56.00       218.40
HS scan finished at 21:46:57
end
