************************************************************
  HS Scan of (1) Internal mercury lamp
************************************************************
Integration time is 0.2294 seconds per sample
dh080619Manchester 53.47 2.23 2.804185pr1000
************************************************************
Dead Time -------------------------  3E-08 
Number of Cycles Used -------------  4 
Starting Wavelength (Angstroms) ---  2950 
Final Wavelength (Angstoms) -------  2984 
Wavelength Increment (Angstroms) --  .25 
Filter Wheel #1 Position ---------- (1) Ground quartz diffuser (ND=2.32)
Filter Wheel #2 Position ---------- (1) Neutral Density 0.494



************************************************************
HS scan start time = 01:32:29
Dark Count =  4.9 


Time (GMT)  Wavelength (Ang)  Step Number  Raw Counts  Counts/Second

   92.86        2950.00           1222          59.00       235.83
   92.92        2950.25           1226          68.00       275.07
   92.95        2950.50           1229          59.00       235.83
   92.98        2950.75           1232          50.00       196.60
   93.02        2951.00           1236          62.00       248.91
   93.05        2951.25           1239          48.00       187.88
   93.08        2951.50           1242          57.00       227.12
   93.11        2951.75           1246          57.00       227.12
   93.14        2952.00           1249          54.00       214.04
   93.17        2952.25           1252          55.00       218.40
   93.20        2952.50           1256          53.00       209.68
   93.23        2952.75           1259          61.00       244.55
   93.26        2953.00           1262          58.00       231.48
   93.29        2953.25           1266          62.00       248.91
   93.32        2953.50           1269          51.00       200.96
   93.35        2953.75           1272          53.00       209.68
   93.38        2954.00           1276          59.00       235.83
   93.41        2954.25           1279          58.00       231.48
   93.45        2954.50           1282          58.00       231.48
   93.48        2954.75           1286          62.00       248.91
   93.51        2955.00           1289          55.00       218.40
   93.54        2955.25           1292          52.00       205.32
   93.57        2955.50           1296          61.00       244.55
   93.60        2955.75           1299          57.00       227.12
   93.63        2956.00           1302          68.00       275.07
   93.66        2956.25           1306          74.00       301.22
   93.69        2956.50           1309          65.00       261.99
   93.72        2956.75           1312          71.00       288.15
   93.76        2957.00           1316          53.00       209.68
   93.79        2957.25           1319          57.00       227.12
   93.82        2957.50           1322          51.00       200.96
   93.85        2957.75           1326          55.00       218.40
   93.88        2958.00           1329          53.00       209.68
   93.91        2958.25           1332          51.00       200.96
   93.94        2958.50           1336          59.00       235.83
   93.97        2958.75           1339          53.00       209.68
   94.00        2959.00           1342          57.00       227.12
   94.03        2959.25           1346          62.00       248.91
   94.07        2959.50           1349          59.00       235.83
   94.10        2959.75           1352          73.00       296.86
   94.13        2960.00           1356          90.00       370.97
   94.16        2960.25           1359         120.00       501.75
   94.19        2960.50           1362         167.00       706.64
   94.22        2960.75           1366         203.00       863.58
   94.25        2961.00           1369         225.00       959.49
   94.28        2961.25           1372         255.00      1090.27
   94.31        2961.50           1376         303.00      1299.53
   94.35        2961.75           1379         411.00      1770.36
   94.38        2962.00           1382         797.00      3453.28
   94.41        2962.25           1386        2100.00      9135.46
   94.44        2962.50           1389        3372.00     14684.32
   94.47        2962.75           1392        4663.00     20317.96
   94.50        2963.00           1396        6351.00     27686.90
   94.53        2963.25           1399        7590.00     33097.80
   94.56        2963.50           1402        8828.00     38506.10
   94.59        2963.75           1406       10720.00     46774.84
   94.63        2964.00           1409       11732.00     51199.33
   94.66        2964.25           1412       13233.00     57763.92
   94.69        2964.50           1416       15023.00     65595.83
   94.72        2964.75           1419       16461.00     71890.28
   94.75        2965.00           1422       17647.00     77083.46
   94.78        2965.25           1426       19449.00     84977.03
   94.81        2965.50           1429       20477.00     89481.83
   94.84        2965.75           1432       21781.00     95197.82
   94.88        2966.00           1436       23448.00    102507.90
   94.91        2966.25           1439       24768.00    108298.60
   94.94        2966.50           1442       25976.00    113599.70
   94.97        2966.75           1446       27501.00    120294.30
   95.00        2967.00           1449       27848.00    121818.00
   95.03        2967.25           1452       27831.00    121743.30
   95.06        2967.50           1456       27987.00    122428.40
   95.09        2967.75           1459       28061.00    122753.30
   95.12        2968.00           1462       27740.00    121343.70
   95.16        2968.25           1466       27071.00    118406.40
   95.19        2968.50           1469       26152.00    114372.10
   95.22        2968.75           1472       25021.00    109408.70
   95.25        2969.00           1476       23484.00    102665.80
   95.28        2969.25           1479       22152.00     96824.44
   95.31        2969.50           1482       20760.00     90722.16
   95.34        2969.75           1486       19285.00     84258.49
   95.37        2970.00           1489       18018.00     78708.31
   95.41        2970.25           1492       16730.00     73068.02
   95.44        2970.50           1496       14930.00     65188.83
   95.47        2970.75           1499       13506.00     58958.15
   95.50        2971.00           1502       12161.00     53075.28
   95.53        2971.25           1506       10496.00     45795.66
   95.56        2971.50           1509        9168.00     39991.72
   95.59        2971.75           1513        7514.00     32765.85
   95.62        2972.00           1516        6292.00     27429.28
   95.65        2972.25           1519        5048.00     21998.39
   95.69        2972.50           1523        3425.00     14915.57
   95.72        2972.75           1526        2136.00      9292.48
   95.75        2973.00           1529        1053.00      4569.50
   95.78        2973.25           1533         382.00      1643.93
   95.81        2973.50           1536         292.00      1251.57
   95.84        2973.75           1539         260.00      1112.07
   95.87        2974.00           1543         212.00       902.81
   95.90        2974.25           1546         163.00       689.20
   95.93        2974.50           1549         138.00       580.22
   95.96        2974.75           1553          98.00       405.85
   95.99        2975.00           1556          81.00       331.74
   96.03        2975.25           1559          61.00       244.55
   96.06        2975.50           1563          59.00       235.83
   96.09        2975.75           1566          56.00       222.76
   96.12        2976.00           1569          56.00       222.76
   96.15        2976.25           1573          51.00       200.96
   96.18        2976.50           1576          52.00       205.32
   96.21        2976.75           1579          64.00       257.63
   96.24        2977.00           1583          55.00       218.40
   96.27        2977.25           1586          56.00       222.76
   96.30        2977.50           1590          47.00       183.52
   96.33        2977.75           1593          53.00       209.68
   96.37        2978.00           1596          57.00       227.12
   96.40        2978.25           1600          49.00       192.24
   96.43        2978.50           1603          43.00       166.09
   96.46        2978.75           1606          56.00       222.76
   96.49        2979.00           1610          54.00       214.04
   96.52        2979.25           1613          68.00       275.07
   96.55        2979.50           1616          52.00       205.32
   96.58        2979.75           1620          47.00       183.52
   96.61        2980.00           1623          43.00       166.09
   96.64        2980.25           1626          50.00       196.60
   96.67        2980.50           1630          57.00       227.12
   96.71        2980.75           1633          51.00       200.96
   96.74        2981.00           1637          45.00       174.80
   96.77        2981.25           1640          47.00       183.52
   96.80        2981.50           1643          55.00       218.40
   96.83        2981.75           1647          52.00       205.32
   96.86        2982.00           1650          55.00       218.40
   96.89        2982.25           1653          51.00       200.96
   96.92        2982.50           1657          48.00       187.88
   96.96        2982.75           1660          48.00       187.88
   96.99        2983.00           1663          50.00       196.60
   97.02        2983.25           1667          56.00       222.76
   97.05        2983.50           1670          46.00       179.16
   97.08        2983.75           1673          53.00       209.68
   97.11        2984.00           1677          52.00       205.32
HS scan finished at 01:37:20
end
************************************************************
  HS Scan of (1) Internal mercury lamp
************************************************************
Integration time is 0.2294 seconds per sample
dh080619Manchester 53.47 2.23 2.804185pr1000
************************************************************
Dead Time -------------------------  3E-08 
Number of Cycles Used -------------  4 
Starting Wavelength (Angstroms) ---  2950 
Final Wavelength (Angstoms) -------  2984 
Wavelength Increment (Angstroms) --  .25 
Filter Wheel #1 Position ---------- (1) Ground quartz diffuser (ND=2.32)
Filter Wheel #2 Position ---------- (1) Neutral Density 0.494



************************************************************
HS scan start time = 21:42:04
Dark Count =  5.6 


Time (GMT)  Wavelength (Ang)  Step Number  Raw Counts  Counts/Second

 1302.44        2950.00           1222          57.00       224.06
 1302.50        2950.25           1226          57.00       224.06
 1302.54        2950.50           1229          55.00       215.35
 1302.57        2950.75           1232          55.00       215.35
 1302.60        2951.00           1236          70.00       280.73
 1302.63        2951.25           1239          54.00       210.99
 1302.66        2951.50           1242          54.00       210.99
 1302.69        2951.75           1246          53.00       206.63
 1302.72        2952.00           1249          59.00       232.78
 1302.75        2952.25           1252          58.00       228.42
 1302.78        2952.50           1256          56.00       219.71
 1302.81        2952.75           1259          53.00       206.63
 1302.84        2953.00           1262          58.00       228.42
 1302.88        2953.25           1266          52.00       202.27
 1302.91        2953.50           1269          66.00       263.30
 1302.94        2953.75           1272          58.00       228.42
 1302.97        2954.00           1276          62.00       245.86
 1303.00        2954.25           1279          63.00       250.22
 1303.03        2954.50           1282          54.00       210.99
 1303.06        2954.75           1286          53.00       206.63
 1303.09        2955.00           1289          59.00       232.78
 1303.12        2955.25           1292          54.00       210.99
 1303.15        2955.50           1296          56.00       219.71
 1303.18        2955.75           1299          60.00       237.14
 1303.21        2956.00           1302          60.00       237.14
 1303.25        2956.25           1306          56.00       219.71
 1303.28        2956.50           1309          53.00       206.63
 1303.31        2956.75           1312          61.00       241.50
 1303.34        2957.00           1316          60.00       237.14
 1303.37        2957.25           1319          52.00       202.27
 1303.40        2957.50           1322          57.00       224.06
 1303.43        2957.75           1326          55.00       215.35
 1303.46        2958.00           1329          52.00       202.27
 1303.49        2958.25           1332          53.00       206.63
 1303.52        2958.50           1336          55.00       215.35
 1303.55        2958.75           1339          60.00       237.14
 1303.59        2959.00           1342          65.00       258.94
 1303.62        2959.25           1346          60.00       237.14
 1303.65        2959.50           1349          59.00       232.78
 1303.68        2959.75           1352          74.00       298.17
 1303.71        2960.00           1356         104.00       428.95
 1303.74        2960.25           1359         134.00       559.73
 1303.77        2960.50           1362         171.00       721.03
 1303.80        2960.75           1366         194.00       821.29
 1303.83        2961.00           1369         237.00      1008.75
 1303.86        2961.25           1372         260.00      1109.02
 1303.90        2961.50           1376         341.00      1462.14
 1303.93        2961.75           1379         496.00      2137.89
 1303.96        2962.00           1382        1081.00      4688.54
 1303.99        2962.25           1386        2539.00     11047.25
 1304.02        2962.50           1389        3830.00     16679.66
 1304.05        2962.75           1392        4937.00     21510.83
 1304.08        2963.00           1396        6648.00     28980.72
 1304.11        2963.25           1399        7965.00     34732.77
 1304.14        2963.50           1402        9321.00     40657.24
 1304.17        2963.75           1406       11112.00     48485.48
 1304.21        2964.00           1409       12527.00     54672.87
 1304.24        2964.25           1412       13897.00     60665.67
 1304.27        2964.50           1416       15547.00     67886.16
 1304.30        2964.75           1419       16886.00     73748.00
 1304.33        2965.00           1422       18212.00     79554.96
 1304.36        2965.25           1426       19828.00     86634.64
 1304.39        2965.50           1429       21073.00     92091.05
 1304.42        2965.75           1432       22397.00     97895.62
 1304.45        2966.00           1436       24133.00    105509.60
 1304.48        2966.25           1439       25390.00    111024.80
 1304.52        2966.50           1442       26546.00    116098.50
 1304.55        2966.75           1446       27753.00    121397.70
 1304.58        2967.00           1449       28030.00    122614.10
 1304.61        2967.25           1452       28034.00    122631.70
 1304.64        2967.50           1456       27960.00    122306.70
 1304.67        2967.75           1459       27900.00    122043.20
 1304.70        2968.00           1462       27845.00    121801.70
 1304.73        2968.25           1466       27039.00    118262.80
 1304.76        2968.50           1469       25753.00    112617.90
 1304.79        2968.75           1472       24553.00    107352.20
 1304.83        2969.00           1476       22866.00     99952.28
 1304.86        2969.25           1479       21453.00     93756.81
 1304.89        2969.50           1482       20184.00     88194.68
 1304.92        2969.75           1486       18531.00     80952.25
 1304.95        2970.00           1489       17174.00     75009.06
 1304.98        2970.25           1492       16132.00     70446.90
 1305.01        2970.50           1496       14265.00     62275.79
 1305.04        2970.75           1499       12955.00     56544.84
 1305.07        2971.00           1502       11701.00     51060.73
 1305.11        2971.25           1506       10061.00     43891.24
 1305.14        2971.50           1509        8796.00     38363.22
 1305.17        2971.75           1513        7151.00     31177.36
 1305.20        2972.00           1516        5861.00     25544.42
 1305.23        2972.25           1519        4486.00     19542.40
 1305.26        2972.50           1523        2847.00     12390.83
 1305.29        2972.75           1526        1617.00      7025.89
 1305.32        2973.00           1529         743.00      3214.78
 1305.35        2973.25           1533         360.00      1544.97
 1305.38        2973.50           1536         270.00      1152.61
 1305.41        2973.75           1539         247.00      1052.34
 1305.45        2974.00           1543         195.00       825.65
 1305.48        2974.25           1546         147.00       616.40
 1305.51        2974.50           1549         117.00       485.62
 1305.54        2974.75           1553          82.00       333.05
 1305.57        2975.00           1556          56.00       219.71
 1305.60        2975.25           1559          68.00       272.02
 1305.63        2975.50           1563          50.00       193.55
 1305.66        2975.75           1566          50.00       193.55
 1305.69        2976.00           1569          55.00       215.35
 1305.72        2976.25           1573          53.00       206.63
 1305.76        2976.50           1576          55.00       215.35
 1305.79        2976.75           1579          53.00       206.63
 1305.82        2977.00           1583          56.00       219.71
 1305.85        2977.25           1586          51.00       197.91
 1305.88        2977.50           1590          50.00       193.55
 1305.91        2977.75           1593          55.00       215.35
 1305.94        2978.00           1596          49.00       189.19
 1305.97        2978.25           1600          55.00       215.35
 1306.01        2978.50           1603          48.00       184.83
 1306.04        2978.75           1606          57.00       224.06
 1306.07        2979.00           1610          51.00       197.91
 1306.10        2979.25           1613          52.00       202.27
 1306.13        2979.50           1616          54.00       210.99
 1306.16        2979.75           1620          50.00       193.55
 1306.19        2980.00           1623          45.00       171.75
 1306.22        2980.25           1626          59.00       232.78
 1306.25        2980.50           1630          53.00       206.63
 1306.28        2980.75           1633          50.00       193.55
 1306.32        2981.00           1637          44.00       167.39
 1306.35        2981.25           1640          47.00       180.47
 1306.38        2981.50           1643          49.00       189.19
 1306.41        2981.75           1647          51.00       197.91
 1306.44        2982.00           1650          61.00       241.50
 1306.47        2982.25           1653          51.00       197.91
 1306.50        2982.50           1657          42.00       158.68
 1306.53        2982.75           1660          54.00       210.99
 1306.56        2983.00           1663          48.00       184.83
 1306.60        2983.25           1667          57.00       224.06
 1306.63        2983.50           1670          53.00       206.63
 1306.67        2983.75           1673          54.00       210.99
 1306.71        2984.00           1677          43.00       163.03
HS scan finished at 21:46:55
end
