************************************************************
  HS Scan of (1) Internal mercury lamp
************************************************************
Integration time is 0.2294 seconds per sample
dh040618Manchester 53.47 2.23 2.911481pr1000
************************************************************
Dead Time -------------------------  3E-08 
Number of Cycles Used -------------  4 
Starting Wavelength (Angstroms) ---  2950 
Final Wavelength (Angstoms) -------  2984 
Wavelength Increment (Angstroms) --  .25 
Filter Wheel #1 Position ---------- (1) Ground quartz diffuser (ND=2.32)
Filter Wheel #2 Position ---------- (1) Neutral Density 0.494



************************************************************
HS scan start time = 01:35:18
Dark Count =  9.2 


Time (GMT)  Wavelength (Ang)  Step Number  Raw Counts  Counts/Second

   95.67        2950.00           1222          61.00       225.81
   95.74        2950.25           1226          56.00       204.01
   95.77        2950.50           1229          61.00       225.81
   95.80        2950.75           1232          54.00       195.29
   95.83        2951.00           1236          56.00       204.01
   95.86        2951.25           1239          56.00       204.01
   95.89        2951.50           1242          61.00       225.81
   95.92        2951.75           1246          52.00       186.57
   95.95        2952.00           1249          62.00       230.17
   95.98        2952.25           1252          63.00       234.53
   96.01        2952.50           1256          55.00       199.65
   96.04        2952.75           1259          53.00       190.93
   96.08        2953.00           1262          58.00       212.73
   96.11        2953.25           1266          63.00       234.53
   96.14        2953.50           1269          54.00       195.29
   96.17        2953.75           1272          55.00       199.65
   96.20        2954.00           1276          63.00       234.53
   96.23        2954.25           1279          66.00       247.60
   96.26        2954.50           1282          65.00       243.25
   96.29        2954.75           1286          61.00       225.81
   96.32        2955.00           1289          50.00       177.86
   96.35        2955.25           1292          49.00       173.50
   96.38        2955.50           1296          56.00       204.01
   96.42        2955.75           1299          52.00       186.57
   96.45        2956.00           1302          54.00       195.29
   96.48        2956.25           1306          57.00       208.37
   96.51        2956.50           1309          55.00       199.65
   96.54        2956.75           1312          61.00       225.81
   96.57        2957.00           1316          57.00       208.37
   96.60        2957.25           1319          55.00       199.65
   96.63        2957.50           1322          53.00       190.93
   96.66        2957.75           1326          61.00       225.81
   96.69        2958.00           1329          56.00       204.01
   96.72        2958.25           1332          55.00       199.65
   96.76        2958.50           1336          57.00       208.37
   96.79        2958.75           1339          65.00       243.25
   96.82        2959.00           1342          51.00       182.22
   96.85        2959.25           1346          62.00       230.17
   96.88        2959.50           1349          61.00       225.81
   96.91        2959.75           1352          77.00       295.56
   96.94        2960.00           1356         113.00       452.49
   96.97        2960.25           1359         137.00       557.11
   97.00        2960.50           1362         168.00       692.26
   97.03        2960.75           1366         232.00       971.26
   97.06        2961.00           1369         254.00      1067.17
   97.10        2961.25           1372         293.00      1237.19
   97.13        2961.50           1376         374.00      1590.31
   97.16        2961.75           1379         504.00      2157.07
   97.19        2962.00           1382         987.00      4262.97
   97.22        2962.25           1386        2584.00     11227.85
   97.25        2962.50           1389        4040.00     17580.32
   97.28        2962.75           1392        5446.00     23716.96
   97.31        2963.00           1396        7364.00     32091.91
   97.34        2963.25           1399        8669.00     37792.61
   97.38        2963.50           1402       10324.00     45025.03
   97.41        2963.75           1406       12323.00     53764.94
   97.44        2964.00           1409       13748.00     59998.05
   97.47        2964.25           1412       15285.00     66723.66
   97.50        2964.50           1416       17280.00     75457.47
   97.53        2964.75           1419       18729.00     81803.83
   97.56        2965.00           1422       20343.00     88875.71
   97.59        2965.25           1426       22199.00     97011.66
   97.62        2965.50           1429       24005.00    104932.30
   97.65        2965.75           1432       25348.00    110824.70
   97.69        2966.00           1436       27227.00    119072.40
   97.72        2966.25           1439       28490.00    124618.50
   97.75        2966.50           1442       30082.00    131611.90
   97.78        2966.75           1446       31454.00    137641.30
   97.81        2967.00           1449       31982.00    139962.20
   97.84        2967.25           1452       32128.00    140604.10
   97.87        2967.50           1456       32214.00    140982.10
   97.90        2967.75           1459       32175.00    140810.70
   97.93        2968.00           1462       31956.00    139847.90
   97.96        2968.25           1466       31088.00    136032.70
   97.99        2968.50           1469       29964.00    131093.50
   98.03        2968.75           1472       28639.00    125272.90
   98.06        2969.00           1476       26573.00    116201.20
   98.09        2969.25           1479       25204.00    110192.80
   98.12        2969.50           1482       23694.00    103568.00
   98.15        2969.75           1486       21695.00     94801.94
   98.18        2970.00           1489       20406.00     89151.82
   98.21        2970.25           1492       19084.00     83359.03
   98.24        2970.50           1496       17005.00     74253.28
   98.27        2970.75           1499       15565.00     67949.18
   98.31        2971.00           1502       14035.00     61253.70
   98.34        2971.25           1506       11868.00     51775.22
   98.37        2971.50           1509       10421.00     45449.03
   98.40        2971.75           1513        8526.00     37167.84
   98.43        2972.00           1516        7079.00     30847.19
   98.46        2972.25           1519        5675.00     24716.66
   98.49        2972.50           1523        3717.00     16170.88
   98.52        2972.75           1526        2325.00     10098.09
   98.56        2973.00           1529        1162.00      5026.04
   98.59        2973.25           1533         404.00      1721.10
   98.62        2973.50           1536         303.00      1280.78
   98.65        2973.75           1539         241.00      1010.49
   98.68        2974.00           1543         193.00       801.24
   98.71        2974.25           1546         155.00       635.58
   98.74        2974.50           1549         113.00       452.49
   98.77        2974.75           1553          99.00       391.46
   98.80        2975.00           1556          65.00       243.25
   98.83        2975.25           1559          59.00       217.09
   98.86        2975.50           1563          57.00       208.37
   98.89        2975.75           1566          55.00       199.65
   98.92        2976.00           1569          56.00       204.01
   98.96        2976.25           1573          50.00       177.86
   98.99        2976.50           1576          51.00       182.22
   99.02        2976.75           1579          53.00       190.93
   99.05        2977.00           1583          54.00       195.29
   99.08        2977.25           1586          53.00       190.93
   99.11        2977.50           1590          57.00       208.37
   99.14        2977.75           1593          47.00       164.78
   99.17        2978.00           1596          51.00       182.22
   99.20        2978.25           1600          62.00       230.17
   99.23        2978.50           1603          53.00       190.93
   99.26        2978.75           1606          53.00       190.93
   99.29        2979.00           1610          51.00       182.22
   99.32        2979.25           1613          53.00       190.93
   99.36        2979.50           1616          48.00       169.14
   99.39        2979.75           1620          51.00       182.22
   99.42        2980.00           1623          54.00       195.29
   99.45        2980.25           1626          56.00       204.01
   99.48        2980.50           1630          49.00       173.50
   99.51        2980.75           1633          51.00       182.22
   99.54        2981.00           1637          48.00       169.14
   99.57        2981.25           1640          53.00       190.93
   99.60        2981.50           1643          46.00       160.42
   99.63        2981.75           1647          50.00       177.86
   99.66        2982.00           1650          54.00       195.29
   99.69        2982.25           1653          48.00       169.14
   99.73        2982.50           1657          48.00       169.14
   99.76        2982.75           1660          50.00       177.86
   99.79        2983.00           1663          52.00       186.57
   99.82        2983.25           1667          52.00       186.57
   99.85        2983.50           1670          55.00       199.65
   99.88        2983.75           1673          38.00       125.55
   99.91        2984.00           1677          52.00       186.57
HS scan finished at 01:40:08
end
************************************************************
  HS Scan of (1) Internal mercury lamp
************************************************************
Integration time is 0.2294 seconds per sample
dh040618Manchester 53.47 2.23 2.804185pr1000
************************************************************
Dead Time -------------------------  3E-08 
Number of Cycles Used -------------  4 
Starting Wavelength (Angstroms) ---  2950 
Final Wavelength (Angstoms) -------  2984 
Wavelength Increment (Angstroms) --  .25 
Filter Wheel #1 Position ---------- (1) Ground quartz diffuser (ND=2.32)
Filter Wheel #2 Position ---------- (1) Neutral Density 0.494



************************************************************
HS scan start time = 21:42:07
Dark Count =  5 


Time (GMT)  Wavelength (Ang)  Step Number  Raw Counts  Counts/Second

 1302.48        2950.00           1222          55.00       217.96
 1302.55        2950.25           1226          56.00       222.32
 1302.58        2950.50           1229          51.00       200.52
 1302.61        2950.75           1232          59.00       235.40
 1302.64        2951.00           1236          53.00       209.24
 1302.67        2951.25           1239          63.00       252.84
 1302.70        2951.50           1242          58.00       231.04
 1302.73        2951.75           1246          57.00       226.68
 1302.76        2952.00           1249          57.00       226.68
 1302.79        2952.25           1252          57.00       226.68
 1302.82        2952.50           1256          57.00       226.68
 1302.86        2952.75           1259          57.00       226.68
 1302.89        2953.00           1262          61.00       244.12
 1302.92        2953.25           1266          59.00       235.40
 1302.95        2953.50           1269          54.00       213.60
 1302.98        2953.75           1272          54.00       213.60
 1303.01        2954.00           1276          50.00       196.17
 1303.04        2954.25           1279          68.00       274.63
 1303.07        2954.50           1282          58.00       231.04
 1303.10        2954.75           1286          56.00       222.32
 1303.13        2955.00           1289          57.00       226.68
 1303.16        2955.25           1292          58.00       231.04
 1303.20        2955.50           1296          58.00       231.04
 1303.23        2955.75           1299          63.00       252.84
 1303.26        2956.00           1302          52.00       204.88
 1303.29        2956.25           1306          57.00       226.68
 1303.32        2956.50           1309          58.00       231.04
 1303.35        2956.75           1312          61.00       244.12
 1303.38        2957.00           1316          56.00       222.32
 1303.41        2957.25           1319          57.00       226.68
 1303.44        2957.50           1322          53.00       209.24
 1303.47        2957.75           1326          60.00       239.76
 1303.50        2958.00           1329          60.00       239.76
 1303.53        2958.25           1332          53.00       209.24
 1303.56        2958.50           1336          61.00       244.12
 1303.60        2958.75           1339          58.00       231.04
 1303.63        2959.00           1342          52.00       204.88
 1303.66        2959.25           1346          56.00       222.32
 1303.69        2959.50           1349          59.00       235.40
 1303.72        2959.75           1352          62.00       248.48
 1303.75        2960.00           1356          85.00       348.74
 1303.78        2960.25           1359         108.00       449.00
 1303.81        2960.50           1362         137.00       575.42
 1303.84        2960.75           1366         194.00       823.91
 1303.87        2961.00           1369         230.00       980.85
 1303.90        2961.25           1372         247.00      1054.96
 1303.94        2961.50           1376         319.00      1368.84
 1303.97        2961.75           1379         459.00      1979.19
 1304.00        2962.00           1382        1036.00      4494.94
 1304.03        2962.25           1386        2534.00     11028.06
 1304.06        2962.50           1389        3823.00     16651.74
 1304.09        2962.75           1392        5339.00     23268.20
 1304.12        2963.00           1396        7197.00     31380.88
 1304.15        2963.25           1399        8563.00     37347.84
 1304.18        2963.50           1402       10005.00     43649.10
 1304.21        2963.75           1406       12044.00     52563.21
 1304.24        2964.00           1409       13344.00     58249.05
 1304.27        2964.25           1412       14867.00     64912.69
 1304.31        2964.50           1416       16714.00     72997.53
 1304.34        2964.75           1419       18075.00     78957.52
 1304.37        2965.00           1422       19531.00     85335.89
 1304.40        2965.25           1426       21494.00     93939.18
 1304.43        2965.50           1429       22720.00     99314.65
 1304.46        2965.75           1432       24270.00    106113.20
 1304.49        2966.00           1436       26114.00    114204.90
 1304.52        2966.25           1439       27695.00    121145.70
 1304.55        2966.50           1442       29049.00    127092.20
 1304.58        2966.75           1446       30501.00    133471.50
 1304.61        2967.00           1449       30805.00    134807.40
 1304.65        2967.25           1452       30784.00    134715.10
 1304.68        2967.50           1456       30872.00    135101.80
 1304.71        2967.75           1459       30907.00    135255.60
 1304.74        2968.00           1462       30751.00    134570.10
 1304.77        2968.25           1466       30203.00    132162.00
 1304.80        2968.50           1469       28894.00    126411.40
 1304.83        2968.75           1472       27696.00    121150.10
 1304.86        2969.00           1476       25698.00    112379.10
 1304.89        2969.25           1479       24245.00    106003.50
 1304.92        2969.50           1482       22764.00     99507.59
 1304.96        2969.75           1486       20689.00     90410.53
 1304.99        2970.00           1489       19358.00     84577.90
 1305.02        2970.25           1492       18033.00     78773.56
 1305.05        2970.50           1496       16154.00     70545.83
 1305.08        2970.75           1499       14910.00     65100.87
 1305.11        2971.00           1502       13582.00     59290.20
 1305.14        2971.25           1506       11685.00     50993.39
 1305.17        2971.50           1509       10028.00     43749.63
 1305.20        2971.75           1513        8102.00     35333.86
 1305.23        2972.00           1516        6745.00     29406.93
 1305.26        2972.25           1519        5373.00     23416.62
 1305.30        2972.50           1523        3436.00     14963.12
 1305.33        2972.75           1526        2110.00      9178.64
 1305.36        2973.00           1529        1020.00      4425.17
 1305.39        2973.25           1533         434.00      1870.20
 1305.42        2973.50           1536         323.00      1386.28
 1305.45        2973.75           1539         287.00      1229.34
 1305.48        2974.00           1543         248.00      1059.32
 1305.51        2974.25           1546         189.00       802.11
 1305.54        2974.50           1549         146.00       614.66
 1305.57        2974.75           1553         105.00       435.93
 1305.60        2975.00           1556          78.00       318.22
 1305.64        2975.25           1559          62.00       248.48
 1305.67        2975.50           1563          53.00       209.24
 1305.70        2975.75           1566          51.00       200.52
 1305.73        2976.00           1569          47.00       183.09
 1305.76        2976.25           1573          52.00       204.88
 1305.79        2976.50           1576          56.00       222.32
 1305.82        2976.75           1579          51.00       200.52
 1305.85        2977.00           1583          53.00       209.24
 1305.88        2977.25           1586          57.00       226.68
 1305.91        2977.50           1590          52.00       204.88
 1305.94        2977.75           1593          46.00       178.73
 1305.97        2978.00           1596          53.00       209.24
 1306.01        2978.25           1600          50.00       196.17
 1306.04        2978.50           1603          51.00       200.52
 1306.07        2978.75           1606          52.00       204.88
 1306.10        2979.00           1610          64.00       257.19
 1306.13        2979.25           1613          57.00       226.68
 1306.16        2979.50           1616          55.00       217.96
 1306.19        2979.75           1620          52.00       204.88
 1306.22        2980.00           1623          55.00       217.96
 1306.25        2980.25           1626          48.00       187.45
 1306.28        2980.50           1630          47.00       183.09
 1306.31        2980.75           1633          51.00       200.52
 1306.34        2981.00           1637          51.00       200.52
 1306.37        2981.25           1640          52.00       204.88
 1306.41        2981.50           1643          52.00       204.88
 1306.44        2981.75           1647          57.00       226.68
 1306.47        2982.00           1650          44.00       170.01
 1306.50        2982.25           1653          53.00       209.24
 1306.53        2982.50           1657          56.00       222.32
 1306.56        2982.75           1660          51.00       200.52
 1306.59        2983.00           1663          54.00       213.60
 1306.62        2983.25           1667          52.00       204.88
 1306.65        2983.50           1670          50.00       196.17
 1306.68        2983.75           1673          57.00       226.68
 1306.71        2984.00           1677          56.00       222.32
HS scan finished at 21:46:56
end
