************************************************************
  HS Scan of (1) Internal mercury lamp
************************************************************
Integration time is 0.2294 seconds per sample
dh020618Manchester 53.47 2.23 2.965129pr1000
************************************************************
Dead Time -------------------------  3E-08 
Number of Cycles Used -------------  4 
Starting Wavelength (Angstroms) ---  2950 
Final Wavelength (Angstoms) -------  2984 
Wavelength Increment (Angstroms) --  .25 
Filter Wheel #1 Position ---------- (1) Ground quartz diffuser (ND=2.32)
Filter Wheel #2 Position ---------- (1) Neutral Density 0.494



************************************************************
HS scan start time = 01:21:10
Dark Count =  5.1 


Time (GMT)  Wavelength (Ang)  Step Number  Raw Counts  Counts/Second

   81.54        2950.00           1222          52.00       204.45
   81.61        2950.25           1226          56.00       221.88
   81.64        2950.50           1229          53.00       208.81
   81.67        2950.75           1232          58.00       230.60
   81.70        2951.00           1236          58.00       230.60
   81.73        2951.25           1239          54.00       213.17
   81.76        2951.50           1242          51.00       200.09
   81.80        2951.75           1246          57.00       226.24
   81.83        2952.00           1249          58.00       230.60
   81.86        2952.25           1252          52.00       204.45
   81.89        2952.50           1256          50.00       195.73
   81.92        2952.75           1259          58.00       230.60
   81.95        2953.00           1262          54.00       213.17
   81.98        2953.25           1266          54.00       213.17
   82.01        2953.50           1269          60.00       239.32
   82.05        2953.75           1272          55.00       217.53
   82.08        2954.00           1276          51.00       200.09
   82.11        2954.25           1279          57.00       226.24
   82.14        2954.50           1282          55.00       217.53
   82.17        2954.75           1286          56.00       221.88
   82.20        2955.00           1289          65.00       261.12
   82.23        2955.25           1292          58.00       230.60
   82.26        2955.50           1296          53.00       208.81
   82.29        2955.75           1299          60.00       239.32
   82.32        2956.00           1302          62.00       248.04
   82.35        2956.25           1306          50.00       195.73
   82.39        2956.50           1309          52.00       204.45
   82.42        2956.75           1312          53.00       208.81
   82.45        2957.00           1316          58.00       230.60
   82.48        2957.25           1319          55.00       217.53
   82.51        2957.50           1322          59.00       234.96
   82.54        2957.75           1326          64.00       256.76
   82.57        2958.00           1329          51.00       200.09
   82.60        2958.25           1332          61.00       243.68
   82.63        2958.50           1336          59.00       234.96
   82.66        2958.75           1339          56.00       221.88
   82.69        2959.00           1342          70.00       282.91
   82.73        2959.25           1346          55.00       217.53
   82.76        2959.50           1349          66.00       265.48
   82.79        2959.75           1352          81.00       330.87
   82.82        2960.00           1356         115.00       479.08
   82.85        2960.25           1359         135.00       566.27
   82.88        2960.50           1362         176.00       745.00
   82.91        2960.75           1366         229.00       976.05
   82.94        2961.00           1369         287.00      1228.90
   82.97        2961.25           1372         297.00      1272.50
   83.00        2961.50           1376         366.00      1573.31
   83.03        2961.75           1379         543.00      2344.98
   83.07        2962.00           1382        1238.00      5375.32
   83.10        2962.25           1386        3034.00     13208.81
   83.13        2962.50           1389        4536.00     19762.80
   83.16        2962.75           1392        6022.00     26249.52
   83.19        2963.00           1396        7934.00     34599.54
   83.22        2963.25           1399        9518.00     41520.30
   83.25        2963.50           1402       10993.00     47967.41
   83.28        2963.75           1406       13175.00     57509.34
   83.32        2964.00           1409       14633.00     63888.25
   83.35        2964.25           1412       16259.00     71005.06
   83.38        2964.50           1416       18433.00     80525.16
   83.41        2964.75           1419       19818.00     86593.02
   83.44        2965.00           1422       21601.00     94407.81
   83.47        2965.25           1426       23420.00    102384.20
   83.50        2965.50           1429       25178.00    110096.70
   83.53        2965.75           1432       26454.00    115696.90
   83.56        2966.00           1436       28524.00    124785.80
   83.60        2966.25           1439       29864.00    130672.10
   83.63        2966.50           1442       31647.00    138507.60
   83.66        2966.75           1446       33112.00    144948.50
   83.69        2967.00           1449       33442.00    146399.60
   83.72        2967.25           1452       33451.00    146439.20
   83.75        2967.50           1456       33586.00    147032.90
   83.78        2967.75           1459       33489.00    146606.30
   83.81        2968.00           1462       33199.00    145331.10
   83.84        2968.25           1466       32429.00    141945.40
   83.88        2968.50           1469       31029.00    135791.40
   83.91        2968.75           1472       29665.00    129797.80
   83.94        2969.00           1476       27665.00    121013.50
   83.97        2969.25           1479       26259.00    114840.90
   84.00        2969.50           1482       24459.00    106941.90
   84.03        2969.75           1486       22343.00     97661.04
   84.06        2970.00           1489       20876.00     91229.74
   84.09        2970.25           1492       19435.00     84914.83
   84.13        2970.50           1496       17399.00     75996.52
   84.16        2970.75           1499       15745.00     68755.02
   84.19        2971.00           1502       14346.00     62632.40
   84.22        2971.25           1506       12243.00     53433.02
   84.25        2971.50           1509       10762.00     46957.57
   84.28        2971.75           1513        8718.00     38024.61
   84.31        2972.00           1516        7100.00     30956.81
   84.34        2972.25           1519        5621.00     24498.82
   84.37        2972.50           1523        3509.00     15281.20
   84.40        2972.75           1526        2126.00      9247.99
   84.44        2973.00           1529         920.00      3988.71
   84.47        2973.25           1533         395.00      1699.74
   84.50        2973.50           1536         332.00      1425.08
   84.53        2973.75           1539         283.00      1211.47
   84.56        2974.00           1543         237.00      1010.93
   84.59        2974.25           1546         174.00       736.28
   84.62        2974.50           1549         133.00       557.55
   84.65        2974.75           1553          91.00       374.46
   84.68        2975.00           1556          61.00       243.68
   84.71        2975.25           1559          58.00       230.60
   84.74        2975.50           1563          54.00       213.17
   84.78        2975.75           1566          56.00       221.88
   84.81        2976.00           1569          48.00       187.01
   84.84        2976.25           1573          56.00       221.88
   84.87        2976.50           1576          48.00       187.01
   84.90        2976.75           1579          57.00       226.24
   84.93        2977.00           1583          51.00       200.09
   84.96        2977.25           1586          53.00       208.81
   84.99        2977.50           1590          52.00       204.45
   85.02        2977.75           1593          53.00       208.81
   85.05        2978.00           1596          59.00       234.96
   85.09        2978.25           1600          52.00       204.45
   85.12        2978.50           1603          60.00       239.32
   85.15        2978.75           1606          58.00       230.60
   85.18        2979.00           1610          47.00       182.65
   85.21        2979.25           1613          50.00       195.73
   85.24        2979.50           1616          50.00       195.73
   85.27        2979.75           1620          49.00       191.37
   85.30        2980.00           1623          57.00       226.24
   85.33        2980.25           1626          56.00       221.88
   85.36        2980.50           1630          53.00       208.81
   85.39        2980.75           1633          50.00       195.73
   85.42        2981.00           1637          51.00       200.09
   85.45        2981.25           1640          59.00       234.96
   85.48        2981.50           1643          46.00       178.29
   85.51        2981.75           1647          58.00       230.60
   85.55        2982.00           1650          52.00       204.45
   85.58        2982.25           1653          45.00       173.93
   85.61        2982.50           1657          69.00       278.56
   85.64        2982.75           1660          52.00       204.45
   85.67        2983.00           1663          51.00       200.09
   85.70        2983.25           1667          48.00       187.01
   85.73        2983.50           1670          54.00       213.17
   85.76        2983.75           1673          46.00       178.29
   85.79        2984.00           1677          51.00       200.09
HS scan finished at 01:26:01
end
************************************************************
  HS Scan of (1) Internal mercury lamp
************************************************************
Integration time is 0.2294 seconds per sample
dh020618Manchester 53.47 2.23 2.857833pr1000
************************************************************
Dead Time -------------------------  3E-08 
Number of Cycles Used -------------  4 
Starting Wavelength (Angstroms) ---  2950 
Final Wavelength (Angstoms) -------  2984 
Wavelength Increment (Angstroms) --  .25 
Filter Wheel #1 Position ---------- (1) Ground quartz diffuser (ND=2.32)
Filter Wheel #2 Position ---------- (1) Neutral Density 0.494



************************************************************
HS scan start time = 21:42:04
Dark Count =  6.6 


Time (GMT)  Wavelength (Ang)  Step Number  Raw Counts  Counts/Second

 1302.44        2950.00           1222          55.00       210.99
 1302.51        2950.25           1226          62.00       241.50
 1302.54        2950.50           1229          57.00       219.71
 1302.57        2950.75           1232          59.00       228.42
 1302.60        2951.00           1236          55.00       210.99
 1302.64        2951.25           1239          59.00       228.42
 1302.67        2951.50           1242          56.00       215.35
 1302.70        2951.75           1246          63.00       245.86
 1302.73        2952.00           1249          61.00       237.14
 1302.76        2952.25           1252          52.00       197.91
 1302.79        2952.50           1256          54.00       206.63
 1302.82        2952.75           1259          60.00       232.78
 1302.85        2953.00           1262          61.00       237.14
 1302.88        2953.25           1266          66.00       258.94
 1302.91        2953.50           1269          62.00       241.50
 1302.94        2953.75           1272          53.00       202.27
 1302.98        2954.00           1276          53.00       202.27
 1303.01        2954.25           1279          54.00       206.63
 1303.04        2954.50           1282          57.00       219.71
 1303.07        2954.75           1286          62.00       241.50
 1303.10        2955.00           1289          56.00       215.35
 1303.13        2955.25           1292          60.00       232.78
 1303.16        2955.50           1296          55.00       210.99
 1303.19        2955.75           1299          53.00       202.27
 1303.22        2956.00           1302          54.00       206.63
 1303.25        2956.25           1306          57.00       219.71
 1303.28        2956.50           1309          55.00       210.99
 1303.31        2956.75           1312          54.00       206.63
 1303.35        2957.00           1316          56.00       215.35
 1303.38        2957.25           1319          52.00       197.91
 1303.41        2957.50           1322          49.00       184.83
 1303.44        2957.75           1326          53.00       202.27
 1303.47        2958.00           1329          55.00       210.99
 1303.50        2958.25           1332          64.00       250.22
 1303.53        2958.50           1336          62.00       241.50
 1303.56        2958.75           1339          59.00       228.42
 1303.59        2959.00           1342          62.00       241.50
 1303.62        2959.25           1346          62.00       241.50
 1303.65        2959.50           1349          68.00       267.66
 1303.69        2959.75           1352          86.00       346.12
 1303.72        2960.00           1356         113.00       463.83
 1303.75        2960.25           1359         137.00       568.45
 1303.78        2960.50           1362         182.00       764.62
 1303.81        2960.75           1366         227.00       960.79
 1303.84        2961.00           1369         262.00      1113.38
 1303.87        2961.25           1372         289.00      1231.08
 1303.90        2961.50           1376         350.00      1497.02
 1303.93        2961.75           1379         505.00      2172.77
 1303.96        2962.00           1382        1032.00      4470.52
 1303.99        2962.25           1386        2610.00     11352.60
 1304.03        2962.50           1389        4003.00     17430.21
 1304.06        2962.75           1392        5424.00     23632.27
 1304.09        2963.00           1396        7245.00     31583.53
 1304.12        2963.25           1399        8704.00     37956.89
 1304.15        2963.50           1402       10296.00     44914.02
 1304.18        2963.75           1406       12298.00     53666.99
 1304.21        2964.00           1409       13717.00     59873.80
 1304.24        2964.25           1412       15306.00     66826.96
 1304.27        2964.50           1416       17165.00     74965.28
 1304.30        2964.75           1419       18593.00     81219.46
 1304.34        2965.00           1422       20050.00     87603.08
 1304.37        2965.25           1426       21946.00     95913.78
 1304.40        2965.50           1429       23493.00    102697.80
 1304.43        2965.75           1432       25058.00    109563.60
 1304.46        2966.00           1436       26740.00    116945.80
 1304.49        2966.25           1439       28194.00    123329.90
 1304.52        2966.50           1442       29570.00    129373.90
 1304.55        2966.75           1446       31084.00    136026.50
 1304.58        2967.00           1449       31293.00    136945.10
 1304.61        2967.25           1452       31324.00    137081.40
 1304.65        2967.50           1456       31391.00    137375.80
 1304.68        2967.75           1459       31384.00    137345.00
 1304.71        2968.00           1462       31242.00    136720.90
 1304.74        2968.25           1466       30019.00    131346.60
 1304.77        2968.50           1469       29138.00    127476.10
 1304.80        2968.75           1472       27876.00    121933.50
 1304.83        2969.00           1476       25812.00    112872.40
 1304.86        2969.25           1479       24365.00    106523.00
 1304.89        2969.50           1482       22654.00     99018.21
 1304.93        2969.75           1486       20724.00     90556.93
 1304.96        2970.00           1489       19392.00     84719.85
 1304.99        2970.25           1492       17946.00     78385.52
 1305.02        2970.50           1496       16053.00     70096.69
 1305.05        2970.75           1499       14511.00     63347.83
 1305.08        2971.00           1502       13230.00     57743.37
 1305.11        2971.25           1506       11187.00     48808.99
 1305.14        2971.50           1509        9876.00     43078.31
 1305.17        2971.75           1513        7892.00     34409.52
 1305.20        2972.00           1516        6659.00     29024.39
 1305.23        2972.25           1519        5099.00     22213.58
 1305.26        2972.50           1523        3119.00     13573.09
 1305.30        2972.75           1526        1805.00      7841.43
 1305.33        2973.00           1529         769.00      3323.78
 1305.36        2973.25           1533         371.00      1588.57
 1305.39        2973.50           1536         297.00      1265.96
 1305.42        2973.75           1539         247.00      1047.98
 1305.45        2974.00           1543         199.00       838.73
 1305.48        2974.25           1546         156.00       651.28
 1305.51        2974.50           1549         129.00       533.57
 1305.54        2974.75           1553          93.00       376.64
 1305.57        2975.00           1556          81.00       324.33
 1305.60        2975.25           1559          61.00       237.14
 1305.63        2975.50           1563          61.00       237.14
 1305.66        2975.75           1566          56.00       215.35
 1305.70        2976.00           1569          57.00       219.71
 1305.73        2976.25           1573          51.00       193.55
 1305.76        2976.50           1576          59.00       228.42
 1305.79        2976.75           1579          57.00       219.71
 1305.82        2977.00           1583          56.00       215.35
 1305.85        2977.25           1586          54.00       206.63
 1305.88        2977.50           1590          58.00       224.06
 1305.91        2977.75           1593          57.00       219.71
 1305.94        2978.00           1596          54.00       206.63
 1305.98        2978.25           1600          58.00       224.06
 1306.01        2978.50           1603          50.00       189.19
 1306.04        2978.75           1606          61.00       237.14
 1306.07        2979.00           1610          53.00       202.27
 1306.10        2979.25           1613          57.00       219.71
 1306.13        2979.50           1616          52.00       197.91
 1306.16        2979.75           1620          49.00       184.83
 1306.19        2980.00           1623          55.00       210.99
 1306.22        2980.25           1626          55.00       210.99
 1306.26        2980.50           1630          60.00       232.78
 1306.29        2980.75           1633          47.00       176.11
 1306.32        2981.00           1637          49.00       184.83
 1306.35        2981.25           1640          53.00       202.27
 1306.38        2981.50           1643          55.00       210.99
 1306.41        2981.75           1647          54.00       206.63
 1306.44        2982.00           1650          52.00       197.91
 1306.47        2982.25           1653          50.00       189.19
 1306.50        2982.50           1657          48.00       180.47
 1306.53        2982.75           1660          49.00       184.83
 1306.56        2983.00           1663          53.00       202.27
 1306.60        2983.25           1667          54.00       206.63
 1306.63        2983.50           1670          53.00       202.27
 1306.66        2983.75           1673          53.00       202.27
 1306.69        2984.00           1677          50.00       189.19
HS scan finished at 21:46:54
end
