************************************************************
  HS Scan of (1) Internal mercury lamp
************************************************************
Integration time is 0.2294 seconds per sample
dh010617El Arenosillo 37.1 6.73 3.072425pr1000
************************************************************
Dead Time -------------------------  3E-08 
Number of Cycles Used -------------  4 
Starting Wavelength (Angstroms) ---  2950 
Final Wavelength (Angstoms) -------  2984 
Wavelength Increment (Angstroms) --  .25 
Filter Wheel #1 Position ---------- (1) Ground quartz diffuser (ND=2.32)
Filter Wheel #2 Position ---------- (1) Neutral Density 0.494



************************************************************
HS scan start time = 01:58:35
Dark Count =  6.1 


Time (GMT)  Wavelength (Ang)  Step Number  Raw Counts  Counts/Second

  118.95        2950.00           1222          42.00       156.50
  119.02        2950.25           1226          46.00       173.93
  119.05        2950.50           1229          41.00       152.14
  119.08        2950.75           1232          45.00       169.57
  119.11        2951.00           1236          42.00       156.50
  119.14        2951.25           1239          44.00       165.21
  119.18        2951.50           1242          47.00       178.29
  119.21        2951.75           1246          42.00       156.50
  119.24        2952.00           1249          37.00       134.70
  119.27        2952.25           1252          42.00       156.50
  119.30        2952.50           1256          48.00       182.65
  119.33        2952.75           1259          47.00       178.29
  119.36        2953.00           1262          47.00       178.29
  119.39        2953.25           1266          45.00       169.57
  119.42        2953.50           1269          40.00       147.78
  119.45        2953.75           1272          44.00       165.21
  119.48        2954.00           1276          42.00       156.50
  119.52        2954.25           1279          44.00       165.21
  119.55        2954.50           1282          41.00       152.14
  119.58        2954.75           1286          40.00       147.78
  119.61        2955.00           1289          43.00       160.86
  119.64        2955.25           1292          43.00       160.86
  119.67        2955.50           1296          55.00       213.17
  119.70        2955.75           1299          44.00       165.21
  119.73        2956.00           1302          44.00       165.21
  119.76        2956.25           1306          46.00       173.93
  119.79        2956.50           1309          45.00       169.57
  119.82        2956.75           1312          45.00       169.57
  119.85        2957.00           1316          51.00       195.73
  119.88        2957.25           1319          42.00       156.50
  119.92        2957.50           1322          43.00       160.86
  119.95        2957.75           1326          45.00       169.57
  119.98        2958.00           1329          49.00       187.01
  120.01        2958.25           1332          41.00       152.14
  120.04        2958.50           1336          46.00       173.93
  120.07        2958.75           1339          44.00       165.21
  120.10        2959.00           1342          43.00       160.86
  120.13        2959.25           1346          51.00       195.73
  120.16        2959.50           1349          59.00       230.60
  120.19        2959.75           1352          78.00       313.43
  120.22        2960.00           1356         109.00       448.57
  120.26        2960.25           1359         139.00       579.35
  120.29        2960.50           1362         189.00       797.32
  120.32        2960.75           1366         265.00      1128.63
  120.35        2961.00           1369         304.00      1298.66
  120.38        2961.25           1372         363.00      1555.87
  120.41        2961.50           1376         541.00      2331.90
  120.44        2961.75           1379         886.00      3836.10
  120.47        2962.00           1382        2040.00      8868.53
  120.50        2962.25           1386        4346.00     18929.23
  120.53        2962.50           1389        6312.00     27511.36
  120.56        2962.75           1392        8100.00     35320.32
  120.60        2963.00           1396       10768.00     46979.42
  120.63        2963.25           1399       12548.00     54762.53
  120.66        2963.50           1402       14469.00     63166.23
  120.69        2963.75           1406       17133.00     74827.33
  120.72        2964.00           1409       19308.00     84354.00
  120.75        2964.25           1412       21295.00     93061.99
  120.78        2964.50           1416       24011.00    104972.20
  120.81        2964.75           1419       26085.00    114072.80
  120.84        2965.00           1422       28168.00    123217.90
  120.88        2965.25           1426       30778.00    134683.90
  120.91        2965.50           1429       32756.00    143378.70
  120.94        2965.75           1432       34502.00    151057.50
  120.97        2966.00           1436       37499.00    164246.30
  121.00        2966.25           1439       39321.00    172269.40
  121.03        2966.50           1442       40959.00    179485.70
  121.06        2966.75           1446       42454.00    186074.60
  121.09        2967.00           1449       42709.00    187198.80
  121.12        2967.25           1452       42739.00    187331.00
  121.16        2967.50           1456       42658.00    186973.90
  121.19        2967.75           1459       42405.00    185858.60
  121.22        2968.00           1462       42159.00    184774.20
  121.25        2968.25           1466       40563.00    177740.80
  121.28        2968.50           1469       38601.00    169098.50
  121.31        2968.75           1472       36868.00    161468.60
  121.34        2969.00           1476       34306.00    150195.30
  121.37        2969.25           1479       32464.00    142094.90
  121.40        2969.50           1482       30699.00    134336.70
  121.44        2969.75           1486       27949.00    122256.20
  121.47        2970.00           1489       25977.00    113598.80
  121.50        2970.25           1492       24015.00    104989.70
  121.53        2970.50           1496       21380.00     93434.60
  121.56        2970.75           1499       19418.00     84835.96
  121.59        2971.00           1502       17422.00     76092.86
  121.62        2971.25           1506       14784.00     64544.65
  121.65        2971.50           1509       12764.00     55707.24
  121.69        2971.75           1513       10116.00     44129.44
  121.72        2972.00           1516        8063.00     35158.69
  121.75        2972.25           1519        6117.00     26659.94
  121.78        2972.50           1523        3711.00     16158.22
  121.81        2972.75           1526        2161.00      9396.28
  121.84        2973.00           1529         928.00      4019.23
  121.87        2973.25           1533         449.00      1930.80
  121.90        2973.50           1536         377.00      1616.91
  121.93        2973.75           1539         290.00      1237.62
  121.96        2974.00           1543         240.00      1019.65
  121.99        2974.25           1546         180.00       758.08
  122.03        2974.50           1549         120.00       496.52
  122.06        2974.75           1553          79.00       317.79
  122.09        2975.00           1556          69.00       274.20
  122.12        2975.25           1559          54.00       208.81
  122.15        2975.50           1563          42.00       156.50
  122.18        2975.75           1566          45.00       169.57
  122.21        2976.00           1569          42.00       156.50
  122.24        2976.25           1573          46.00       173.93
  122.27        2976.50           1576          59.00       230.60
  122.30        2976.75           1579          38.00       139.06
  122.33        2977.00           1583          48.00       182.65
  122.37        2977.25           1586          44.00       165.21
  122.40        2977.50           1590          43.00       160.86
  122.43        2977.75           1593          41.00       152.14
  122.46        2978.00           1596          45.00       169.57
  122.49        2978.25           1600          40.00       147.78
  122.52        2978.50           1603          47.00       178.29
  122.55        2978.75           1606          41.00       152.14
  122.58        2979.00           1610          43.00       160.86
  122.61        2979.25           1613          45.00       169.57
  122.64        2979.50           1616          44.00       165.21
  122.67        2979.75           1620          43.00       160.86
  122.70        2980.00           1623          40.00       147.78
  122.73        2980.25           1626          43.00       160.86
  122.77        2980.50           1630          41.00       152.14
  122.80        2980.75           1633          50.00       191.37
  122.83        2981.00           1637          36.00       130.34
  122.86        2981.25           1640          41.00       152.14
  122.89        2981.50           1643          43.00       160.86
  122.92        2981.75           1647          47.00       178.29
  122.95        2982.00           1650          51.00       195.73
  122.98        2982.25           1653          46.00       173.93
  123.01        2982.50           1657          43.00       160.86
  123.04        2982.75           1660          41.00       152.14
  123.07        2983.00           1663          42.00       156.50
  123.10        2983.25           1667          41.00       152.14
  123.14        2983.50           1670          45.00       169.57
  123.17        2983.75           1673          44.00       165.21
  123.20        2984.00           1677          44.00       165.21
HS scan finished at 02:03:25
end
************************************************************
  HS Scan of (1) Internal mercury lamp
************************************************************
Integration time is 0.2294 seconds per sample
dh010617El Arenosillo 37.1 6.73 3.179721pr1000
************************************************************
Dead Time -------------------------  3E-08 
Number of Cycles Used -------------  4 
Starting Wavelength (Angstroms) ---  2950 
Final Wavelength (Angstoms) -------  2984 
Wavelength Increment (Angstroms) --  .25 
Filter Wheel #1 Position ---------- (1) Ground quartz diffuser (ND=2.32)
Filter Wheel #2 Position ---------- (1) Neutral Density 0.494



************************************************************
HS scan start time = 21:35:23
Dark Count =  5.8 


Time (GMT)  Wavelength (Ang)  Step Number  Raw Counts  Counts/Second

 1295.75        2950.00           1222          47.00       179.60
 1295.82        2950.25           1226          41.00       153.44
 1295.85        2950.50           1229          49.00       188.32
 1295.88        2950.75           1232          39.00       144.73
 1295.91        2951.00           1236          41.00       153.44
 1295.94        2951.25           1239          38.00       140.37
 1295.97        2951.50           1242          45.00       170.88
 1296.00        2951.75           1246          46.00       175.24
 1296.03        2952.00           1249          45.00       170.88
 1296.06        2952.25           1252          41.00       153.44
 1296.09        2952.50           1256          40.00       149.09
 1296.12        2952.75           1259          44.00       166.52
 1296.15        2953.00           1262          37.00       136.01
 1296.18        2953.25           1266          39.00       144.73
 1296.22        2953.50           1269          45.00       170.88
 1296.25        2953.75           1272          45.00       170.88
 1296.28        2954.00           1276          40.00       149.09
 1296.31        2954.25           1279          45.00       170.88
 1296.34        2954.50           1282          50.00       192.68
 1296.37        2954.75           1286          39.00       144.73
 1296.40        2955.00           1289          40.00       149.09
 1296.43        2955.25           1292          44.00       166.52
 1296.46        2955.50           1296          41.00       153.44
 1296.49        2955.75           1299          42.00       157.80
 1296.52        2956.00           1302          46.00       175.24
 1296.55        2956.25           1306          40.00       149.09
 1296.58        2956.50           1309          47.00       179.60
 1296.62        2956.75           1312          37.00       136.01
 1296.65        2957.00           1316          35.00       127.29
 1296.68        2957.25           1319          48.00       183.96
 1296.71        2957.50           1322          43.00       162.16
 1296.74        2957.75           1326          41.00       153.44
 1296.77        2958.00           1329          46.00       175.24
 1296.80        2958.25           1332          41.00       153.44
 1296.83        2958.50           1336          48.00       183.96
 1296.86        2958.75           1339          49.00       188.32
 1296.89        2959.00           1342          41.00       153.44
 1296.92        2959.25           1346          47.00       179.60
 1296.95        2959.50           1349          57.00       223.19
 1296.98        2959.75           1352          76.00       306.02
 1297.01        2960.00           1356         134.00       558.86
 1297.04        2960.25           1359         170.00       715.80
 1297.08        2960.50           1362         217.00       920.69
 1297.11        2960.75           1366         290.00      1238.93
 1297.14        2961.00           1369         353.00      1513.58
 1297.17        2961.25           1372         398.00      1709.77
 1297.20        2961.50           1376         501.00      2158.81
 1297.23        2961.75           1379         658.00      2843.31
 1297.26        2962.00           1382        1194.00      5180.40
 1297.29        2962.25           1386        3064.00     13336.63
 1297.33        2962.50           1389        4969.00     21649.63
 1297.36        2962.75           1392        6877.00     29979.87
 1297.39        2963.00           1396        9525.00     41547.83
 1297.42        2963.25           1399       11752.00     51282.85
 1297.45        2963.50           1402       13755.00     60043.55
 1297.48        2963.75           1406       16674.00     72818.90
 1297.51        2964.00           1409       18592.00     81218.57
 1297.54        2964.25           1412       20729.00     90582.35
 1297.57        2964.50           1416       23613.00    103227.60
 1297.61        2964.75           1419       25536.00    111664.60
 1297.64        2965.00           1422       27622.00    120821.60
 1297.67        2965.25           1426       30682.00    134263.40
 1297.70        2965.50           1429       32872.00    143890.10
 1297.73        2965.75           1432       34881.00    152726.10
 1297.76        2966.00           1436       37778.00    165475.90
 1297.79        2966.25           1439       40051.00    175486.40
 1297.82        2966.50           1442       41616.00    182382.30
 1297.85        2966.75           1446       43763.00    191847.30
 1297.88        2967.00           1449       44699.00    195975.30
 1297.92        2967.25           1452       44731.00    196116.50
 1297.95        2967.50           1456       44910.00    196906.00
 1297.98        2967.75           1459       44841.00    196601.70
 1298.01        2968.00           1462       44467.00    194952.00
 1298.04        2968.25           1466       43820.00    192098.60
 1298.07        2968.50           1469       42282.00    185317.80
 1298.10        2968.75           1472       40353.00    176816.90
 1298.13        2969.00           1476       37428.00    163935.00
 1298.16        2969.25           1479       35358.00    154824.70
 1298.19        2969.50           1482       33209.00    145371.90
 1298.23        2969.75           1486       30612.00    133955.70
 1298.26        2970.00           1489       28500.00    124677.30
 1298.29        2970.25           1492       26450.00    115676.20
 1298.32        2970.50           1496       23909.00    104526.00
 1298.35        2970.75           1499       22085.00     96526.72
 1298.38        2971.00           1502       20046.00     87589.05
 1298.41        2971.25           1506       17386.00     75936.53
 1298.44        2971.50           1509       15138.00     66095.19
 1298.47        2971.75           1513       12364.00     53959.12
 1298.51        2972.00           1516       10305.00     44956.85
 1298.54        2972.25           1519        8186.00     35697.32
 1298.57        2972.50           1523        5365.00     23378.20
 1298.60        2972.75           1526        3469.00     15103.62
 1298.63        2973.00           1529        1772.00      7700.99
 1298.66        2973.25           1533         642.00      2773.55
 1298.69        2973.50           1536         431.00      1853.63
 1298.72        2973.75           1539         349.00      1496.14
 1298.75        2974.00           1543         282.00      1204.05
 1298.79        2974.25           1546         184.00       776.83
 1298.82        2974.50           1549         150.00       628.61
 1298.85        2974.75           1553          85.00       345.25
 1298.88        2975.00           1556          61.00       240.63
 1298.91        2975.25           1559          56.00       218.83
 1298.94        2975.50           1563          44.00       166.52
 1298.97        2975.75           1566          58.00       227.55
 1299.00        2976.00           1569          50.00       192.68
 1299.03        2976.25           1573          45.00       170.88
 1299.06        2976.50           1576          44.00       166.52
 1299.09        2976.75           1579          41.00       153.44
 1299.12        2977.00           1583          41.00       153.44
 1299.16        2977.25           1586          43.00       162.16
 1299.19        2977.50           1590          46.00       175.24
 1299.22        2977.75           1593          37.00       136.01
 1299.25        2978.00           1596          53.00       205.76
 1299.28        2978.25           1600          48.00       183.96
 1299.31        2978.50           1603          48.00       183.96
 1299.34        2978.75           1606          44.00       166.52
 1299.37        2979.00           1610          40.00       149.09
 1299.40        2979.25           1613          46.00       175.24
 1299.43        2979.50           1616          42.00       157.80
 1299.47        2979.75           1620          41.00       153.44
 1299.50        2980.00           1623          42.00       157.80
 1299.53        2980.25           1626          42.00       157.80
 1299.56        2980.50           1630          42.00       157.80
 1299.59        2980.75           1633          42.00       157.80
 1299.62        2981.00           1637          42.00       157.80
 1299.65        2981.25           1640          40.00       149.09
 1299.68        2981.50           1643          45.00       170.88
 1299.71        2981.75           1647          46.00       175.24
 1299.74        2982.00           1650          42.00       157.80
 1299.77        2982.25           1653          39.00       144.73
 1299.80        2982.50           1657          48.00       183.96
 1299.83        2982.75           1660          46.00       175.24
 1299.87        2983.00           1663          45.00       170.88
 1299.90        2983.25           1667          45.00       170.88
 1299.93        2983.50           1670          45.00       170.88
 1299.96        2983.75           1673          37.00       136.01
 1299.99        2984.00           1677          43.00       162.16
HS scan finished at 21:40:12
end
