************************************************************
  HS Scan of (1) Internal mercury lamp
************************************************************
Integration time is 0.2294 seconds per sample
dh030618Manchester 53.47 2.23 2.911481pr1000
************************************************************
Dead Time -------------------------  3E-08 
Number of Cycles Used -------------  4 
Starting Wavelength (Angstroms) ---  2950 
Final Wavelength (Angstoms) -------  2984 
Wavelength Increment (Angstroms) --  .25 
Filter Wheel #1 Position ---------- (1) Ground quartz diffuser (ND=2.32)
Filter Wheel #2 Position ---------- (1) Neutral Density 0.494



************************************************************
HS scan start time = 01:23:35
Dark Count =  8.600001 


Time (GMT)  Wavelength (Ang)  Step Number  Raw Counts  Counts/Second

   83.95        2950.00           1222          57.00       210.99
   84.01        2950.25           1226          59.00       219.71
   84.04        2950.50           1229          59.00       219.71
   84.07        2950.75           1232          57.00       210.99
   84.11        2951.00           1236          55.00       202.27
   84.14        2951.25           1239          56.00       206.63
   84.17        2951.50           1242          58.00       215.35
   84.20        2951.75           1246          55.00       202.27
   84.23        2952.00           1249          59.00       219.71
   84.26        2952.25           1252          62.00       232.78
   84.29        2952.50           1256          56.00       206.63
   84.32        2952.75           1259          52.00       189.19
   84.35        2953.00           1262          56.00       206.63
   84.38        2953.25           1266          52.00       189.19
   84.41        2953.50           1269          53.00       193.55
   84.45        2953.75           1272          56.00       206.63
   84.48        2954.00           1276          51.00       184.83
   84.51        2954.25           1279          55.00       202.27
   84.54        2954.50           1282          61.00       228.42
   84.57        2954.75           1286          49.00       176.11
   84.60        2955.00           1289          56.00       206.63
   84.63        2955.25           1292          56.00       206.63
   84.66        2955.50           1296          59.00       219.71
   84.69        2955.75           1299          48.00       171.75
   84.72        2956.00           1302          59.00       219.71
   84.75        2956.25           1306          52.00       189.19
   84.78        2956.50           1309          64.00       241.50
   84.82        2956.75           1312          54.00       197.91
   84.85        2957.00           1316          45.00       158.68
   84.88        2957.25           1319          54.00       197.91
   84.91        2957.50           1322          55.00       202.27
   84.94        2957.75           1326          59.00       219.71
   84.97        2958.00           1329          53.00       193.55
   85.00        2958.25           1332          58.00       215.35
   85.03        2958.50           1336          58.00       215.35
   85.06        2958.75           1339          54.00       197.91
   85.09        2959.00           1342          54.00       197.91
   85.12        2959.25           1346          60.00       224.06
   85.16        2959.50           1349          73.00       280.73
   85.19        2959.75           1352          80.00       311.25
   85.22        2960.00           1356         105.00       420.23
   85.25        2960.25           1359         135.00       551.01
   85.28        2960.50           1362         187.00       777.70
   85.31        2960.75           1366         228.00       956.44
   85.34        2961.00           1369         260.00      1095.94
   85.37        2961.25           1372         309.00      1309.55
   85.40        2961.50           1376         353.00      1501.38
   85.43        2961.75           1379         434.00      1854.51
   85.47        2962.00           1382         686.00      2953.18
   85.50        2962.25           1386        1865.00      8094.38
   85.53        2962.50           1389        3265.00     14201.34
   85.56        2962.75           1392        4765.00     20747.00
   85.59        2963.00           1396        6639.00     28928.32
   85.62        2963.25           1399        8171.00     35619.56
   85.65        2963.50           1402        9591.00     41824.03
   85.68        2963.75           1406       11741.00     51222.51
   85.71        2964.00           1409       13256.00     57848.35
   85.74        2964.25           1412       14744.00     64358.67
   85.78        2964.50           1416       16868.00     73656.04
   85.81        2964.75           1419       18363.00     80203.21
   85.84        2965.00           1422       20024.00     87480.38
   85.87        2965.25           1426       22048.00     96352.22
   85.90        2965.50           1429       23393.00    102250.40
   85.93        2965.75           1432       25069.00    109603.10
   85.96        2966.00           1436       26995.00    118056.50
   85.99        2966.25           1439       28442.00    124410.30
   86.02        2966.50           1442       29755.00    130177.90
   86.06        2966.75           1446       31547.00    138052.70
   86.09        2967.00           1449       32625.00    142791.70
   86.12        2967.25           1452       32783.00    143486.40
   86.15        2967.50           1456       32922.00    144097.60
   86.18        2967.75           1459       32673.00    143002.80
   86.21        2968.00           1462       32811.00    143609.50
   86.24        2968.25           1466       32438.00    141969.60
   86.27        2968.50           1469       31357.00    137217.60
   86.30        2968.75           1472       30332.00    132713.00
   86.34        2969.00           1476       28264.00    123628.60
   86.37        2969.25           1479       26800.00    117200.40
   86.40        2969.50           1482       25289.00    110568.40
   86.43        2969.75           1486       23224.00    101509.20
   86.46        2970.00           1489       21805.00     95286.83
   86.49        2970.25           1492       20186.00     88190.30
   86.52        2970.50           1496       18300.00     79927.25
   86.55        2970.75           1499       16822.00     73454.63
   86.58        2971.00           1502       15144.00     66109.19
   86.62        2971.25           1506       13184.00     57533.40
   86.65        2971.50           1509       11757.00     51292.48
   86.68        2971.75           1513        9934.00     43323.06
   86.71        2972.00           1516        8519.00     37139.88
   86.74        2972.25           1519        6886.00     30006.95
   86.77        2972.50           1523        4977.00     21672.33
   86.80        2972.75           1526        3430.00     14921.24
   86.83        2973.00           1529        1962.00      8517.43
   86.86        2973.25           1533         694.00      2988.06
   86.89        2973.50           1536         373.00      1588.57
   86.93        2973.75           1539         292.00      1235.44
   86.96        2974.00           1543         238.00      1000.03
   86.99        2974.25           1546         179.00       742.82
   87.02        2974.50           1549         147.00       603.32
   87.05        2974.75           1553          96.00       381.00
   87.08        2975.00           1556          72.00       276.38
   87.11        2975.25           1559          58.00       215.35
   87.14        2975.50           1563          53.00       193.55
   87.17        2975.75           1566          57.00       210.99
   87.20        2976.00           1569          61.00       228.42
   87.23        2976.25           1573          53.00       193.55
   87.27        2976.50           1576          62.00       232.78
   87.30        2976.75           1579          52.00       189.19
   87.33        2977.00           1583          49.00       176.11
   87.36        2977.25           1586          50.00       180.47
   87.39        2977.50           1590          53.00       193.55
   87.42        2977.75           1593          55.00       202.27
   87.45        2978.00           1596          52.00       189.19
   87.48        2978.25           1600          52.00       189.19
   87.51        2978.50           1603          50.00       180.47
   87.54        2978.75           1606          59.00       219.71
   87.57        2979.00           1610          58.00       215.35
   87.61        2979.25           1613          58.00       215.35
   87.64        2979.50           1616          55.00       202.27
   87.67        2979.75           1620          51.00       184.83
   87.70        2980.00           1623          57.00       210.99
   87.73        2980.25           1626          53.00       193.55
   87.76        2980.50           1630          49.00       176.11
   87.79        2980.75           1633          55.00       202.27
   87.82        2981.00           1637          50.00       180.47
   87.85        2981.25           1640          50.00       180.47
   87.88        2981.50           1643          59.00       219.71
   87.92        2981.75           1647          50.00       180.47
   87.95        2982.00           1650          49.00       176.11
   87.98        2982.25           1653          53.00       193.55
   88.01        2982.50           1657          52.00       189.19
   88.04        2982.75           1660          54.00       197.91
   88.07        2983.00           1663          49.00       176.11
   88.10        2983.25           1667          49.00       176.11
   88.13        2983.50           1670          60.00       224.06
   88.16        2983.75           1673          53.00       193.55
   88.20        2984.00           1677          55.00       202.27
HS scan finished at 01:28:25
end
************************************************************
  HS Scan of (1) Internal mercury lamp
************************************************************
Integration time is 0.2294 seconds per sample
dh030618Manchester 53.47 2.23 3.018777pr1000
************************************************************
Dead Time -------------------------  3E-08 
Number of Cycles Used -------------  4 
Starting Wavelength (Angstroms) ---  2950 
Final Wavelength (Angstoms) -------  2984 
Wavelength Increment (Angstroms) --  .25 
Filter Wheel #1 Position ---------- (1) Ground quartz diffuser (ND=2.32)
Filter Wheel #2 Position ---------- (1) Neutral Density 0.494



************************************************************
HS scan start time = 21:42:09
Dark Count =  6 


Time (GMT)  Wavelength (Ang)  Step Number  Raw Counts  Counts/Second

 1302.51        2950.00           1222          54.00       209.24
 1302.58        2950.25           1226          59.00       231.04
 1302.61        2950.50           1229          52.00       200.52
 1302.64        2950.75           1232          57.00       222.32
 1302.67        2951.00           1236          74.00       296.43
 1302.71        2951.25           1239          66.00       261.55
 1302.74        2951.50           1242          56.00       217.96
 1302.77        2951.75           1246          57.00       222.32
 1302.80        2952.00           1249          46.00       174.37
 1302.83        2952.25           1252          54.00       209.24
 1302.86        2952.50           1256          47.00       178.73
 1302.89        2952.75           1259          63.00       248.48
 1302.92        2953.00           1262          52.00       200.52
 1302.95        2953.25           1266          55.00       213.60
 1302.98        2953.50           1269          52.00       200.52
 1303.01        2953.75           1272          57.00       222.32
 1303.04        2954.00           1276          63.00       248.48
 1303.07        2954.25           1279          60.00       235.40
 1303.11        2954.50           1282          57.00       222.32
 1303.14        2954.75           1286          55.00       213.60
 1303.17        2955.00           1289          52.00       200.52
 1303.20        2955.25           1292          60.00       235.40
 1303.23        2955.50           1296          59.00       231.04
 1303.26        2955.75           1299          65.00       257.19
 1303.29        2956.00           1302          55.00       213.60
 1303.32        2956.25           1306          56.00       217.96
 1303.35        2956.50           1309          56.00       217.96
 1303.38        2956.75           1312          57.00       222.32
 1303.41        2957.00           1316          65.00       257.19
 1303.45        2957.25           1319          57.00       222.32
 1303.48        2957.50           1322          70.00       278.99
 1303.51        2957.75           1326          61.00       239.76
 1303.54        2958.00           1329          51.00       196.17
 1303.57        2958.25           1332          60.00       235.40
 1303.60        2958.50           1336          57.00       222.32
 1303.63        2958.75           1339          52.00       200.52
 1303.66        2959.00           1342          62.00       244.12
 1303.69        2959.25           1346          62.00       244.12
 1303.72        2959.50           1349          66.00       261.55
 1303.75        2959.75           1352          82.00       331.30
 1303.78        2960.00           1356         123.00       510.03
 1303.81        2960.25           1359         154.00       645.17
 1303.84        2960.50           1362         185.00       780.31
 1303.88        2960.75           1366         235.00       998.29
 1303.91        2961.00           1369         293.00      1251.14
 1303.94        2961.25           1372         314.00      1342.69
 1303.97        2961.50           1376         425.00      1826.60
 1304.00        2961.75           1379         703.00      3038.64
 1304.03        2962.00           1382        1658.00      7202.95
 1304.06        2962.25           1386        3591.00     15635.06
 1304.09        2962.50           1389        5154.00     22456.28
 1304.12        2962.75           1392        6610.00     28813.04
 1304.16        2963.00           1396        8568.00     37365.32
 1304.19        2963.25           1399       10057.00     43872.01
 1304.22        2963.50           1402       11470.00     50048.94
 1304.25        2963.75           1406       13664.00     59644.55
 1304.28        2964.00           1409       15086.00     65866.73
 1304.31        2964.25           1412       16786.00     73308.40
 1304.34        2964.50           1416       18769.00     81993.08
 1304.37        2964.75           1419       20272.00     88578.58
 1304.41        2965.00           1422       22094.00     96565.31
 1304.44        2965.25           1426       24116.00    105433.20
 1304.47        2965.50           1429       25778.00    112725.80
 1304.50        2965.75           1432       27188.00    118915.20
 1304.53        2966.00           1436       29336.00    128348.50
 1304.56        2966.25           1439       30728.00    134464.60
 1304.59        2966.50           1442       32162.00    140767.60
 1304.62        2966.75           1446       33298.00    145762.40
 1304.65        2967.00           1449       33835.00    148124.10
 1304.69        2967.25           1452       33852.00    148198.90
 1304.72        2967.50           1456       33581.00    147007.00
 1304.75        2967.75           1459       33696.00    147512.70
 1304.78        2968.00           1462       33299.00    145766.80
 1304.81        2968.25           1466       31979.00    139963.10
 1304.84        2968.50           1469       30888.00    135167.80
 1304.87        2968.75           1472       29255.00    127992.70
 1304.90        2969.00           1476       27322.00    119503.50
 1304.93        2969.25           1479       25838.00    112989.20
 1304.97        2969.50           1482       24284.00    106170.20
 1305.00        2969.75           1486       22240.00     97205.46
 1305.03        2970.00           1489       20708.00     90489.43
 1305.06        2970.25           1492       19257.00     84130.99
 1305.09        2970.50           1496       17092.00     74648.25
 1305.12        2970.75           1499       15517.00     67753.10
 1305.15        2971.00           1502       14012.00     61167.07
 1305.18        2971.25           1506       11776.00     51386.92
 1305.22        2971.50           1509       10331.00     45069.62
 1305.25        2971.75           1513        8203.00     35770.72
 1305.28        2972.00           1516        6566.00     28620.91
 1305.31        2972.25           1519        5171.00     22530.48
 1305.34        2972.50           1523        3172.00     13806.94
 1305.37        2972.75           1526        1746.00      7586.73
 1305.40        2973.00           1529         755.00      3265.36
 1305.43        2973.25           1533         372.00      1595.54
 1305.46        2973.50           1536         312.00      1333.97
 1305.50        2973.75           1539         252.00      1072.40
 1305.53        2974.00           1543         206.00       871.86
 1305.56        2974.25           1546         149.00       623.38
 1305.59        2974.50           1549         111.00       457.72
 1305.62        2974.75           1553          80.00       322.58
 1305.65        2975.00           1556          64.00       252.84
 1305.68        2975.25           1559          57.00       222.32
 1305.71        2975.50           1563          52.00       200.52
 1305.74        2975.75           1566          52.00       200.52
 1305.78        2976.00           1569          56.00       217.96
 1305.81        2976.25           1573          54.00       209.24
 1305.84        2976.50           1576          52.00       200.52
 1305.87        2976.75           1579          54.00       209.24
 1305.90        2977.00           1583          54.00       209.24
 1305.93        2977.25           1586          53.00       204.88
 1305.96        2977.50           1590          56.00       217.96
 1305.99        2977.75           1593          56.00       217.96
 1306.02        2978.00           1596          50.00       191.81
 1306.05        2978.25           1600          56.00       217.96
 1306.09        2978.50           1603          53.00       204.88
 1306.12        2978.75           1606          57.00       222.32
 1306.15        2979.00           1610          56.00       217.96
 1306.18        2979.25           1613          53.00       204.88
 1306.21        2979.50           1616          60.00       235.40
 1306.24        2979.75           1620          53.00       204.88
 1306.27        2980.00           1623          57.00       222.32
 1306.30        2980.25           1626          53.00       204.88
 1306.33        2980.50           1630          50.00       191.81
 1306.37        2980.75           1633          50.00       191.81
 1306.40        2981.00           1637          55.00       213.60
 1306.43        2981.25           1640          53.00       204.88
 1306.46        2981.50           1643          59.00       231.04
 1306.49        2981.75           1647          54.00       209.24
 1306.52        2982.00           1650          49.00       187.45
 1306.55        2982.25           1653          50.00       191.81
 1306.58        2982.50           1657          49.00       187.45
 1306.61        2982.75           1660          55.00       213.60
 1306.64        2983.00           1663          47.00       178.73
 1306.67        2983.25           1667          65.00       257.19
 1306.70        2983.50           1670          50.00       191.81
 1306.74        2983.75           1673          55.00       213.60
 1306.77        2984.00           1677          54.00       209.24
HS scan finished at 21:46:59
end
