************************************************************
  HS Scan of (1) Internal mercury lamp
************************************************************
Integration time is 0.2294 seconds per sample
dh010618Manchester 53.47 2.23 2.965129pr1000
************************************************************
Dead Time -------------------------  3E-08 
Number of Cycles Used -------------  4 
Starting Wavelength (Angstroms) ---  2950 
Final Wavelength (Angstoms) -------  2984 
Wavelength Increment (Angstroms) --  .25 
Filter Wheel #1 Position ---------- (1) Ground quartz diffuser (ND=2.32)
Filter Wheel #2 Position ---------- (1) Neutral Density 0.494



************************************************************
HS scan start time = 01:30:30
Dark Count =  8.3 


Time (GMT)  Wavelength (Ang)  Step Number  Raw Counts  Counts/Second

   90.86        2950.00           1222          65.00       247.17
   90.93        2950.25           1226          59.00       221.01
   90.96        2950.50           1229          59.00       221.01
   90.99        2950.75           1232          53.00       194.86
   91.02        2951.00           1236          57.00       212.29
   91.05        2951.25           1239          64.00       242.81
   91.08        2951.50           1242          54.00       199.22
   91.11        2951.75           1246          62.00       234.09
   91.15        2952.00           1249          56.00       207.94
   91.18        2952.25           1252          59.00       221.01
   91.21        2952.50           1256          63.00       238.45
   91.24        2952.75           1259          52.00       190.50
   91.27        2953.00           1262          56.00       207.94
   91.30        2953.25           1266          49.00       177.42
   91.33        2953.50           1269          55.00       203.58
   91.36        2953.75           1272          55.00       203.58
   91.39        2954.00           1276          61.00       229.73
   91.42        2954.25           1279          59.00       221.01
   91.46        2954.50           1282          54.00       199.22
   91.49        2954.75           1286          58.00       216.65
   91.52        2955.00           1289          74.00       286.40
   91.55        2955.25           1292          66.00       251.53
   91.58        2955.50           1296          58.00       216.65
   91.61        2955.75           1299          50.00       181.78
   91.64        2956.00           1302          57.00       212.29
   91.67        2956.25           1306          62.00       234.09
   91.70        2956.50           1309          52.00       190.50
   91.73        2956.75           1312          53.00       194.86
   91.76        2957.00           1316          50.00       181.78
   91.79        2957.25           1319          66.00       251.53
   91.82        2957.50           1322          56.00       207.94
   91.85        2957.75           1326          57.00       212.29
   91.89        2958.00           1329          62.00       234.09
   91.92        2958.25           1332          56.00       207.94
   91.95        2958.50           1336          59.00       221.01
   91.98        2958.75           1339          63.00       238.45
   92.01        2959.00           1342          55.00       203.58
   92.04        2959.25           1346          55.00       203.58
   92.07        2959.50           1349          62.00       234.09
   92.10        2959.75           1352          74.00       286.40
   92.14        2960.00           1356         113.00       456.41
   92.17        2960.25           1359         147.00       604.63
   92.20        2960.50           1362         181.00       752.85
   92.23        2960.75           1366         220.00       922.87
   92.26        2961.00           1369         276.00      1167.00
   92.29        2961.25           1372         306.00      1297.78
   92.32        2961.50           1376         393.00      1677.07
   92.35        2961.75           1379         588.00      2527.22
   92.38        2962.00           1382        1239.00      5365.73
   92.41        2962.25           1386        3056.00     13290.83
   92.45        2962.50           1389        4461.00     19421.51
   92.48        2962.75           1392        5929.00     25829.51
   92.51        2963.00           1396        7897.00     34423.94
   92.54        2963.25           1399        9438.00     41156.72
   92.57        2963.50           1402       11129.00     48547.99
   92.60        2963.75           1406       13011.00     56777.98
   92.63        2964.00           1409       14738.00     64333.73
   92.66        2964.25           1412       16395.00     71586.45
   92.69        2964.50           1416       18605.00     81264.57
   92.72        2964.75           1419       20005.00     87398.42
   92.75        2965.00           1422       21532.00     94091.29
   92.79        2965.25           1426       23410.00    102326.30
   92.82        2965.50           1429       25019.00    109385.00
   92.85        2965.75           1432       26390.00    115401.90
   92.88        2966.00           1436       28712.00    125597.50
   92.91        2966.25           1439       29830.00    130508.70
   92.94        2966.50           1442       31048.00    135860.80
   92.97        2966.75           1446       32833.00    143707.60
   93.00        2967.00           1449       33043.00    144631.00
   93.03        2967.25           1452       33010.00    144485.90
   93.06        2967.50           1456       33073.00    144762.90
   93.09        2967.75           1459       32995.00    144419.90
   93.13        2968.00           1462       32780.00    143474.60
   93.16        2968.25           1466       31373.00    137289.20
   93.19        2968.50           1469       30136.00    131853.10
   93.22        2968.75           1472       28825.00    126093.80
   93.25        2969.00           1476       26960.00    117904.10
   93.28        2969.25           1479       25366.00    110907.60
   93.31        2969.50           1482       23783.00    103962.40
   93.34        2969.75           1486       21791.00     95226.76
   93.37        2970.00           1489       20231.00     88388.81
   93.40        2970.25           1492       18708.00     81715.78
   93.44        2970.50           1496       16773.00     73241.40
   93.47        2970.75           1499       15294.00     66767.00
   93.50        2971.00           1502       13799.00     60225.11
   93.53        2971.25           1506       11782.00     51403.10
   93.56        2971.50           1509       10243.00     44674.92
   93.59        2971.75           1513        8194.00     35721.35
   93.62        2972.00           1516        6755.00     29436.18
   93.65        2972.25           1519        5117.00     22284.73
   93.69        2972.50           1523        3283.00     14281.18
   93.72        2972.75           1526        1861.00      8078.24
   93.75        2973.00           1529         782.00      3373.05
   93.78        2973.25           1533         399.00      1703.23
   93.81        2973.50           1536         301.00      1275.99
   93.84        2973.75           1539         259.00      1092.89
   93.87        2974.00           1543         216.00       905.43
   93.90        2974.25           1546         162.00       670.02
   93.93        2974.50           1549         125.00       508.73
   93.96        2974.75           1553          90.00       356.15
   93.99        2975.00           1556          69.00       264.61
   94.03        2975.25           1559          65.00       247.17
   94.06        2975.50           1563          56.00       207.94
   94.09        2975.75           1566          56.00       207.94
   94.12        2976.00           1569          61.00       229.73
   94.15        2976.25           1573          49.00       177.42
   94.18        2976.50           1576          57.00       212.29
   94.21        2976.75           1579          58.00       216.65
   94.24        2977.00           1583          52.00       190.50
   94.27        2977.25           1586          57.00       212.29
   94.30        2977.50           1590          64.00       242.81
   94.33        2977.75           1593          59.00       221.01
   94.37        2978.00           1596          46.00       164.34
   94.40        2978.25           1600          47.00       168.70
   94.43        2978.50           1603          56.00       207.94
   94.46        2978.75           1606          60.00       225.37
   94.49        2979.00           1610          51.00       186.14
   94.52        2979.25           1613          56.00       207.94
   94.55        2979.50           1616          60.00       225.37
   94.58        2979.75           1620          51.00       186.14
   94.61        2980.00           1623          54.00       199.22
   94.65        2980.25           1626          51.00       186.14
   94.68        2980.50           1630          55.00       203.58
   94.71        2980.75           1633          51.00       186.14
   94.74        2981.00           1637          49.00       177.42
   94.77        2981.25           1640          58.00       216.65
   94.80        2981.50           1643          58.00       216.65
   94.83        2981.75           1647          54.00       199.22
   94.86        2982.00           1650          47.00       168.70
   94.89        2982.25           1653          50.00       181.78
   94.92        2982.50           1657          57.00       212.29
   94.96        2982.75           1660          50.00       181.78
   94.99        2983.00           1663          53.00       194.86
   95.02        2983.25           1667          49.00       177.42
   95.05        2983.50           1670          47.00       168.70
   95.08        2983.75           1673          56.00       207.94
   95.11        2984.00           1677          62.00       234.09
HS scan finished at 01:35:20
end
************************************************************
  HS Scan of (1) Internal mercury lamp
************************************************************
Integration time is 0.2294 seconds per sample
dh010618Manchester 53.47 2.23 3.126073pr1000
************************************************************
Dead Time -------------------------  3E-08 
Number of Cycles Used -------------  4 
Starting Wavelength (Angstroms) ---  2950 
Final Wavelength (Angstoms) -------  2984 
Wavelength Increment (Angstroms) --  .25 
Filter Wheel #1 Position ---------- (1) Ground quartz diffuser (ND=2.32)
Filter Wheel #2 Position ---------- (1) Neutral Density 0.494



************************************************************
HS scan start time = 21:12:07
Dark Count =  6.7 


Time (GMT)  Wavelength (Ang)  Step Number  Raw Counts  Counts/Second

 1272.48        2950.00           1222          53.00       201.83
 1272.55        2950.25           1226          60.00       232.35
 1272.58        2950.50           1229          48.00       180.04
 1272.61        2950.75           1232          63.00       245.42
 1272.64        2951.00           1236          56.00       214.91
 1272.67        2951.25           1239          57.00       219.27
 1272.70        2951.50           1242          57.00       219.27
 1272.73        2951.75           1246          58.00       223.63
 1272.76        2952.00           1249          59.00       227.99
 1272.79        2952.25           1252          51.00       193.11
 1272.82        2952.50           1256          62.00       241.07
 1272.86        2952.75           1259          57.00       219.27
 1272.89        2953.00           1262          52.00       197.47
 1272.92        2953.25           1266          49.00       184.40
 1272.95        2953.50           1269          54.00       206.19
 1272.98        2953.75           1272          53.00       201.83
 1273.01        2954.00           1276          65.00       254.14
 1273.04        2954.25           1279          60.00       232.35
 1273.07        2954.50           1282          53.00       201.83
 1273.10        2954.75           1286          57.00       219.27
 1273.13        2955.00           1289          55.00       210.55
 1273.17        2955.25           1292          57.00       219.27
 1273.20        2955.50           1296          51.00       193.11
 1273.23        2955.75           1299          52.00       197.47
 1273.26        2956.00           1302          52.00       197.47
 1273.29        2956.25           1306          60.00       232.35
 1273.32        2956.50           1309          55.00       210.55
 1273.35        2956.75           1312          53.00       201.83
 1273.38        2957.00           1316          57.00       219.27
 1273.41        2957.25           1319          60.00       232.35
 1273.44        2957.50           1322          56.00       214.91
 1273.48        2957.75           1326          56.00       214.91
 1273.51        2958.00           1329          58.00       223.63
 1273.54        2958.25           1332          63.00       245.42
 1273.57        2958.50           1336          56.00       214.91
 1273.60        2958.75           1339          56.00       214.91
 1273.63        2959.00           1342          56.00       214.91
 1273.66        2959.25           1346          60.00       232.35
 1273.69        2959.50           1349          77.00       306.45
 1273.73        2959.75           1352          97.00       393.64
 1273.76        2960.00           1356         125.00       515.70
 1273.79        2960.25           1359         145.00       602.89
 1273.82        2960.50           1362         192.00       807.78
 1273.85        2960.75           1366         236.00       999.59
 1273.88        2961.00           1369         295.00      1256.80
 1273.91        2961.25           1372         339.00      1448.62
 1273.94        2961.50           1376         442.00      1897.67
 1273.97        2961.75           1379         669.00      2887.35
 1274.01        2962.00           1382        1584.00      6877.18
 1274.04        2962.25           1386        3380.00     14711.37
 1274.07        2962.50           1389        5023.00     21881.40
 1274.10        2962.75           1392        6603.00     28779.42
 1274.13        2963.00           1396        8679.00     37847.22
 1274.16        2963.25           1399       10260.00     44756.22
 1274.19        2963.50           1402       11771.00     51362.00
 1274.22        2963.75           1406       13883.00     60599.61
 1274.25        2964.00           1409       15591.00     68073.93
 1274.28        2964.25           1412       17164.00     74960.46
 1274.31        2964.50           1416       19270.00     84184.89
 1274.35        2964.75           1419       20806.00     90915.91
 1274.38        2965.00           1422       22645.00     98978.31
 1274.41        2965.25           1426       24812.00    108483.70
 1274.44        2965.50           1429       26600.00    116330.70
 1274.47        2965.75           1432       28044.00    122670.80
 1274.50        2966.00           1436       30086.00    131640.50
 1274.53        2966.25           1439       31529.00    137981.90
 1274.56        2966.50           1442       33289.00    145719.80
 1274.60        2966.75           1446       34711.00    151974.20
 1274.63        2967.00           1449       34963.00    153082.90
 1274.66        2967.25           1452       34959.00    153065.30
 1274.69        2967.50           1456       34953.00    153038.90
 1274.72        2967.75           1459       34935.00    152959.70
 1274.75        2968.00           1462       34685.00    151859.90
 1274.78        2968.25           1466       33547.00    146854.40
 1274.81        2968.50           1469       32233.00    141076.60
 1274.84        2968.75           1472       30295.00    132558.80
 1274.88        2969.00           1476       28407.00    124264.90
 1274.91        2969.25           1479       26902.00    117656.50
 1274.94        2969.50           1482       25297.00    110611.90
 1274.97        2969.75           1486       23181.00    101328.90
 1275.00        2970.00           1489       21651.00     94620.01
 1275.03        2970.25           1492       20141.00     88001.43
 1275.06        2970.50           1496       17976.00     78516.47
 1275.09        2970.75           1499       16186.00     70678.49
 1275.12        2971.00           1502       14578.00     63640.57
 1275.16        2971.25           1506       12589.00     54939.21
 1275.19        2971.50           1509       10855.00     47357.12
 1275.22        2971.75           1513        8738.00     38105.00
 1275.25        2972.00           1516        7050.00     30731.46
 1275.28        2972.25           1519        5450.00     23745.33
 1275.31        2972.50           1523        3435.00     14951.34
 1275.34        2972.75           1526        1862.00      8089.58
 1275.37        2973.00           1529         769.00      3323.35
 1275.41        2973.25           1533         411.00      1762.52
 1275.44        2973.50           1536         330.00      1409.39
 1275.47        2973.75           1539         277.00      1178.33
 1275.50        2974.00           1543         220.00       929.84
 1275.53        2974.25           1546         165.00       690.08
 1275.56        2974.50           1549         126.00       520.06
 1275.59        2974.75           1553          91.00       367.48
 1275.62        2975.00           1556          66.00       258.50
 1275.65        2975.25           1559          68.00       267.22
 1275.68        2975.50           1563          49.00       184.40
 1275.72        2975.75           1566          62.00       241.07
 1275.75        2976.00           1569          58.00       223.63
 1275.78        2976.25           1573          54.00       206.19
 1275.81        2976.50           1576          56.00       214.91
 1275.84        2976.75           1579          64.00       249.78
 1275.87        2977.00           1583          58.00       223.63
 1275.90        2977.25           1586          50.00       188.75
 1275.93        2977.50           1590          54.00       206.19
 1275.96        2977.75           1593          53.00       201.83
 1275.99        2978.00           1596          51.00       193.11
 1276.02        2978.25           1600          60.00       232.35
 1276.06        2978.50           1603          48.00       180.04
 1276.09        2978.75           1606          50.00       188.75
 1276.12        2979.00           1610          50.00       188.75
 1276.15        2979.25           1613          49.00       184.40
 1276.18        2979.50           1616          50.00       188.75
 1276.21        2979.75           1620          55.00       210.55
 1276.24        2980.00           1623          57.00       219.27
 1276.27        2980.25           1626          58.00       223.63
 1276.30        2980.50           1630          56.00       214.91
 1276.33        2980.75           1633          64.00       249.78
 1276.36        2981.00           1637          50.00       188.75
 1276.39        2981.25           1640          55.00       210.55
 1276.42        2981.50           1643          55.00       210.55
 1276.45        2981.75           1647          51.00       193.11
 1276.49        2982.00           1650          55.00       210.55
 1276.52        2982.25           1653          57.00       219.27
 1276.55        2982.50           1657          57.00       219.27
 1276.58        2982.75           1660          50.00       188.75
 1276.61        2983.00           1663          44.00       162.60
 1276.64        2983.25           1667          48.00       180.04
 1276.67        2983.50           1670          44.00       162.60
 1276.70        2983.75           1673          46.00       171.32
 1276.73        2984.00           1677          45.00       166.96
HS scan finished at 21:16:57
end
