************************************************************
  HS Scan of (1) Internal mercury lamp
************************************************************
Integration time is 0.2294 seconds per sample
dh090618Manchester 53.47 2.23 2.857833pr1000
************************************************************
Dead Time -------------------------  3E-08 
Number of Cycles Used -------------  4 
Starting Wavelength (Angstroms) ---  2950 
Final Wavelength (Angstoms) -------  2984 
Wavelength Increment (Angstroms) --  .25 
Filter Wheel #1 Position ---------- (1) Ground quartz diffuser (ND=2.32)
Filter Wheel #2 Position ---------- (1) Neutral Density 0.494



************************************************************
HS scan start time = 01:22:25
Dark Count =  5.3 


Time (GMT)  Wavelength (Ang)  Step Number  Raw Counts  Counts/Second

   82.78        2950.00           1222          61.00       242.81
   82.85        2950.25           1226          54.00       212.29
   82.88        2950.50           1229          57.00       225.37
   82.91        2950.75           1232          59.00       234.09
   82.94        2951.00           1236          55.00       216.65
   82.97        2951.25           1239          60.00       238.45
   83.01        2951.50           1242          64.00       255.89
   83.04        2951.75           1246          58.00       229.73
   83.07        2952.00           1249          66.00       264.61
   83.10        2952.25           1252          59.00       234.09
   83.13        2952.50           1256          55.00       216.65
   83.16        2952.75           1259          54.00       212.29
   83.19        2953.00           1262          56.00       221.01
   83.22        2953.25           1266          61.00       242.81
   83.25        2953.50           1269          55.00       216.65
   83.29        2953.75           1272          54.00       212.29
   83.32        2954.00           1276          58.00       229.73
   83.35        2954.25           1279          55.00       216.65
   83.38        2954.50           1282          59.00       234.09
   83.41        2954.75           1286          54.00       212.29
   83.44        2955.00           1289          60.00       238.45
   83.47        2955.25           1292          57.00       225.37
   83.50        2955.50           1296          55.00       216.65
   83.53        2955.75           1299          56.00       221.01
   83.56        2956.00           1302          55.00       216.65
   83.60        2956.25           1306          58.00       229.73
   83.63        2956.50           1309          55.00       216.65
   83.66        2956.75           1312          60.00       238.45
   83.69        2957.00           1316          65.00       260.25
   83.72        2957.25           1319          52.00       203.58
   83.75        2957.50           1322          58.00       229.73
   83.78        2957.75           1326          57.00       225.37
   83.81        2958.00           1329          52.00       203.58
   83.84        2958.25           1332          51.00       199.22
   83.88        2958.50           1336          64.00       255.89
   83.91        2958.75           1339          55.00       216.65
   83.94        2959.00           1342          61.00       242.81
   83.97        2959.25           1346          62.00       247.17
   84.00        2959.50           1349          64.00       255.89
   84.03        2959.75           1352          66.00       264.61
   84.06        2960.00           1356          96.00       395.38
   84.09        2960.25           1359         126.00       526.16
   84.12        2960.50           1362         156.00       656.94
   84.15        2960.75           1366         206.00       874.91
   84.19        2961.00           1369         237.00      1010.06
   84.22        2961.25           1372         282.00      1206.23
   84.25        2961.50           1376         345.00      1480.89
   84.28        2961.75           1379         440.00      1895.05
   84.31        2962.00           1382         803.00      3477.70
   84.34        2962.25           1386        2125.00      9242.75
   84.37        2962.50           1389        3535.00     15393.77
   84.40        2962.75           1392        4937.00     21512.14
   84.43        2963.00           1396        6793.00     29615.23
   84.47        2963.25           1399        8258.00     36014.05
   84.50        2963.50           1402        9764.00     42594.50
   84.53        2963.75           1406       11996.00     52351.99
   84.56        2964.00           1409       13347.00     58260.86
   84.59        2964.25           1412       14998.00     65484.67
   84.62        2964.50           1416       16897.00     73797.46
   84.65        2964.75           1419       18494.00     80791.48
   84.68        2965.00           1422       19902.00     86960.22
   84.72        2965.25           1426       22016.00     96226.38
   84.75        2965.50           1429       23400.00    102295.60
   84.78        2965.75           1432       24834.00    108586.40
   84.81        2966.00           1436       26673.00    116657.30
   84.84        2966.25           1439       28222.00    123458.60
   84.87        2966.50           1442       29697.00    129937.50
   84.90        2966.75           1446       31291.00    136942.00
   84.93        2967.00           1449       31823.00    139280.40
   84.96        2967.25           1452       31824.00    139284.80
   85.00        2967.50           1456       31994.00    140032.10
   85.03        2967.75           1459       31976.00    139953.00
   85.06        2968.00           1462       31940.00    139794.70
   85.09        2968.25           1466       31122.00    136199.20
   85.12        2968.50           1469       30117.00    131782.80
   85.15        2968.75           1472       28758.00    125812.70
   85.18        2969.00           1476       27133.00    118676.80
   85.21        2969.25           1479       25541.00    111688.80
   85.24        2969.50           1482       23930.00    104620.30
   85.28        2969.75           1486       22053.00     96388.61
   85.31        2970.00           1489       20655.00     90260.21
   85.34        2970.25           1492       19165.00     83730.99
   85.37        2970.50           1496       17298.00     75553.35
   85.40        2970.75           1499       15684.00     68487.13
   85.43        2971.00           1502       14259.00     62250.85
   85.46        2971.25           1506       12392.00     54083.76
   85.49        2971.50           1509       10893.00     47529.37
   85.52        2971.75           1513        9113.00     39749.64
   85.56        2972.00           1516        7518.00     32781.57
   85.59        2972.25           1519        6155.00     26829.35
   85.62        2972.50           1523        4109.00     17898.45
   85.65        2972.75           1526        2739.00     11921.00
   85.68        2973.00           1529        1523.00      6617.27
   85.71        2973.25           1533         517.00      2230.75
   85.74        2973.50           1536         352.00      1511.40
   85.77        2973.75           1539         278.00      1188.80
   85.80        2974.00           1543         227.00       966.46
   85.83        2974.25           1546         176.00       744.13
   85.87        2974.50           1549         142.00       595.91
   85.90        2974.75           1553          86.00       351.79
   85.93        2975.00           1556          71.00       286.40
   85.96        2975.25           1559          66.00       264.61
   85.99        2975.50           1563          53.00       207.94
   86.02        2975.75           1566          51.00       199.22
   86.05        2976.00           1569          51.00       199.22
   86.08        2976.25           1573          54.00       212.29
   86.11        2976.50           1576          57.00       225.37
   86.14        2976.75           1579          49.00       190.50
   86.17        2977.00           1583          54.00       212.29
   86.21        2977.25           1586          53.00       207.94
   86.24        2977.50           1590          57.00       225.37
   86.27        2977.75           1593          48.00       186.14
   86.30        2978.00           1596          52.00       203.58
   86.33        2978.25           1600          65.00       260.25
   86.36        2978.50           1603          47.00       181.78
   86.39        2978.75           1606          53.00       207.94
   86.42        2979.00           1610          52.00       203.58
   86.45        2979.25           1613          54.00       212.29
   86.48        2979.50           1616          47.00       181.78
   86.52        2979.75           1620          51.00       199.22
   86.55        2980.00           1623          51.00       199.22
   86.58        2980.25           1626          48.00       186.14
   86.61        2980.50           1630          42.00       159.98
   86.64        2980.75           1633          52.00       203.58
   86.67        2981.00           1637          47.00       181.78
   86.70        2981.25           1640          47.00       181.78
   86.73        2981.50           1643          47.00       181.78
   86.76        2981.75           1647          45.00       173.06
   86.79        2982.00           1650          50.00       194.86
   86.82        2982.25           1653          52.00       203.58
   86.85        2982.50           1657          54.00       212.29
   86.89        2982.75           1660          56.00       221.01
   86.92        2983.00           1663          49.00       190.50
   86.95        2983.25           1667          61.00       242.81
   86.98        2983.50           1670          58.00       229.73
   87.01        2983.75           1673          50.00       194.86
   87.04        2984.00           1677          53.00       207.94
HS scan finished at 01:27:15
end
************************************************************
  HS Scan of (1) Internal mercury lamp
************************************************************
Integration time is 0.2294 seconds per sample
dh090618Manchester 53.47 2.23 3.018777pr1000
************************************************************
Dead Time -------------------------  3E-08 
Number of Cycles Used -------------  4 
Starting Wavelength (Angstroms) ---  2950 
Final Wavelength (Angstoms) -------  2984 
Wavelength Increment (Angstroms) --  .25 
Filter Wheel #1 Position ---------- (1) Ground quartz diffuser (ND=2.32)
Filter Wheel #2 Position ---------- (1) Neutral Density 0.494



************************************************************
HS scan start time = 21:43:22
Dark Count =  5.6 


Time (GMT)  Wavelength (Ang)  Step Number  Raw Counts  Counts/Second

 1303.73        2950.00           1222          62.00       245.86
 1303.80        2950.25           1226          52.00       202.27
 1303.83        2950.50           1229          53.00       206.63
 1303.86        2950.75           1232          52.00       202.27
 1303.90        2951.00           1236          61.00       241.50
 1303.93        2951.25           1239          60.00       237.14
 1303.96        2951.50           1242          54.00       210.99
 1303.99        2951.75           1246          56.00       219.71
 1304.02        2952.00           1249          59.00       232.78
 1304.05        2952.25           1252          60.00       237.14
 1304.08        2952.50           1256          51.00       197.91
 1304.11        2952.75           1259          68.00       272.02
 1304.14        2953.00           1262          53.00       206.63
 1304.17        2953.25           1266          52.00       202.27
 1304.20        2953.50           1269          54.00       210.99
 1304.24        2953.75           1272          63.00       250.22
 1304.27        2954.00           1276          54.00       210.99
 1304.30        2954.25           1279          60.00       237.14
 1304.33        2954.50           1282          55.00       215.35
 1304.36        2954.75           1286          52.00       202.27
 1304.39        2955.00           1289          59.00       232.78
 1304.42        2955.25           1292          55.00       215.35
 1304.45        2955.50           1296          55.00       215.35
 1304.48        2955.75           1299          55.00       215.35
 1304.51        2956.00           1302          56.00       219.71
 1304.55        2956.25           1306          57.00       224.06
 1304.58        2956.50           1309          55.00       215.35
 1304.61        2956.75           1312          51.00       197.91
 1304.64        2957.00           1316          54.00       210.99
 1304.67        2957.25           1319          56.00       219.71
 1304.70        2957.50           1322          66.00       263.30
 1304.73        2957.75           1326          51.00       197.91
 1304.76        2958.00           1329          53.00       206.63
 1304.79        2958.25           1332          58.00       228.42
 1304.83        2958.50           1336          55.00       215.35
 1304.86        2958.75           1339          57.00       224.06
 1304.89        2959.00           1342          63.00       250.22
 1304.92        2959.25           1346          70.00       280.73
 1304.95        2959.50           1349          75.00       302.53
 1304.98        2959.75           1352          81.00       328.69
 1305.01        2960.00           1356         108.00       446.39
 1305.04        2960.25           1359         151.00       633.84
 1305.07        2960.50           1362         197.00       834.37
 1305.10        2960.75           1366         250.00      1065.42
 1305.13        2961.00           1369         277.00      1183.13
 1305.16        2961.25           1372         330.00      1414.18
 1305.20        2961.50           1376         380.00      1632.16
 1305.23        2961.75           1379         509.00      2194.56
 1305.26        2962.00           1382         917.00      3973.45
 1305.29        2962.25           1386        2420.00     10528.17
 1305.32        2962.50           1389        3875.00     16876.02
 1305.35        2962.75           1392        5336.00     23252.49
 1305.38        2963.00           1396        7381.00     32181.89
 1305.41        2963.25           1399        8976.00     39149.70
 1305.44        2963.50           1402       10402.00     45381.71
 1305.48        2963.75           1406       12495.00     54532.92
 1305.51        2964.00           1409       14120.00     61641.35
 1305.54        2964.25           1412       15600.00     68118.15
 1305.57        2964.50           1416       17678.00     77216.16
 1305.60        2964.75           1419       19355.00     84562.12
 1305.63        2965.00           1422       20827.00     91012.77
 1305.66        2965.25           1426       22840.00     99838.26
 1305.69        2965.50           1429       24591.00    107518.90
 1305.72        2965.75           1432       26136.00    114298.90
 1305.76        2966.00           1436       28067.00    122776.60
 1305.79        2966.25           1439       29683.00    129874.70
 1305.82        2966.50           1442       31161.00    136369.30
 1305.85        2966.75           1446       32617.00    142769.70
 1305.88        2967.00           1449       33303.00    145786.20
 1305.91        2967.25           1452       33178.00    145236.50
 1305.94        2967.50           1456       33138.00    145060.60
 1305.97        2967.75           1459       33249.00    145548.70
 1306.01        2968.00           1462       33361.00    146041.20
 1306.04        2968.25           1466       32609.00    142734.60
 1306.07        2968.50           1469       31315.00    137046.20
 1306.10        2968.75           1472       29909.00    130867.60
 1306.13        2969.00           1476       27721.00    121257.20
 1306.16        2969.25           1479       26389.00    115409.40
 1306.19        2969.50           1482       24655.00    107799.70
 1306.22        2969.75           1486       22601.00     98790.18
 1306.25        2970.00           1489       21042.00     91955.16
 1306.28        2970.25           1492       19702.00     86082.52
 1306.31        2970.50           1496       17574.00     76760.70
 1306.35        2970.75           1499       16176.00     70639.52
 1306.38        2971.00           1502       14815.00     64682.51
 1306.41        2971.25           1506       12962.00     56575.46
 1306.44        2971.50           1509       11260.00     49132.53
 1306.47        2971.75           1513        9265.00     40412.52
 1306.50        2972.00           1516        7612.00     33190.84
 1306.53        2972.25           1519        5899.00     25710.32
 1306.56        2972.50           1523        3985.00     17356.03
 1306.59        2972.75           1526        2556.00     11121.41
 1306.62        2973.00           1529        1215.00      5272.85
 1306.66        2973.25           1533         478.00      2059.41
 1306.69        2973.50           1536         335.00      1435.98
 1306.72        2973.75           1539         260.00      1109.02
 1306.75        2974.00           1543         217.00       921.56
 1306.78        2974.25           1546         160.00       673.07
 1306.81        2974.50           1549         124.00       516.14
 1306.84        2974.75           1553          94.00       385.36
 1306.87        2975.00           1556          63.00       250.22
 1306.90        2975.25           1559          56.00       219.71
 1306.93        2975.50           1563          52.00       202.27
 1306.97        2975.75           1566          49.00       189.19
 1307.00        2976.00           1569          54.00       210.99
 1307.03        2976.25           1573          56.00       219.71
 1307.06        2976.50           1576          61.00       241.50
 1307.09        2976.75           1579          48.00       184.83
 1307.12        2977.00           1583          50.00       193.55
 1307.15        2977.25           1586          58.00       228.42
 1307.18        2977.50           1590          59.00       232.78
 1307.22        2977.75           1593          57.00       224.06
 1307.25        2978.00           1596          55.00       215.35
 1307.28        2978.25           1600          62.00       245.86
 1307.31        2978.50           1603          53.00       206.63
 1307.34        2978.75           1606          57.00       224.06
 1307.37        2979.00           1610          51.00       197.91
 1307.40        2979.25           1613          56.00       219.71
 1307.43        2979.50           1616          46.00       176.11
 1307.46        2979.75           1620          59.00       232.78
 1307.49        2980.00           1623          50.00       193.55
 1307.53        2980.25           1626          50.00       193.55
 1307.56        2980.50           1630          52.00       202.27
 1307.59        2980.75           1633          49.00       189.19
 1307.62        2981.00           1637          50.00       193.55
 1307.65        2981.25           1640          55.00       215.35
 1307.68        2981.50           1643          50.00       193.55
 1307.71        2981.75           1647          56.00       219.71
 1307.74        2982.00           1650          55.00       215.35
 1307.77        2982.25           1653          52.00       202.27
 1307.80        2982.50           1657          59.00       232.78
 1307.84        2982.75           1660          60.00       237.14
 1307.87        2983.00           1663          54.00       210.99
 1307.90        2983.25           1667          57.00       224.06
 1307.93        2983.50           1670          47.00       180.47
 1307.96        2983.75           1673          58.00       228.42
 1307.99        2984.00           1677          56.00       219.71
HS scan finished at 21:48:12
end
