************************************************************
  HS Scan of (1) Internal mercury lamp
************************************************************
Integration time is 0.2294 seconds per sample
dh170618Manchester 53.47 2.23 2.804185pr1000
************************************************************
Dead Time -------------------------  3E-08 
Number of Cycles Used -------------  4 
Starting Wavelength (Angstroms) ---  2950 
Final Wavelength (Angstoms) -------  2984 
Wavelength Increment (Angstroms) --  .25 
Filter Wheel #1 Position ---------- (1) Ground quartz diffuser (ND=2.32)
Filter Wheel #2 Position ---------- (1) Neutral Density 0.494



************************************************************
HS scan start time = 01:26:11
Dark Count =  5.1 


Time (GMT)  Wavelength (Ang)  Step Number  Raw Counts  Counts/Second

   86.56        2950.00           1222          62.00       248.04
   86.63        2950.25           1226          53.00       208.81
   86.66        2950.50           1229          51.00       200.09
   86.69        2950.75           1232          53.00       208.81
   86.72        2951.00           1236          56.00       221.88
   86.75        2951.25           1239          56.00       221.88
   86.78        2951.50           1242          50.00       195.73
   86.81        2951.75           1246          57.00       226.24
   86.84        2952.00           1249          53.00       208.81
   86.87        2952.25           1252          65.00       261.12
   86.90        2952.50           1256          55.00       217.53
   86.93        2952.75           1259          57.00       226.24
   86.96        2953.00           1262          54.00       213.17
   86.99        2953.25           1266          56.00       221.88
   87.02        2953.50           1269          51.00       200.09
   87.06        2953.75           1272          58.00       230.60
   87.09        2954.00           1276          55.00       217.53
   87.12        2954.25           1279          58.00       230.60
   87.15        2954.50           1282          60.00       239.32
   87.18        2954.75           1286          55.00       217.53
   87.21        2955.00           1289          54.00       213.17
   87.24        2955.25           1292          55.00       217.53
   87.27        2955.50           1296          51.00       200.09
   87.30        2955.75           1299          61.00       243.68
   87.33        2956.00           1302          53.00       208.81
   87.36        2956.25           1306          58.00       230.60
   87.39        2956.50           1309          53.00       208.81
   87.42        2956.75           1312          55.00       217.53
   87.45        2957.00           1316          58.00       230.60
   87.48        2957.25           1319          58.00       230.60
   87.52        2957.50           1322          56.00       221.88
   87.55        2957.75           1326          51.00       200.09
   87.58        2958.00           1329          56.00       221.88
   87.61        2958.25           1332          54.00       213.17
   87.64        2958.50           1336          59.00       234.96
   87.67        2958.75           1339          59.00       234.96
   87.70        2959.00           1342          59.00       234.96
   87.73        2959.25           1346          61.00       243.68
   87.76        2959.50           1349          65.00       261.12
   87.79        2959.75           1352          87.00       357.02
   87.82        2960.00           1356         111.00       461.65
   87.85        2960.25           1359         133.00       557.55
   87.88        2960.50           1362         187.00       792.96
   87.91        2960.75           1366         215.00       915.02
   87.94        2961.00           1369         244.00      1041.44
   87.98        2961.25           1372         297.00      1272.50
   88.01        2961.50           1376         373.00      1603.83
   88.04        2961.75           1379         517.00      2231.62
   88.07        2962.00           1382        1003.00      4350.61
   88.10        2962.25           1386        2401.00     10447.48
   88.13        2962.50           1389        3769.00     16415.67
   88.16        2962.75           1392        5089.00     22176.48
   88.19        2963.00           1396        6936.00     30240.59
   88.22        2963.25           1399        8360.00     36460.52
   88.25        2963.50           1402        9809.00     42792.05
   88.28        2963.75           1406       11842.00     51679.46
   88.32        2964.00           1409       13283.00     57981.76
   88.35        2964.25           1412       14777.00     64518.40
   88.38        2964.50           1416       16596.00     72480.46
   88.41        2964.75           1419       17789.00     77704.48
   88.44        2965.00           1422       19289.00     84275.14
   88.47        2965.25           1426       21153.00     92443.91
   88.50        2965.50           1429       22758.00     99480.85
   88.53        2965.75           1432       24064.00    105209.10
   88.56        2966.00           1436       26019.00    113787.50
   88.59        2966.25           1439       27193.00    118941.10
   88.63        2966.50           1442       28558.00    124935.10
   88.66        2966.75           1446       30248.00    132359.30
   88.69        2967.00           1449       30409.00    133066.80
   88.72        2967.25           1452       30761.00    134613.60
   88.75        2967.50           1456       30635.00    134059.90
   88.78        2967.75           1459       30619.00    133989.60
   88.81        2968.00           1462       30633.00    134051.10
   88.84        2968.25           1466       29773.00    130272.30
   88.87        2968.50           1469       28497.00    124667.20
   88.91        2968.75           1472       27309.00    119450.40
   88.94        2969.00           1476       25620.00    112036.40
   88.97        2969.25           1479       24073.00    105248.50
   89.00        2969.50           1482       22667.00     99081.79
   89.03        2969.75           1486       20775.00     90787.04
   89.06        2970.00           1489       19444.00     84954.26
   89.09        2970.25           1492       17989.00     78580.41
   89.12        2970.50           1496       16245.00     70943.78
   89.15        2970.75           1499       14880.00     64969.15
   89.19        2971.00           1502       13400.00     58493.58
   89.22        2971.25           1506       11625.00     50730.59
   89.25        2971.50           1509       10185.00     44435.40
   89.28        2971.75           1513        8335.00     36351.31
   89.31        2972.00           1516        6862.00     29917.42
   89.34        2972.25           1519        5295.00     23075.69
   89.37        2972.50           1523        3543.00     15429.55
   89.40        2972.75           1526        2221.00      9662.35
   89.43        2973.00           1529         986.00      4276.49
   89.46        2973.25           1533         418.00      1800.01
   89.50        2973.50           1536         300.00      1285.58
   89.53        2973.75           1539         243.00      1037.09
   89.56        2974.00           1543         225.00       958.62
   89.59        2974.25           1546         148.00       622.94
   89.62        2974.50           1549         116.00       483.44
   89.65        2974.75           1553          89.00       365.74
   89.68        2975.00           1556          75.00       304.71
   89.71        2975.25           1559          63.00       252.40
   89.74        2975.50           1563          52.00       204.45
   89.77        2975.75           1566          43.00       165.21
   89.80        2976.00           1569          52.00       204.45
   89.84        2976.25           1573          51.00       200.09
   89.87        2976.50           1576          56.00       221.88
   89.90        2976.75           1579          56.00       221.88
   89.93        2977.00           1583          54.00       213.17
   89.96        2977.25           1586          50.00       195.73
   89.99        2977.50           1590          58.00       230.60
   90.02        2977.75           1593          53.00       208.81
   90.05        2978.00           1596          50.00       195.73
   90.08        2978.25           1600          53.00       208.81
   90.11        2978.50           1603          48.00       187.01
   90.14        2978.75           1606          46.00       178.29
   90.17        2979.00           1610          56.00       221.88
   90.20        2979.25           1613          48.00       187.01
   90.23        2979.50           1616          46.00       178.29
   90.26        2979.75           1620          49.00       191.37
   90.29        2980.00           1623          49.00       191.37
   90.32        2980.25           1626          50.00       195.73
   90.36        2980.50           1630          55.00       217.53
   90.39        2980.75           1633          47.00       182.65
   90.42        2981.00           1637          45.00       173.93
   90.45        2981.25           1640          54.00       213.17
   90.48        2981.50           1643          49.00       191.37
   90.51        2981.75           1647          51.00       200.09
   90.54        2982.00           1650          54.00       213.17
   90.57        2982.25           1653          49.00       191.37
   90.60        2982.50           1657          50.00       195.73
   90.63        2982.75           1660          54.00       213.17
   90.66        2983.00           1663          53.00       208.81
   90.70        2983.25           1667          47.00       182.65
   90.73        2983.50           1670          49.00       191.37
   90.76        2983.75           1673          51.00       200.09
   90.79        2984.00           1677          51.00       200.09
HS scan finished at 01:31:00
end
************************************************************
  HS Scan of (1) Internal mercury lamp
************************************************************
Integration time is 0.2294 seconds per sample
dh170618Manchester 53.47 2.23 2.911481pr1000
************************************************************
Dead Time -------------------------  3E-08 
Number of Cycles Used -------------  4 
Starting Wavelength (Angstroms) ---  2950 
Final Wavelength (Angstoms) -------  2984 
Wavelength Increment (Angstroms) --  .25 
Filter Wheel #1 Position ---------- (1) Ground quartz diffuser (ND=2.32)
Filter Wheel #2 Position ---------- (1) Neutral Density 0.494



************************************************************
HS scan start time = 21:43:20
Dark Count =  5.1 


Time (GMT)  Wavelength (Ang)  Step Number  Raw Counts  Counts/Second

 1303.71        2950.00           1222          56.00       221.88
 1303.77        2950.25           1226          60.00       239.32
 1303.80        2950.50           1229          54.00       213.17
 1303.84        2950.75           1232          57.00       226.24
 1303.87        2951.00           1236          57.00       226.24
 1303.90        2951.25           1239          56.00       221.88
 1303.93        2951.50           1242          55.00       217.53
 1303.96        2951.75           1246          50.00       195.73
 1303.99        2952.00           1249          57.00       226.24
 1304.02        2952.25           1252          57.00       226.24
 1304.05        2952.50           1256          58.00       230.60
 1304.08        2952.75           1259          61.00       243.68
 1304.11        2953.00           1262          58.00       230.60
 1304.14        2953.25           1266          62.00       248.04
 1304.18        2953.50           1269          56.00       221.88
 1304.21        2953.75           1272          55.00       217.53
 1304.24        2954.00           1276          55.00       217.53
 1304.27        2954.25           1279          55.00       217.53
 1304.30        2954.50           1282          52.00       204.45
 1304.33        2954.75           1286          53.00       208.81
 1304.36        2955.00           1289          51.00       200.09
 1304.39        2955.25           1292          54.00       213.17
 1304.42        2955.50           1296          54.00       213.17
 1304.45        2955.75           1299          55.00       217.53
 1304.48        2956.00           1302          54.00       213.17
 1304.51        2956.25           1306          53.00       208.81
 1304.54        2956.50           1309          53.00       208.81
 1304.58        2956.75           1312          66.00       265.48
 1304.61        2957.00           1316          53.00       208.81
 1304.64        2957.25           1319          58.00       230.60
 1304.67        2957.50           1322          52.00       204.45
 1304.70        2957.75           1326          57.00       226.24
 1304.73        2958.00           1329          49.00       191.37
 1304.76        2958.25           1332          60.00       239.32
 1304.79        2958.50           1336          63.00       252.40
 1304.82        2958.75           1339          60.00       239.32
 1304.85        2959.00           1342          55.00       217.53
 1304.89        2959.25           1346          61.00       243.68
 1304.92        2959.50           1349          67.00       269.84
 1304.95        2959.75           1352          71.00       287.27
 1304.98        2960.00           1356         100.00       413.69
 1305.01        2960.25           1359         129.00       540.11
 1305.04        2960.50           1362         159.00       670.89
 1305.07        2960.75           1366         210.00       893.22
 1305.10        2961.00           1369         252.00      1076.32
 1305.13        2961.25           1372         301.00      1289.94
 1305.16        2961.50           1376         362.00      1555.87
 1305.19        2961.75           1379         525.00      2266.50
 1305.23        2962.00           1382        1021.00      4429.10
 1305.26        2962.25           1386        2649.00     11529.27
 1305.29        2962.50           1389        3979.00     17332.03
 1305.32        2962.75           1392        5311.00     23145.54
 1305.35        2963.00           1396        7345.00     32026.84
 1305.38        2963.25           1399        8886.00     38758.65
 1305.41        2963.50           1402       10507.00     45842.87
 1305.44        2963.75           1406       12569.00     54858.74
 1305.47        2964.00           1409       14022.00     61214.76
 1305.50        2964.25           1412       15457.00     67494.43
 1305.53        2964.50           1416       17520.00     76526.41
 1305.57        2964.75           1419       18888.00     82518.33
 1305.60        2965.00           1422       20353.00     88937.51
 1305.63        2965.25           1426       22553.00     98581.89
 1305.66        2965.50           1429       23990.00    104884.40
 1305.69        2965.75           1432       25600.00    111948.60
 1305.72        2966.00           1436       27667.00    121022.30
 1305.75        2966.25           1439       29079.00    127223.50
 1305.78        2966.50           1442       30493.00    133435.90
 1305.81        2966.75           1446       31958.00    139874.70
 1305.84        2967.00           1449       32183.00    140863.90
 1305.88        2967.25           1452       32114.00    140560.50
 1305.91        2967.50           1456       32337.00    141540.90
 1305.94        2967.75           1459       32333.00    141523.30
 1305.97        2968.00           1462       32109.00    140538.60
 1306.00        2968.25           1466       31281.00    136898.90
 1306.03        2968.50           1469       29916.00    130900.60
 1306.06        2968.75           1472       28300.00    123802.00
 1306.09        2969.00           1476       26559.00    116157.80
 1306.12        2969.25           1479       25113.00    109811.50
 1306.15        2969.50           1482       23407.00    102327.20
 1306.19        2969.75           1486       21468.00     93824.75
 1306.22        2970.00           1489       20013.00     87447.52
 1306.25        2970.25           1492       18582.00     81177.85
 1306.28        2970.50           1496       16855.00     73614.45
 1306.31        2970.75           1499       15289.00     66759.11
 1306.34        2971.00           1502       13846.00     60444.74
 1306.37        2971.25           1506       11813.00     51552.65
 1306.40        2971.50           1509       10375.00     45265.88
 1306.43        2971.75           1513        8381.00     36552.27
 1306.46        2972.00           1516        6837.00     29808.25
 1306.49        2972.25           1519        5329.00     23224.11
 1306.53        2972.50           1523        3472.00     15119.76
 1306.56        2972.75           1526        2043.00      8885.98
 1306.59        2973.00           1529         934.00      4049.75
 1306.62        2973.25           1533         418.00      1800.01
 1306.65        2973.50           1536         306.00      1311.73
 1306.68        2973.75           1539         262.00      1119.92
 1306.71        2974.00           1543         219.00       932.46
 1306.74        2974.25           1546         164.00       692.69
 1306.77        2974.50           1549         138.00       579.35
 1306.81        2974.75           1553          90.00       370.10
 1306.84        2975.00           1556          73.00       295.99
 1306.87        2975.25           1559          65.00       261.12
 1306.90        2975.50           1563          52.00       204.45
 1306.93        2975.75           1566          64.00       256.76
 1306.96        2976.00           1569          47.00       182.65
 1306.99        2976.25           1573          51.00       200.09
 1307.02        2976.50           1576          53.00       208.81
 1307.05        2976.75           1579          55.00       217.53
 1307.08        2977.00           1583          55.00       217.53
 1307.12        2977.25           1586          55.00       217.53
 1307.15        2977.50           1590          50.00       195.73
 1307.18        2977.75           1593          58.00       230.60
 1307.21        2978.00           1596          46.00       178.29
 1307.24        2978.25           1600          51.00       200.09
 1307.27        2978.50           1603          54.00       213.17
 1307.30        2978.75           1606          52.00       204.45
 1307.33        2979.00           1610          45.00       173.93
 1307.36        2979.25           1613          55.00       217.53
 1307.39        2979.50           1616          53.00       208.81
 1307.42        2979.75           1620          51.00       200.09
 1307.46        2980.00           1623          56.00       221.88
 1307.49        2980.25           1626          54.00       213.17
 1307.52        2980.50           1630          56.00       221.88
 1307.55        2980.75           1633          55.00       217.53
 1307.58        2981.00           1637          54.00       213.17
 1307.61        2981.25           1640          53.00       208.81
 1307.64        2981.50           1643          49.00       191.37
 1307.67        2981.75           1647          53.00       208.81
 1307.70        2982.00           1650          53.00       208.81
 1307.73        2982.25           1653          47.00       182.65
 1307.77        2982.50           1657          47.00       182.65
 1307.80        2982.75           1660          56.00       221.88
 1307.83        2983.00           1663          48.00       187.01
 1307.86        2983.25           1667          48.00       187.01
 1307.89        2983.50           1670          45.00       173.93
 1307.92        2983.75           1673          48.00       187.01
 1307.95        2984.00           1677          50.00       195.73
HS scan finished at 21:48:10
end
