************************************************************
  HS Scan of (1) Internal mercury lamp
************************************************************
Integration time is 0.2294 seconds per sample
dh130618Manchester 53.47 2.23 2.804185pr1000
************************************************************
Dead Time -------------------------  3E-08 
Number of Cycles Used -------------  4 
Starting Wavelength (Angstroms) ---  2950 
Final Wavelength (Angstoms) -------  2984 
Wavelength Increment (Angstroms) --  .25 
Filter Wheel #1 Position ---------- (1) Ground quartz diffuser (ND=2.32)
Filter Wheel #2 Position ---------- (1) Neutral Density 0.494



************************************************************
HS scan start time = 01:36:56
Dark Count =  5.9 


Time (GMT)  Wavelength (Ang)  Step Number  Raw Counts  Counts/Second

   97.30        2950.00           1222          58.00       227.12
   97.37        2950.25           1226          54.00       209.68
   97.40        2950.50           1229          60.00       235.83
   97.43        2950.75           1232          61.00       240.19
   97.46        2951.00           1236          48.00       183.52
   97.49        2951.25           1239          57.00       222.76
   97.52        2951.50           1242          53.00       205.32
   97.55        2951.75           1246          59.00       231.48
   97.58        2952.00           1249          50.00       192.24
   97.61        2952.25           1252          57.00       222.76
   97.64        2952.50           1256          58.00       227.12
   97.67        2952.75           1259          69.00       275.07
   97.71        2953.00           1262          55.00       214.04
   97.74        2953.25           1266          58.00       227.12
   97.77        2953.50           1269          56.00       218.40
   97.80        2953.75           1272          52.00       200.96
   97.83        2954.00           1276          64.00       253.27
   97.86        2954.25           1279          62.00       244.55
   97.89        2954.50           1282          55.00       214.04
   97.92        2954.75           1286          62.00       244.55
   97.95        2955.00           1289          56.00       218.40
   97.98        2955.25           1292          58.00       227.12
   98.01        2955.50           1296          57.00       222.76
   98.05        2955.75           1299          53.00       205.32
   98.08        2956.00           1302          53.00       205.32
   98.11        2956.25           1306          53.00       205.32
   98.14        2956.50           1309          57.00       222.76
   98.17        2956.75           1312          56.00       218.40
   98.20        2957.00           1316          57.00       222.76
   98.23        2957.25           1319          57.00       222.76
   98.26        2957.50           1322          49.00       187.88
   98.29        2957.75           1326          55.00       214.04
   98.32        2958.00           1329          58.00       227.12
   98.35        2958.25           1332          61.00       240.19
   98.38        2958.50           1336          52.00       200.96
   98.42        2958.75           1339          55.00       214.04
   98.45        2959.00           1342          53.00       205.32
   98.48        2959.25           1346          53.00       205.32
   98.51        2959.50           1349          63.00       248.91
   98.54        2959.75           1352          68.00       270.71
   98.57        2960.00           1356          92.00       375.33
   98.60        2960.25           1359         133.00       554.06
   98.63        2960.50           1362         157.00       658.69
   98.66        2960.75           1366         212.00       898.45
   98.70        2961.00           1369         256.00      1090.27
   98.73        2961.25           1372         285.00      1216.70
   98.76        2961.50           1376         360.00      1543.66
   98.79        2961.75           1379         530.00      2284.81
   98.82        2962.00           1382        1082.00      4691.59
   98.85        2962.25           1386        2577.00     11211.71
   98.88        2962.50           1389        3925.00     17092.90
   98.91        2962.75           1392        5243.00     22845.21
   98.94        2963.00           1396        7094.00     30927.11
   98.98        2963.25           1399        8512.00     37121.09
   99.01        2963.50           1402        9905.00     43208.11
   99.04        2963.75           1406       11707.00     51085.64
   99.07        2964.00           1409       13257.00     57864.53
   99.10        2964.25           1412       14899.00     65048.79
   99.13        2964.50           1416       16952.00     74035.66
   99.16        2964.75           1419       18366.00     80228.18
   99.19        2965.00           1422       19734.00     86221.43
   99.22        2965.25           1426       21622.00     94496.38
   99.25        2965.50           1429       23031.00    100674.60
   99.28        2965.75           1432       24510.00    107162.20
   99.31        2966.00           1436       26228.00    114701.30
   99.35        2966.25           1439       27598.00    120715.80
   99.38        2966.50           1442       28704.00    125572.90
   99.41        2966.75           1446       30259.00    132404.10
   99.44        2967.00           1449       30708.00    134377.20
   99.47        2967.25           1452       30631.00    134038.80
   99.50        2967.50           1456       30700.00    134342.00
   99.53        2967.75           1459       30743.00    134531.00
   99.56        2968.00           1462       30731.00    134478.20
   99.59        2968.25           1466       29835.00    130541.20
   99.63        2968.50           1469       28550.00    124896.50
   99.66        2968.75           1472       27356.00    119653.20
   99.69        2969.00           1476       25738.00    112550.70
   99.72        2969.25           1479       24238.00    105968.90
   99.75        2969.50           1482       22943.00    100288.60
   99.78        2969.75           1486       20967.00     91625.09
   99.81        2970.00           1489       19371.00     84630.91
   99.84        2970.25           1492       18119.00     79146.28
   99.87        2970.50           1496       16337.00     71343.03
   99.90        2970.75           1499       14780.00     64528.03
   99.94        2971.00           1502       13410.00     58533.82
   99.97        2971.25           1506       11415.00     49808.90
  100.00        2971.50           1509        9989.00     43575.24
  100.03        2971.75           1513        8263.00     36033.26
  100.06        2972.00           1516        6797.00     29630.08
  100.09        2972.25           1519        5490.00     23923.44
  100.12        2972.50           1523        3642.00     15858.02
  100.15        2972.75           1526        2377.00     10339.30
  100.18        2973.00           1529        1151.00      4992.47
  100.22        2973.25           1533         430.00      1848.84
  100.25        2973.50           1536         310.00      1325.68
  100.28        2973.75           1539         270.00      1151.30
  100.31        2974.00           1543         214.00       907.17
  100.34        2974.25           1546         175.00       737.16
  100.37        2974.50           1549         111.00       458.16
  100.40        2974.75           1553          80.00       323.02
  100.43        2975.00           1556          68.00       270.71
  100.46        2975.25           1559          61.00       240.19
  100.50        2975.50           1563          50.00       192.24
  100.53        2975.75           1566          59.00       231.48
  100.56        2976.00           1569          62.00       244.55
  100.59        2976.25           1573          54.00       209.68
  100.62        2976.50           1576          56.00       218.40
  100.65        2976.75           1579          47.00       179.16
  100.68        2977.00           1583          56.00       218.40
  100.71        2977.25           1586          50.00       192.24
  100.74        2977.50           1590          57.00       222.76
  100.77        2977.75           1593          58.00       227.12
  100.81        2978.00           1596          48.00       183.52
  100.84        2978.25           1600          56.00       218.40
  100.87        2978.50           1603          57.00       222.76
  100.90        2978.75           1606          60.00       235.83
  100.93        2979.00           1610          51.00       196.60
  100.96        2979.25           1613          51.00       196.60
  100.99        2979.50           1616          50.00       192.24
  101.02        2979.75           1620          55.00       214.04
  101.05        2980.00           1623          58.00       227.12
  101.08        2980.25           1626          56.00       218.40
  101.11        2980.50           1630          54.00       209.68
  101.14        2980.75           1633          53.00       205.32
  101.18        2981.00           1637          45.00       170.45
  101.21        2981.25           1640          49.00       187.88
  101.24        2981.50           1643          51.00       196.60
  101.27        2981.75           1647          47.00       179.16
  101.30        2982.00           1650          48.00       183.52
  101.33        2982.25           1653          49.00       187.88
  101.36        2982.50           1657          53.00       205.32
  101.39        2982.75           1660          48.00       183.52
  101.42        2983.00           1663          45.00       170.45
  101.45        2983.25           1667          58.00       227.12
  101.48        2983.50           1670          53.00       205.32
  101.52        2983.75           1673          54.00       209.68
  101.55        2984.00           1677          48.00       183.52
HS scan finished at 01:41:46
end
************************************************************
  HS Scan of (1) Internal mercury lamp
************************************************************
Integration time is 0.2294 seconds per sample
dh130618Manchester 53.47 2.23 2.857833pr1000
************************************************************
Dead Time -------------------------  3E-08 
Number of Cycles Used -------------  4 
Starting Wavelength (Angstroms) ---  2950 
Final Wavelength (Angstoms) -------  2984 
Wavelength Increment (Angstroms) --  .25 
Filter Wheel #1 Position ---------- (1) Ground quartz diffuser (ND=2.32)
Filter Wheel #2 Position ---------- (1) Neutral Density 0.494



************************************************************
HS scan start time = 21:42:03
Dark Count =  6.9 


Time (GMT)  Wavelength (Ang)  Step Number  Raw Counts  Counts/Second

 1302.42        2950.00           1222          62.00       240.19
 1302.49        2950.25           1226          56.00       214.04
 1302.52        2950.50           1229          59.00       227.12
 1302.55        2950.75           1232          53.00       200.96
 1302.58        2951.00           1236          53.00       200.96
 1302.61        2951.25           1239          60.00       231.48
 1302.64        2951.50           1242          61.00       235.83
 1302.67        2951.75           1246          57.00       218.40
 1302.70        2952.00           1249          59.00       227.12
 1302.73        2952.25           1252          52.00       196.60
 1302.76        2952.50           1256          52.00       196.60
 1302.79        2952.75           1259          62.00       240.19
 1302.82        2953.00           1262          52.00       196.60
 1302.85        2953.25           1266          60.00       231.48
 1302.88        2953.50           1269          51.00       192.24
 1302.91        2953.75           1272          50.00       187.88
 1302.94        2954.00           1276          55.00       209.68
 1302.98        2954.25           1279          59.00       227.12
 1303.01        2954.50           1282          57.00       218.40
 1303.04        2954.75           1286          54.00       205.32
 1303.07        2955.00           1289          60.00       231.48
 1303.10        2955.25           1292          59.00       227.12
 1303.13        2955.50           1296          52.00       196.60
 1303.16        2955.75           1299          55.00       209.68
 1303.19        2956.00           1302          59.00       227.12
 1303.22        2956.25           1306          54.00       205.32
 1303.26        2956.50           1309          50.00       187.88
 1303.29        2956.75           1312          52.00       196.60
 1303.32        2957.00           1316          54.00       205.32
 1303.35        2957.25           1319          57.00       218.40
 1303.38        2957.50           1322          50.00       187.88
 1303.41        2957.75           1326          53.00       200.96
 1303.44        2958.00           1329          62.00       240.19
 1303.47        2958.25           1332          57.00       218.40
 1303.50        2958.50           1336          59.00       227.12
 1303.53        2958.75           1339          64.00       248.91
 1303.56        2959.00           1342          57.00       218.40
 1303.59        2959.25           1346          51.00       192.24
 1303.62        2959.50           1349          71.00       279.43
 1303.66        2959.75           1352          86.00       344.82
 1303.69        2960.00           1356         109.00       445.08
 1303.72        2960.25           1359         140.00       580.22
 1303.75        2960.50           1362         164.00       684.84
 1303.78        2960.75           1366         223.00       942.05
 1303.81        2961.00           1369         255.00      1081.55
 1303.84        2961.25           1372         310.00      1321.33
 1303.87        2961.50           1376         337.00      1439.03
 1303.91        2961.75           1379         478.00      2053.74
 1303.94        2962.00           1382         980.00      4242.48
 1303.97        2962.25           1386        2436.00     10592.29
 1304.00        2962.50           1389        3778.00     16447.09
 1304.03        2962.75           1392        5107.00     22247.19
 1304.06        2963.00           1396        6908.00     30110.45
 1304.09        2963.25           1399        8372.00     36505.08
 1304.12        2963.50           1402        9741.00     42486.99
 1304.15        2963.75           1406       11643.00     50801.43
 1304.19        2964.00           1409       13048.00     56945.94
 1304.22        2964.25           1412       14532.00     63438.40
 1304.25        2964.50           1416       16505.00     72074.16
 1304.28        2964.75           1419       17678.00     77210.46
 1304.31        2965.00           1422       19205.00     83899.24
 1304.34        2965.25           1426       21018.00     91844.26
 1304.37        2965.50           1429       22662.00     99051.96
 1304.40        2965.75           1432       23877.00    104380.80
 1304.43        2966.00           1436       26127.00    114253.60
 1304.47        2966.25           1439       27404.00    119859.60
 1304.50        2966.50           1442       28523.00    124773.50
 1304.53        2966.75           1446       29943.00    131011.30
 1304.56        2967.00           1449       30428.00    133142.30
 1304.59        2967.25           1452       30481.00    133375.20
 1304.62        2967.50           1456       30594.00    133871.80
 1304.65        2967.75           1459       30538.00    133625.70
 1304.68        2968.00           1462       30413.00    133076.40
 1304.72        2968.25           1466       29755.00    130185.30
 1304.75        2968.50           1469       28492.00    124637.40
 1304.78        2968.75           1472       27186.00    118902.50
 1304.81        2969.00           1476       25402.00    111071.80
 1304.84        2969.25           1479       24010.00    104964.30
 1304.87        2969.50           1482       22786.00     99595.75
 1304.90        2969.75           1486       20922.00     91423.47
 1304.93        2970.00           1489       19437.00     84915.69
 1304.97        2970.25           1492       18071.00     78931.66
 1305.00        2970.50           1496       16289.00     71128.52
 1305.03        2970.75           1499       14900.00     65048.79
 1305.06        2971.00           1502       13468.00     58783.17
 1305.09        2971.25           1506       11523.00     50276.73
 1305.12        2971.50           1509       10028.00     43741.32
 1305.15        2971.75           1513        8111.00     35364.88
 1305.18        2972.00           1516        6681.00     29119.15
 1305.21        2972.25           1519        5243.00     22840.85
 1305.24        2972.50           1523        3326.00     14474.90
 1305.28        2972.75           1526        2080.00      9039.51
 1305.31        2973.00           1529         949.00      4107.31
 1305.34        2973.25           1533         432.00      1853.20
 1305.37        2973.50           1536         294.00      1251.57
 1305.40        2973.75           1539         240.00      1016.16
 1305.43        2974.00           1543         210.00       885.38
 1305.46        2974.25           1546         149.00       619.45
 1305.49        2974.50           1549         116.00       475.60
 1305.53        2974.75           1553          92.00       370.97
 1305.56        2975.00           1556          70.00       275.07
 1305.59        2975.25           1559          64.00       248.91
 1305.62        2975.50           1563          67.00       261.99
 1305.65        2975.75           1566          50.00       187.88
 1305.68        2976.00           1569          52.00       196.60
 1305.71        2976.25           1573          50.00       187.88
 1305.74        2976.50           1576          45.00       166.09
 1305.77        2976.75           1579          51.00       192.24
 1305.81        2977.00           1583          53.00       200.96
 1305.84        2977.25           1586          57.00       218.40
 1305.87        2977.50           1590          49.00       183.52
 1305.90        2977.75           1593          54.00       205.32
 1305.93        2978.00           1596          59.00       227.12
 1305.96        2978.25           1600          53.00       200.96
 1305.99        2978.50           1603          54.00       205.32
 1306.02        2978.75           1606          48.00       179.16
 1306.05        2979.00           1610          52.00       196.60
 1306.08        2979.25           1613          59.00       227.12
 1306.12        2979.50           1616          51.00       192.24
 1306.15        2979.75           1620          61.00       235.83
 1306.18        2980.00           1623          49.00       183.52
 1306.21        2980.25           1626          46.00       170.45
 1306.24        2980.50           1630          58.00       222.76
 1306.27        2980.75           1633          45.00       166.09
 1306.30        2981.00           1637          62.00       240.19
 1306.33        2981.25           1640          49.00       183.52
 1306.36        2981.50           1643          51.00       192.24
 1306.39        2981.75           1647          43.00       157.37
 1306.42        2982.00           1650          52.00       196.60
 1306.46        2982.25           1653          48.00       179.16
 1306.49        2982.50           1657          49.00       183.52
 1306.52        2982.75           1660          55.00       209.68
 1306.55        2983.00           1663          50.00       187.88
 1306.58        2983.25           1667          52.00       196.60
 1306.61        2983.50           1670          48.00       179.16
 1306.64        2983.75           1673          50.00       187.88
 1306.67        2984.00           1677          45.00       166.09
HS scan finished at 21:46:53
end
