************************************************************
  HS Scan of (1) Internal mercury lamp
************************************************************
Integration time is 0.2294 seconds per sample
dh140618Manchester 53.47 2.23 2.857833pr1000
************************************************************
Dead Time -------------------------  3E-08 
Number of Cycles Used -------------  4 
Starting Wavelength (Angstroms) ---  2950 
Final Wavelength (Angstoms) -------  2984 
Wavelength Increment (Angstroms) --  .25 
Filter Wheel #1 Position ---------- (1) Ground quartz diffuser (ND=2.32)
Filter Wheel #2 Position ---------- (1) Neutral Density 0.494



************************************************************
HS scan start time = 02:13:48
Dark Count =  7.3 


Time (GMT)  Wavelength (Ang)  Step Number  Raw Counts  Counts/Second

  134.18        2950.00           1222          46.00       168.70
  134.24        2950.25           1226          52.00       194.86
  134.27        2950.50           1229          55.00       207.94
  134.30        2950.75           1232          61.00       234.09
  134.33        2951.00           1236          52.00       194.86
  134.37        2951.25           1239          58.00       221.01
  134.40        2951.50           1242          50.00       186.14
  134.43        2951.75           1246          56.00       212.29
  134.46        2952.00           1249          61.00       234.09
  134.49        2952.25           1252          58.00       221.01
  134.52        2952.50           1256          56.00       212.29
  134.55        2952.75           1259          57.00       216.65
  134.58        2953.00           1262          58.00       221.01
  134.61        2953.25           1266          50.00       186.14
  134.64        2953.50           1269          56.00       212.29
  134.67        2953.75           1272          52.00       194.86
  134.70        2954.00           1276          63.00       242.81
  134.73        2954.25           1279          53.00       199.22
  134.76        2954.50           1282          52.00       194.86
  134.79        2954.75           1286          58.00       221.01
  134.83        2955.00           1289          51.00       190.50
  134.86        2955.25           1292          53.00       199.22
  134.89        2955.50           1296          53.00       199.22
  134.92        2955.75           1299          55.00       207.94
  134.95        2956.00           1302          50.00       186.14
  134.98        2956.25           1306          55.00       207.94
  135.01        2956.50           1309          54.00       203.58
  135.04        2956.75           1312          53.00       199.22
  135.07        2957.00           1316          49.00       181.78
  135.10        2957.25           1319          54.00       203.58
  135.13        2957.50           1322          52.00       194.86
  135.16        2957.75           1326          52.00       194.86
  135.19        2958.00           1329          61.00       234.09
  135.23        2958.25           1332          61.00       234.09
  135.26        2958.50           1336          53.00       199.22
  135.29        2958.75           1339          58.00       221.01
  135.32        2959.00           1342          64.00       247.17
  135.35        2959.25           1346          58.00       221.01
  135.38        2959.50           1349          59.00       225.37
  135.41        2959.75           1352          79.00       312.56
  135.44        2960.00           1356          97.00       391.02
  135.47        2960.25           1359         129.00       530.52
  135.50        2960.50           1362         159.00       661.30
  135.53        2960.75           1366         212.00       892.35
  135.56        2961.00           1369         248.00      1049.29
  135.59        2961.25           1372         278.00      1180.08
  135.62        2961.50           1376         354.00      1511.40
  135.65        2961.75           1379         509.00      2187.15
  135.69        2962.00           1382        1152.00      4990.72
  135.72        2962.25           1386        2769.00     12043.15
  135.75        2962.50           1389        4070.00     17719.53
  135.78        2962.75           1392        5475.00     23851.85
  135.81        2963.00           1396        7375.00     32148.26
  135.84        2963.25           1399        8925.00     38919.43
  135.87        2963.50           1402       10429.00     45492.30
  135.90        2963.75           1406       12294.00     53646.43
  135.93        2964.00           1409       13737.00     59958.24
  135.96        2964.25           1412       15291.00     66758.24
  136.00        2964.50           1416       17314.00     75614.66
  136.03        2964.75           1419       18679.00     81593.12
  136.06        2965.00           1422       20209.00     88296.79
  136.09        2965.25           1426       22014.00     96208.85
  136.12        2965.50           1429       23504.00    102743.00
  136.15        2965.75           1432       24670.00    107858.00
  136.18        2966.00           1436       26937.00    117807.50
  136.21        2966.25           1439       28162.00    123186.30
  136.24        2966.50           1442       29268.00    128044.10
  136.27        2966.75           1446       30691.00    134296.30
  136.30        2967.00           1449       30943.00    135403.80
  136.34        2967.25           1452       31004.00    135671.90
  136.37        2967.50           1456       30974.00    135540.00
  136.40        2967.75           1459       31105.00    136115.70
  136.43        2968.00           1462       30806.00    134801.70
  136.46        2968.25           1466       29896.00    130803.00
  136.49        2968.50           1469       28646.00    125312.00
  136.52        2968.75           1472       27282.00    119322.20
  136.55        2969.00           1476       25377.00    110960.30
  136.58        2969.25           1479       24102.00    105366.10
  136.62        2969.50           1482       22451.00     98124.96
  136.65        2969.75           1486       20672.00     90325.94
  136.68        2970.00           1489       19135.00     83590.79
  136.71        2970.25           1492       17742.00     77488.99
  136.74        2970.50           1496       16200.00     70737.13
  136.77        2970.75           1499       14608.00     63769.22
  136.80        2971.00           1502       13189.00     57560.96
  136.83        2971.25           1506       11407.00     49767.80
  136.86        2971.50           1509        9892.00     43145.18
  136.89        2971.75           1513        7989.00     34830.19
  136.93        2972.00           1516        6553.00     28558.46
  136.96        2972.25           1519        5047.00     21983.54
  136.99        2972.50           1523        3206.00     13949.60
  137.02        2972.75           1526        1906.00      8278.87
  137.05        2973.00           1529         844.00      3647.74
  137.08        2973.25           1533         411.00      1759.90
  137.11        2973.50           1536         306.00      1302.14
  137.14        2973.75           1539         263.00      1114.68
  137.17        2974.00           1543         238.00      1005.70
  137.20        2974.25           1546         168.00       700.54
  137.23        2974.50           1549         128.00       526.16
  137.27        2974.75           1553          83.00       329.99
  137.30        2975.00           1556          65.00       251.53
  137.33        2975.25           1559          62.00       238.45
  137.36        2975.50           1563          59.00       225.37
  137.39        2975.75           1566          57.00       216.65
  137.42        2976.00           1569          53.00       199.22
  137.45        2976.25           1573          48.00       177.42
  137.48        2976.50           1576          53.00       199.22
  137.51        2976.75           1579          54.00       203.58
  137.54        2977.00           1583          59.00       225.37
  137.57        2977.25           1586          56.00       212.29
  137.60        2977.50           1590          56.00       212.29
  137.63        2977.75           1593          52.00       194.86
  137.67        2978.00           1596          47.00       173.06
  137.70        2978.25           1600          56.00       212.29
  137.73        2978.50           1603          55.00       207.94
  137.76        2978.75           1606          48.00       177.42
  137.79        2979.00           1610          50.00       186.14
  137.82        2979.25           1613          47.00       173.06
  137.85        2979.50           1616          49.00       181.78
  137.88        2979.75           1620          48.00       177.42
  137.91        2980.00           1623          63.00       242.81
  137.94        2980.25           1626          50.00       186.14
  137.98        2980.50           1630          59.00       225.37
  138.01        2980.75           1633          51.00       190.50
  138.04        2981.00           1637          49.00       181.78
  138.07        2981.25           1640          47.00       173.06
  138.10        2981.50           1643          57.00       216.65
  138.13        2981.75           1647          53.00       199.22
  138.16        2982.00           1650          47.00       173.06
  138.19        2982.25           1653          50.00       186.14
  138.22        2982.50           1657          84.00       334.35
  138.25        2982.75           1660          45.00       164.34
  138.28        2983.00           1663          49.00       181.78
  138.31        2983.25           1667          45.00       164.34
  138.34        2983.50           1670          49.00       181.78
  138.38        2983.75           1673          47.00       173.06
  138.41        2984.00           1677          60.00       229.73
HS scan finished at 02:18:37
end
************************************************************
  HS Scan of (1) Internal mercury lamp
************************************************************
Integration time is 0.2294 seconds per sample
dh140618Manchester 53.47 2.23 2.857833pr1000
************************************************************
Dead Time -------------------------  3E-08 
Number of Cycles Used -------------  4 
Starting Wavelength (Angstroms) ---  2950 
Final Wavelength (Angstoms) -------  2984 
Wavelength Increment (Angstroms) --  .25 
Filter Wheel #1 Position ---------- (1) Ground quartz diffuser (ND=2.32)
Filter Wheel #2 Position ---------- (1) Neutral Density 0.494



************************************************************
HS scan start time = 21:42:03
Dark Count =  5.4 


Time (GMT)  Wavelength (Ang)  Step Number  Raw Counts  Counts/Second

 1302.41        2950.00           1222          51.00       198.78
 1302.48        2950.25           1226          58.00       229.30
 1302.51        2950.50           1229          59.00       233.65
 1302.54        2950.75           1232          66.00       264.17
 1302.57        2951.00           1236          65.00       259.81
 1302.60        2951.25           1239          55.00       216.22
 1302.63        2951.50           1242          63.00       251.09
 1302.66        2951.75           1246          66.00       264.17
 1302.69        2952.00           1249          57.00       224.94
 1302.73        2952.25           1252          57.00       224.94
 1302.76        2952.50           1256          55.00       216.22
 1302.79        2952.75           1259          60.00       238.01
 1302.82        2953.00           1262          59.00       233.65
 1302.85        2953.25           1266          54.00       211.86
 1302.88        2953.50           1269          54.00       211.86
 1302.91        2953.75           1272          50.00       194.42
 1302.94        2954.00           1276          54.00       211.86
 1302.97        2954.25           1279          50.00       194.42
 1303.00        2954.50           1282          57.00       224.94
 1303.03        2954.75           1286          54.00       211.86
 1303.06        2955.00           1289          60.00       238.01
 1303.09        2955.25           1292          59.00       233.65
 1303.12        2955.50           1296          47.00       181.34
 1303.15        2955.75           1299          54.00       211.86
 1303.18        2956.00           1302          62.00       246.73
 1303.22        2956.25           1306          55.00       216.22
 1303.25        2956.50           1309          54.00       211.86
 1303.28        2956.75           1312          57.00       224.94
 1303.31        2957.00           1316          54.00       211.86
 1303.34        2957.25           1319          63.00       251.09
 1303.37        2957.50           1322          48.00       185.70
 1303.40        2957.75           1326          61.00       242.37
 1303.43        2958.00           1329          58.00       229.30
 1303.46        2958.25           1332          55.00       216.22
 1303.49        2958.50           1336          63.00       251.09
 1303.53        2958.75           1339          56.00       220.58
 1303.56        2959.00           1342          60.00       238.01
 1303.59        2959.25           1346          61.00       242.37
 1303.62        2959.50           1349          68.00       272.89
 1303.65        2959.75           1352          88.00       360.07
 1303.68        2960.00           1356         105.00       434.18
 1303.71        2960.25           1359         127.00       530.09
 1303.74        2960.50           1362         180.00       761.13
 1303.77        2960.75           1366         215.00       913.71
 1303.80        2961.00           1369         253.00      1079.37
 1303.83        2961.25           1372         311.00      1332.22
 1303.86        2961.50           1376         360.00      1545.84
 1303.90        2961.75           1379         493.00      2125.68
 1303.93        2962.00           1382        1055.00      4576.04
 1303.96        2962.25           1386        2577.00     11213.89
 1303.99        2962.50           1389        3974.00     17308.90
 1304.02        2962.75           1392        5276.00     22991.44
 1304.05        2963.00           1396        7091.00     30916.20
 1304.08        2963.25           1399        8377.00     36533.48
 1304.11        2963.50           1402        9886.00     43127.26
 1304.14        2963.75           1406       11991.00     52329.69
 1304.17        2964.00           1409       13397.00     58479.14
 1304.20        2964.25           1412       14842.00     64801.53
 1304.23        2964.50           1416       16561.00     72325.90
 1304.27        2964.75           1419       18168.00     79363.10
 1304.30        2965.00           1422       19562.00     85469.97
 1304.33        2965.25           1426       21313.00     93143.96
 1304.36        2965.50           1429       22783.00     99589.16
 1304.39        2965.75           1432       24164.00    105646.40
 1304.42        2966.00           1436       26007.00    113733.50
 1304.45        2966.25           1439       27518.00    120366.70
 1304.48        2966.50           1442       28861.00    126264.70
 1304.51        2966.75           1446       30444.00    133219.30
 1304.54        2967.00           1449       30839.00    134955.00
 1304.57        2967.25           1452       30869.00    135086.90
 1304.60        2967.50           1456       30947.00    135429.70
 1304.63        2967.75           1459       30903.00    135236.30
 1304.67        2968.00           1462       30889.00    135174.80
 1304.70        2968.25           1466       30188.00    132094.40
 1304.73        2968.50           1469       29089.00    127266.20
 1304.76        2968.75           1472       27745.00    121363.50
 1304.79        2969.00           1476       26078.00    114045.20
 1304.82        2969.25           1479       24509.00    107160.00
 1304.85        2969.50           1482       23120.00    101067.10
 1304.88        2969.75           1486       21119.00     92293.56
 1304.91        2970.00           1489       19597.00     85623.33
 1304.94        2970.25           1492       18358.00     80195.32
 1304.97        2970.50           1496       16559.00     72317.15
 1305.01        2970.75           1499       15142.00     66114.45
 1305.04        2971.00           1502       13778.00     60145.92
 1305.07        2971.25           1506       11886.00     51870.55
 1305.10        2971.50           1509       10599.00     46243.71
 1305.13        2971.75           1513        8520.00     37158.22
 1305.16        2972.00           1516        7103.00     30968.60
 1305.19        2972.25           1519        5600.00     24405.83
 1305.22        2972.50           1523        3704.00     16130.74
 1305.26        2972.75           1526        2395.00     10420.00
 1305.29        2973.00           1529        1121.00      4863.83
 1305.32        2973.25           1533         435.00      1872.82
 1305.35        2973.50           1536         306.00      1310.43
 1305.38        2973.75           1539         259.00      1105.53
 1305.41        2974.00           1543         203.00       861.40
 1305.44        2974.25           1546         148.00       621.63
 1305.47        2974.50           1549         122.00       508.29
 1305.50        2974.75           1553          78.00       316.48
 1305.53        2975.00           1556          63.00       251.09
 1305.56        2975.25           1559          56.00       220.58
 1305.59        2975.50           1563          59.00       233.65
 1305.63        2975.75           1566          51.00       198.78
 1305.66        2976.00           1569          59.00       233.65
 1305.69        2976.25           1573          58.00       229.30
 1305.72        2976.50           1576          55.00       216.22
 1305.75        2976.75           1579          55.00       216.22
 1305.78        2977.00           1583          47.00       181.34
 1305.81        2977.25           1586          50.00       194.42
 1305.84        2977.50           1590          55.00       216.22
 1305.87        2977.75           1593          51.00       198.78
 1305.90        2978.00           1596          46.00       176.98
 1305.93        2978.25           1600          53.00       207.50
 1305.96        2978.50           1603          54.00       211.86
 1305.99        2978.75           1606          48.00       185.70
 1306.03        2979.00           1610          51.00       198.78
 1306.06        2979.25           1613          49.00       190.06
 1306.09        2979.50           1616          54.00       211.86
 1306.12        2979.75           1620          52.00       203.14
 1306.15        2980.00           1623          50.00       194.42
 1306.18        2980.25           1626          50.00       194.42
 1306.21        2980.50           1630          48.00       185.70
 1306.24        2980.75           1633          50.00       194.42
 1306.27        2981.00           1637          52.00       203.14
 1306.30        2981.25           1640          56.00       220.58
 1306.33        2981.50           1643          51.00       198.78
 1306.36        2981.75           1647          49.00       190.06
 1306.39        2982.00           1650          51.00       198.78
 1306.42        2982.25           1653          53.00       207.50
 1306.45        2982.50           1657          52.00       203.14
 1306.49        2982.75           1660          52.00       203.14
 1306.52        2983.00           1663          51.00       198.78
 1306.55        2983.25           1667          48.00       185.70
 1306.58        2983.50           1670          49.00       190.06
 1306.61        2983.75           1673          54.00       211.86
 1306.64        2984.00           1677          52.00       203.14
HS scan finished at 21:46:51
end
