************************************************************
  HS Scan of (1) Internal mercury lamp
************************************************************
Integration time is 0.2294 seconds per sample
dh090619Manchester 53.47 2.23 2.804185pr1000
************************************************************
Dead Time -------------------------  3E-08 
Number of Cycles Used -------------  4 
Starting Wavelength (Angstroms) ---  2950 
Final Wavelength (Angstoms) -------  2984 
Wavelength Increment (Angstroms) --  .25 
Filter Wheel #1 Position ---------- (1) Ground quartz diffuser (ND=2.32)
Filter Wheel #2 Position ---------- (1) Neutral Density 0.494



************************************************************
HS scan start time = 01:22:10
Dark Count =  5.8 


Time (GMT)  Wavelength (Ang)  Step Number  Raw Counts  Counts/Second

   82.53        2950.00           1222          48.00       183.96
   82.60        2950.25           1226          54.00       210.11
   82.63        2950.50           1229          62.00       244.99
   82.66        2950.75           1232          55.00       214.47
   82.69        2951.00           1236          60.00       236.27
   82.72        2951.25           1239          57.00       223.19
   82.75        2951.50           1242          54.00       210.11
   82.78        2951.75           1246          48.00       183.96
   82.81        2952.00           1249          55.00       214.47
   82.84        2952.25           1252          57.00       223.19
   82.87        2952.50           1256          62.00       244.99
   82.90        2952.75           1259          54.00       210.11
   82.94        2953.00           1262          54.00       210.11
   82.97        2953.25           1266          59.00       231.91
   83.00        2953.50           1269          53.00       205.76
   83.03        2953.75           1272          61.00       240.63
   83.06        2954.00           1276          56.00       218.83
   83.09        2954.25           1279          57.00       223.19
   83.12        2954.50           1282          54.00       210.11
   83.15        2954.75           1286          55.00       214.47
   83.18        2955.00           1289          59.00       231.91
   83.21        2955.25           1292          61.00       240.63
   83.25        2955.50           1296          57.00       223.19
   83.28        2955.75           1299          56.00       218.83
   83.31        2956.00           1302          55.00       214.47
   83.34        2956.25           1306          58.00       227.55
   83.37        2956.50           1309          57.00       223.19
   83.40        2956.75           1312          62.00       244.99
   83.43        2957.00           1316          57.00       223.19
   83.46        2957.25           1319          54.00       210.11
   83.49        2957.50           1322          58.00       227.55
   83.52        2957.75           1326          64.00       253.71
   83.55        2958.00           1329          53.00       205.76
   83.59        2958.25           1332          50.00       192.68
   83.62        2958.50           1336          58.00       227.55
   83.65        2958.75           1339          54.00       210.11
   83.68        2959.00           1342          55.00       214.47
   83.71        2959.25           1346          60.00       236.27
   83.74        2959.50           1349          67.00       266.79
   83.77        2959.75           1352          90.00       367.05
   83.80        2960.00           1356         109.00       449.88
   83.83        2960.25           1359         140.00       585.01
   83.86        2960.50           1362         173.00       728.87
   83.90        2960.75           1366         212.00       898.89
   83.93        2961.00           1369         249.00      1060.19
   83.96        2961.25           1372         294.00      1256.37
   83.99        2961.50           1376         349.00      1496.14
   84.02        2961.75           1379         491.00      2115.22
   84.05        2962.00           1382        1017.00      4408.60
   84.08        2962.25           1386        2375.00     10331.01
   84.11        2962.50           1389        3693.00     16080.99
   84.14        2962.75           1392        4965.00     21632.17
   84.17        2963.00           1396        6614.00     28831.38
   84.20        2963.25           1399        7841.00     34190.24
   84.24        2963.50           1402        9172.00     40005.27
   84.27        2963.75           1406       10936.00     47715.17
   84.30        2964.00           1409       12224.00     53346.87
   84.33        2964.25           1412       13552.00     59155.46
   84.36        2964.50           1416       15331.00     66939.88
   84.39        2964.75           1419       16491.00     72017.68
   84.42        2965.00           1422       18050.00     78844.50
   84.45        2965.25           1426       19767.00     86366.47
   84.48        2965.50           1429       21063.00     92046.32
   84.52        2965.75           1432       22363.00     97745.68
   84.55        2966.00           1436       24087.00    105306.90
   84.58        2966.25           1439       25152.00    109979.50
   84.61        2966.50           1442       26366.00    115307.50
   84.64        2966.75           1446       27735.00    121317.80
   84.67        2967.00           1449       27998.00    122472.70
   84.70        2967.25           1452       28124.00    123026.00
   84.73        2967.50           1456       28220.00    123447.60
   84.77        2967.75           1459       28144.00    123113.90
   84.80        2968.00           1462       27966.00    122332.20
   84.83        2968.25           1466       27277.00    119306.80
   84.86        2968.50           1469       26107.00    114170.70
   84.89        2968.75           1472       25013.00    109369.60
   84.92        2969.00           1476       23263.00    101692.50
   84.95        2969.25           1479       21915.00     95781.37
   84.98        2969.50           1482       20733.00     90599.88
   85.01        2969.75           1486       19077.00     83343.25
   85.05        2970.00           1489       17875.00     78078.05
   85.08        2970.25           1492       16546.00     72258.47
   85.11        2970.50           1496       14847.00     64821.67
   85.14        2970.75           1499       13343.00     58241.17
   85.17        2971.00           1502       12116.00     52874.57
   85.20        2971.25           1506       10279.00     44843.21
   85.23        2971.50           1509        8991.00     39214.37
   85.26        2971.75           1513        7270.00     31696.21
   85.29        2972.00           1516        6003.00     26163.51
   85.32        2972.25           1519        4853.00     21143.32
   85.35        2972.50           1523        3140.00     13668.20
   85.38        2972.75           1526        1920.00      8346.47
   85.42        2973.00           1529         887.00      3841.77
   85.45        2973.25           1533         381.00      1635.65
   85.48        2973.50           1536         263.00      1121.22
   85.51        2973.75           1539         220.00       933.77
   85.54        2974.00           1543         182.00       768.11
   85.57        2974.25           1546         153.00       641.69
   85.60        2974.50           1549          98.00       401.92
   85.63        2974.75           1553          76.00       306.02
   85.66        2975.00           1556          53.00       205.76
   85.69        2975.25           1559          56.00       218.83
   85.73        2975.50           1563          55.00       214.47
   85.76        2975.75           1566          52.00       201.40
   85.79        2976.00           1569          58.00       227.55
   85.82        2976.25           1573          55.00       214.47
   85.85        2976.50           1576          47.00       179.60
   85.88        2976.75           1579          55.00       214.47
   85.91        2977.00           1583          56.00       218.83
   85.94        2977.25           1586          62.00       244.99
   85.97        2977.50           1590          60.00       236.27
   86.00        2977.75           1593          57.00       223.19
   86.03        2978.00           1596          44.00       166.52
   86.06        2978.25           1600          50.00       192.68
   86.09        2978.50           1603          50.00       192.68
   86.12        2978.75           1606          63.00       249.35
   86.15        2979.00           1610          51.00       197.04
   86.18        2979.25           1613          52.00       201.40
   86.22        2979.50           1616          48.00       183.96
   86.25        2979.75           1620          53.00       205.76
   86.28        2980.00           1623          60.00       236.27
   86.31        2980.25           1626          51.00       197.04
   86.34        2980.50           1630          44.00       166.52
   86.37        2980.75           1633          54.00       210.11
   86.40        2981.00           1637          50.00       192.68
   86.43        2981.25           1640          46.00       175.24
   86.46        2981.50           1643          58.00       227.55
   86.49        2981.75           1647          55.00       214.47
   86.53        2982.00           1650          50.00       192.68
   86.56        2982.25           1653          45.00       170.88
   86.59        2982.50           1657          44.00       166.52
   86.62        2982.75           1660          56.00       218.83
   86.65        2983.00           1663          51.00       197.04
   86.68        2983.25           1667          44.00       166.52
   86.71        2983.50           1670          54.00       210.11
   86.74        2983.75           1673          46.00       175.24
   86.77        2984.00           1677          50.00       192.68
HS scan finished at 01:27:00
end
************************************************************
  HS Scan of (1) Internal mercury lamp
************************************************************
Integration time is 0.2294 seconds per sample
dh090619Manchester 53.47 2.23 2.804185pr1000
************************************************************
Dead Time -------------------------  3E-08 
Number of Cycles Used -------------  4 
Starting Wavelength (Angstroms) ---  2950 
Final Wavelength (Angstoms) -------  2984 
Wavelength Increment (Angstroms) --  .25 
Filter Wheel #1 Position ---------- (1) Ground quartz diffuser (ND=2.32)
Filter Wheel #2 Position ---------- (1) Neutral Density 0.494



************************************************************
HS scan start time = 21:42:05
Dark Count =  6.7 


Time (GMT)  Wavelength (Ang)  Step Number  Raw Counts  Counts/Second

 1302.45        2950.00           1222          71.00       280.30
 1302.51        2950.25           1226          52.00       197.47
 1302.55        2950.50           1229          64.00       249.78
 1302.58        2950.75           1232          62.00       241.07
 1302.61        2951.00           1236          56.00       214.91
 1302.64        2951.25           1239          55.00       210.55
 1302.67        2951.50           1242          57.00       219.27
 1302.70        2951.75           1246          61.00       236.71
 1302.73        2952.00           1249          62.00       241.07
 1302.76        2952.25           1252          54.00       206.19
 1302.79        2952.50           1256          49.00       184.40
 1302.82        2952.75           1259          55.00       210.55
 1302.85        2953.00           1262          53.00       201.83
 1302.89        2953.25           1266          49.00       184.40
 1302.92        2953.50           1269          54.00       206.19
 1302.95        2953.75           1272          57.00       219.27
 1302.98        2954.00           1276          59.00       227.99
 1303.01        2954.25           1279          60.00       232.35
 1303.04        2954.50           1282          48.00       180.04
 1303.07        2954.75           1286          60.00       232.35
 1303.10        2955.00           1289          52.00       197.47
 1303.13        2955.25           1292          64.00       249.78
 1303.16        2955.50           1296          60.00       232.35
 1303.19        2955.75           1299          57.00       219.27
 1303.22        2956.00           1302          54.00       206.19
 1303.25        2956.25           1306          54.00       206.19
 1303.29        2956.50           1309          64.00       249.78
 1303.32        2956.75           1312          53.00       201.83
 1303.35        2957.00           1316          61.00       236.71
 1303.38        2957.25           1319          48.00       180.04
 1303.41        2957.50           1322          57.00       219.27
 1303.44        2957.75           1326          59.00       227.99
 1303.47        2958.00           1329          47.00       175.68
 1303.50        2958.25           1332          59.00       227.99
 1303.53        2958.50           1336          49.00       184.40
 1303.56        2958.75           1339          51.00       193.11
 1303.59        2959.00           1342          63.00       245.42
 1303.62        2959.25           1346          58.00       223.63
 1303.66        2959.50           1349          60.00       232.35
 1303.69        2959.75           1352          69.00       271.58
 1303.72        2960.00           1356          96.00       389.28
 1303.75        2960.25           1359         119.00       489.55
 1303.78        2960.50           1362         142.00       589.81
 1303.81        2960.75           1366         198.00       833.94
 1303.84        2961.00           1369         236.00       999.59
 1303.87        2961.25           1372         266.00      1130.38
 1303.90        2961.50           1376         318.00      1357.07
 1303.93        2961.75           1379         422.00      1810.47
 1303.96        2962.00           1382         891.00      3855.28
 1303.99        2962.25           1386        2151.00      9350.05
 1304.02        2962.50           1389        3341.00     14541.22
 1304.06        2962.75           1392        4614.00     20096.25
 1304.09        2963.00           1396        6214.00     27080.84
 1304.12        2963.25           1399        7544.00     32889.02
 1304.15        2963.50           1402        8769.00     38240.45
 1304.18        2963.75           1406       10525.00     45914.56
 1304.21        2964.00           1409       11942.00     52109.74
 1304.24        2964.25           1412       13327.00     58167.24
 1304.27        2964.50           1416       15111.00     65973.08
 1304.30        2964.75           1419       16231.00     70875.48
 1304.34        2965.00           1422       17730.00     77439.07
 1304.37        2965.25           1426       19396.00     84736.94
 1304.40        2965.50           1429       20753.00     90683.60
 1304.43        2965.75           1432       22041.00     96329.86
 1304.46        2966.00           1436       23640.00    103342.10
 1304.49        2966.25           1439       25040.00    109484.10
 1304.52        2966.50           1442       26206.00    114601.30
 1304.55        2966.75           1446       27631.00    120857.20
 1304.58        2967.00           1449       27752.00    121388.50
 1304.62        2967.25           1452       27962.00    122310.70
 1304.65        2967.50           1456       27873.00    121919.90
 1304.68        2967.75           1459       27919.00    122121.80
 1304.71        2968.00           1462       27893.00    122007.70
 1304.74        2968.25           1466       27134.00    118675.00
 1304.77        2968.50           1469       26203.00    114588.10
 1304.80        2968.75           1472       24998.00    109299.80
 1304.83        2969.00           1476       23285.00    101785.10
 1304.86        2969.25           1479       22079.00     96496.47
 1304.90        2969.50           1482       20822.00     90986.03
 1304.93        2969.75           1486       18994.00     82975.71
 1304.96        2970.00           1489       17836.00     77903.31
 1304.99        2970.25           1492       16385.00     71549.66
 1305.02        2970.50           1496       14816.00     64682.07
 1305.05        2970.75           1499       13643.00     59549.63
 1305.08        2971.00           1502       12284.00     53605.32
 1305.11        2971.25           1506       10561.00     46071.92
 1305.15        2971.50           1509        9352.00     40787.89
 1305.18        2971.75           1513        7841.00     34186.31
 1305.21        2972.00           1516        6470.00     28198.65
 1305.24        2972.25           1519        5190.00     22610.36
 1305.27        2972.50           1523        3491.00     15195.68
 1305.30        2972.75           1526        2243.00      9751.33
 1305.33        2973.00           1529        1093.00      4736.07
 1305.36        2973.25           1533         423.00      1814.83
 1305.39        2973.50           1536         280.00      1191.41
 1305.42        2973.75           1539         238.00      1008.31
 1305.46        2974.00           1543         200.00       842.65
 1305.49        2974.25           1546         155.00       646.48
 1305.52        2974.50           1549         126.00       520.06
 1305.55        2974.75           1553          84.00       336.97
 1305.58        2975.00           1556          72.00       284.66
 1305.61        2975.25           1559          58.00       223.63
 1305.64        2975.50           1563          53.00       201.83
 1305.67        2975.75           1566          52.00       197.47
 1305.70        2976.00           1569          52.00       197.47
 1305.73        2976.25           1573          44.00       162.60
 1305.77        2976.50           1576          53.00       201.83
 1305.80        2976.75           1579          49.00       184.40
 1305.83        2977.00           1583          51.00       193.11
 1305.86        2977.25           1586          53.00       201.83
 1305.89        2977.50           1590          49.00       184.40
 1305.92        2977.75           1593          49.00       184.40
 1305.95        2978.00           1596          53.00       201.83
 1305.98        2978.25           1600          53.00       201.83
 1306.01        2978.50           1603          49.00       184.40
 1306.04        2978.75           1606          52.00       197.47
 1306.07        2979.00           1610          54.00       206.19
 1306.10        2979.25           1613          55.00       210.55
 1306.14        2979.50           1616          49.00       184.40
 1306.17        2979.75           1620          62.00       241.07
 1306.20        2980.00           1623          47.00       175.68
 1306.23        2980.25           1626          52.00       197.47
 1306.26        2980.50           1630          53.00       201.83
 1306.29        2980.75           1633          51.00       193.11
 1306.32        2981.00           1637          51.00       193.11
 1306.36        2981.25           1640          48.00       180.04
 1306.39        2981.50           1643          52.00       197.47
 1306.42        2981.75           1647          52.00       197.47
 1306.47        2982.00           1650          50.00       188.75
 1306.50        2982.25           1653          54.00       206.19
 1306.53        2982.50           1657          50.00       188.75
 1306.56        2982.75           1660          48.00       180.04
 1306.59        2983.00           1663          50.00       188.75
 1306.62        2983.25           1667          50.00       188.75
 1306.66        2983.50           1670          56.00       214.91
 1306.69        2983.75           1673          56.00       214.91
 1306.72        2984.00           1677          52.00       197.47
HS scan finished at 21:46:56
end
