************************************************************
  HS Scan of (1) Internal mercury lamp
************************************************************
Integration time is 0.2294 seconds per sample
dh150617Manchester 53.47 2.23 2.911481pr1000
************************************************************
Dead Time -------------------------  3E-08 
Number of Cycles Used -------------  4 
Starting Wavelength (Angstroms) ---  2950 
Final Wavelength (Angstoms) -------  2984 
Wavelength Increment (Angstroms) --  .25 
Filter Wheel #1 Position ---------- (1) Ground quartz diffuser (ND=2.32)
Filter Wheel #2 Position ---------- (1) Neutral Density 0.494



************************************************************
HS scan start time = 01:33:08
Dark Count =  6 


Time (GMT)  Wavelength (Ang)  Step Number  Raw Counts  Counts/Second

   93.50        2950.00           1222          47.00       178.73
   93.56        2950.25           1226          48.00       183.09
   93.59        2950.50           1229          50.00       191.81
   93.62        2950.75           1232          42.00       156.93
   93.65        2951.00           1236          44.00       165.65
   93.69        2951.25           1239          41.00       152.57
   93.72        2951.50           1242          45.00       170.01
   93.75        2951.75           1246          43.00       161.29
   93.78        2952.00           1249          44.00       165.65
   93.81        2952.25           1252          45.00       170.01
   93.84        2952.50           1256          45.00       170.01
   93.87        2952.75           1259          47.00       178.73
   93.90        2953.00           1262          42.00       156.93
   93.93        2953.25           1266          48.00       183.09
   93.96        2953.50           1269          50.00       191.81
   93.99        2953.75           1272          44.00       165.65
   94.02        2954.00           1276          45.00       170.01
   94.06        2954.25           1279          48.00       183.09
   94.09        2954.50           1282          38.00       139.49
   94.12        2954.75           1286          47.00       178.73
   94.15        2955.00           1289          45.00       170.01
   94.18        2955.25           1292          45.00       170.01
   94.21        2955.50           1296          38.00       139.49
   94.24        2955.75           1299          54.00       209.24
   94.27        2956.00           1302          46.00       174.37
   94.30        2956.25           1306          50.00       191.81
   94.33        2956.50           1309          43.00       161.29
   94.36        2956.75           1312          47.00       178.73
   94.39        2957.00           1316          48.00       183.09
   94.42        2957.25           1319          48.00       183.09
   94.45        2957.50           1322          41.00       152.57
   94.48        2957.75           1326          39.00       143.85
   94.52        2958.00           1329          44.00       165.65
   94.55        2958.25           1332          46.00       174.37
   94.58        2958.50           1336          39.00       143.85
   94.61        2958.75           1339          44.00       165.65
   94.64        2959.00           1342          45.00       170.01
   94.67        2959.25           1346          50.00       191.81
   94.70        2959.50           1349          59.00       231.04
   94.73        2959.75           1352          72.00       287.71
   94.76        2960.00           1356         103.00       422.85
   94.79        2960.25           1359         136.00       566.71
   94.82        2960.50           1362         172.00       723.64
   94.85        2960.75           1366         230.00       976.49
   94.88        2961.00           1369         291.00      1242.42
   94.92        2961.25           1372         342.00      1464.76
   94.95        2961.50           1376         403.00      1730.69
   94.98        2961.75           1379         563.00      2428.25
   95.01        2962.00           1382        1021.00      4425.17
   95.04        2962.25           1386        2694.00     11721.65
   95.07        2962.50           1389        4342.00     18912.21
   95.10        2962.75           1392        6123.00     26686.57
   95.13        2963.00           1396        8484.00     36998.33
   95.16        2963.25           1399       10191.00     44457.69
   95.19        2963.50           1402       12030.00     52497.62
   95.22        2963.75           1406       14256.00     62234.65
   95.26        2964.00           1409       16277.00     71079.91
   95.29        2964.25           1412       18170.00     79369.24
   95.32        2964.50           1416       20361.00     88968.62
   95.35        2964.75           1419       22023.00     96254.00
   95.38        2965.00           1422       24102.00    105371.80
   95.41        2965.25           1426       26476.00    115789.50
   95.44        2965.50           1429       28465.00    124522.70
   95.47        2965.75           1432       30135.00    131858.90
   95.50        2966.00           1436       32539.00    142425.10
   95.54        2966.25           1439       34157.00    149540.40
   95.57        2966.50           1442       35636.00    156047.00
   95.60        2966.75           1446       37464.00    164092.70
   95.63        2967.00           1449       38330.00    167905.50
   95.66        2967.25           1452       38540.00    168830.30
   95.69        2967.50           1456       38616.00    169165.00
   95.72        2967.75           1459       38593.00    169063.70
   95.75        2968.00           1462       38806.00    170001.70
   95.78        2968.25           1466       37748.00    165343.00
   95.81        2968.50           1469       36587.00    160232.20
   95.84        2968.75           1472       34741.00    152109.30
   95.87        2969.00           1476       32508.00    142288.80
   95.90        2969.25           1479       30732.00    134482.20
   95.94        2969.50           1482       28978.00    126775.90
   95.97        2969.75           1486       26732.00    116913.30
   96.00        2970.00           1489       24957.00    109123.00
   96.03        2970.25           1492       23196.00    101397.80
   96.06        2970.50           1496       20878.00     91234.55
   96.09        2970.75           1499       19071.00     83316.10
   96.12        2971.00           1502       17224.00     75226.25
   96.15        2971.25           1506       14747.00     64383.17
   96.18        2971.50           1509       13028.00     56862.40
   96.22        2971.75           1513       10643.00     46433.42
   96.25        2972.00           1516        8988.00     39200.39
   96.28        2972.25           1519        7236.00     31546.85
   96.31        2972.50           1523        4917.00     21421.79
   96.34        2972.75           1526        3220.00     14016.36
   96.37        2973.00           1529        1738.00      7551.84
   96.40        2973.25           1533         596.00      2572.13
   96.43        2973.50           1536         408.00      1752.49
   96.46        2973.75           1539         324.00      1386.28
   96.49        2974.00           1543         265.00      1129.07
   96.52        2974.25           1546         198.00       836.99
   96.55        2974.50           1549         138.00       575.42
   96.59        2974.75           1553          98.00       401.05
   96.62        2975.00           1556          70.00       278.99
   96.65        2975.25           1559          55.00       213.60
   96.68        2975.50           1563          56.00       217.96
   96.71        2975.75           1566          53.00       204.88
   96.74        2976.00           1569          51.00       196.17
   96.77        2976.25           1573          53.00       204.88
   96.80        2976.50           1576          46.00       174.37
   96.83        2976.75           1579          45.00       170.01
   96.86        2977.00           1583          42.00       156.93
   96.89        2977.25           1586          42.00       156.93
   96.93        2977.50           1590          47.00       178.73
   96.96        2977.75           1593          45.00       170.01
   96.99        2978.00           1596          50.00       191.81
   97.02        2978.25           1600          54.00       209.24
   97.05        2978.50           1603          41.00       152.57
   97.08        2978.75           1606          48.00       183.09
   97.11        2979.00           1610          42.00       156.93
   97.14        2979.25           1613          52.00       200.52
   97.17        2979.50           1616          41.00       152.57
   97.20        2979.75           1620          45.00       170.01
   97.23        2980.00           1623          55.00       213.60
   97.26        2980.25           1626          50.00       191.81
   97.29        2980.50           1630          45.00       170.01
   97.32        2980.75           1633          47.00       178.73
   97.35        2981.00           1637          42.00       156.93
   97.39        2981.25           1640          35.00       126.42
   97.42        2981.50           1643          41.00       152.57
   97.45        2981.75           1647          46.00       174.37
   97.48        2982.00           1650          47.00       178.73
   97.51        2982.25           1653          38.00       139.49
   97.54        2982.50           1657          39.00       143.85
   97.57        2982.75           1660          45.00       170.01
   97.60        2983.00           1663          40.00       148.21
   97.63        2983.25           1667          41.00       152.57
   97.66        2983.50           1670          39.00       143.85
   97.69        2983.75           1673          41.00       152.57
   97.72        2984.00           1677          45.00       170.01
HS scan finished at 01:37:56
end
************************************************************
  HS Scan of (1) Internal mercury lamp
************************************************************
Integration time is 0.2294 seconds per sample
dh150617Manchester 53.47 2.23 2.857833pr1000
************************************************************
Dead Time -------------------------  3E-08 
Number of Cycles Used -------------  4 
Starting Wavelength (Angstroms) ---  2950 
Final Wavelength (Angstoms) -------  2984 
Wavelength Increment (Angstroms) --  .25 
Filter Wheel #1 Position ---------- (1) Ground quartz diffuser (ND=2.32)
Filter Wheel #2 Position ---------- (1) Neutral Density 0.494



************************************************************
HS scan start time = 21:42:04
Dark Count =  7.4 


Time (GMT)  Wavelength (Ang)  Step Number  Raw Counts  Counts/Second

 1302.43        2950.00           1222          49.00       181.34
 1302.50        2950.25           1226          48.00       176.98
 1302.53        2950.50           1229          45.00       163.91
 1302.56        2950.75           1232          44.00       159.55
 1302.59        2951.00           1236          44.00       159.55
 1302.62        2951.25           1239          41.00       146.47
 1302.65        2951.50           1242          45.00       163.91
 1302.68        2951.75           1246          42.00       150.83
 1302.71        2952.00           1249          53.00       198.78
 1302.74        2952.25           1252          49.00       181.34
 1302.77        2952.50           1256          47.00       172.63
 1302.80        2952.75           1259          51.00       190.06
 1302.84        2953.00           1262          45.00       163.91
 1302.87        2953.25           1266          41.00       146.47
 1302.90        2953.50           1269          45.00       163.91
 1302.93        2953.75           1272          41.00       146.47
 1302.96        2954.00           1276          47.00       172.63
 1302.99        2954.25           1279          49.00       181.34
 1303.02        2954.50           1282          47.00       172.63
 1303.05        2954.75           1286          48.00       176.98
 1303.08        2955.00           1289          47.00       172.63
 1303.11        2955.25           1292          46.00       168.27
 1303.14        2955.50           1296          43.00       155.19
 1303.17        2955.75           1299          50.00       185.70
 1303.20        2956.00           1302          46.00       168.27
 1303.23        2956.25           1306          52.00       194.42
 1303.26        2956.50           1309          41.00       146.47
 1303.30        2956.75           1312          49.00       181.34
 1303.33        2957.00           1316          44.00       159.55
 1303.36        2957.25           1319          47.00       172.63
 1303.39        2957.50           1322          41.00       146.47
 1303.42        2957.75           1326          43.00       155.19
 1303.45        2958.00           1329          43.00       155.19
 1303.48        2958.25           1332          41.00       146.47
 1303.51        2958.50           1336          43.00       155.19
 1303.54        2958.75           1339          48.00       176.98
 1303.57        2959.00           1342          55.00       207.50
 1303.60        2959.25           1346          51.00       190.06
 1303.63        2959.50           1349          59.00       224.94
 1303.66        2959.75           1352          84.00       333.92
 1303.70        2960.00           1356         110.00       447.26
 1303.73        2960.25           1359         148.00       612.91
 1303.76        2960.50           1362         189.00       791.65
 1303.79        2960.75           1366         246.00      1040.14
 1303.82        2961.00           1369         293.00      1245.03
 1303.85        2961.25           1372         339.00      1445.57
 1303.88        2961.50           1376         430.00      1842.30
 1303.91        2961.75           1379         613.00      2640.14
 1303.94        2962.00           1382        1253.00      5430.70
 1303.97        2962.25           1386        2969.00     12915.20
 1304.00        2962.50           1389        4738.00     20634.39
 1304.04        2962.75           1392        6317.00     27527.52
 1304.07        2963.00           1396        8460.00     36887.35
 1304.10        2963.25           1399       10225.00     44600.18
 1304.13        2963.50           1402       11854.00     51721.87
 1304.16        2963.75           1406       14290.00     62377.30
 1304.19        2964.00           1409       16075.00     70189.50
 1304.22        2964.25           1412       17850.00     77961.56
 1304.25        2964.50           1416       20182.00     88178.03
 1304.28        2964.75           1419       22007.00     96177.72
 1304.31        2965.00           1422       23588.00    103111.00
 1304.34        2965.25           1426       25829.00    112943.50
 1304.38        2965.50           1429       27510.00    120322.80
 1304.41        2965.75           1432       29253.00    127977.80
 1304.44        2966.00           1436       31532.00    137992.10
 1304.47        2966.25           1439       33283.00    145690.30
 1304.50        2966.50           1442       35234.00    154272.10
 1304.53        2966.75           1446       36513.00    159900.40
 1304.56        2967.00           1449       37176.00    162818.70
 1304.59        2967.25           1452       37282.00    163285.30
 1304.62        2967.50           1456       37434.00    163954.40
 1304.65        2967.75           1459       37305.00    163386.50
 1304.68        2968.00           1462       37445.00    164002.90
 1304.72        2968.25           1466       36275.00    158852.90
 1304.75        2968.50           1469       34684.00    151852.40
 1304.78        2968.75           1472       33374.00    146090.50
 1304.81        2969.00           1476       31075.00    135983.40
 1304.84        2969.25           1479       29506.00    129089.20
 1304.87        2969.50           1482       27388.00    119787.20
 1304.90        2969.75           1486       25127.00    109862.80
 1304.93        2970.00           1489       23395.00    102264.40
 1304.96        2970.25           1492       21734.00     94980.81
 1305.00        2970.50           1496       19642.00     85811.74
 1305.03        2970.75           1499       17905.00     78202.43
 1305.06        2971.00           1502       16057.00     70110.69
 1305.09        2971.25           1506       13876.00     60565.92
 1305.12        2971.50           1509       12203.00     53248.03
 1305.15        2971.75           1513       10006.00     43642.98
 1305.18        2972.00           1516        8102.00     35323.38
 1305.21        2972.25           1519        6391.00     27850.64
 1305.24        2972.50           1523        4132.00     17989.65
 1305.27        2972.75           1526        2553.00     11100.47
 1305.30        2973.00           1529        1134.00      4911.80
 1305.33        2973.25           1533         431.00      1846.66
 1305.37        2973.50           1536         325.00      1384.54
 1305.40        2973.75           1539         275.00      1166.56
 1305.43        2974.00           1543         232.00       979.10
 1305.46        2974.25           1546         161.00       669.59
 1305.49        2974.50           1549         129.00       530.09
 1305.52        2974.75           1553          77.00       303.40
 1305.55        2975.00           1556          60.00       229.30
 1305.58        2975.25           1559          48.00       176.98
 1305.61        2975.50           1563          45.00       163.91
 1305.64        2975.75           1566          44.00       159.55
 1305.67        2976.00           1569          45.00       163.91
 1305.70        2976.25           1573          40.00       142.11
 1305.73        2976.50           1576          51.00       190.06
 1305.77        2976.75           1579          44.00       159.55
 1305.80        2977.00           1583          48.00       176.98
 1305.83        2977.25           1586          46.00       168.27
 1305.86        2977.50           1590          54.00       203.14
 1305.89        2977.75           1593          48.00       176.98
 1305.92        2978.00           1596          41.00       146.47
 1305.95        2978.25           1600          41.00       146.47
 1305.98        2978.50           1603          40.00       142.11
 1306.01        2978.75           1606          41.00       146.47
 1306.04        2979.00           1610          41.00       146.47
 1306.07        2979.25           1613          44.00       159.55
 1306.10        2979.50           1616          49.00       181.34
 1306.13        2979.75           1620          50.00       185.70
 1306.16        2980.00           1623          40.00       142.11
 1306.19        2980.25           1626          42.00       150.83
 1306.22        2980.50           1630          47.00       172.63
 1306.26        2980.75           1633          40.00       142.11
 1306.29        2981.00           1637          48.00       176.98
 1306.32        2981.25           1640          40.00       142.11
 1306.35        2981.50           1643          47.00       172.63
 1306.38        2981.75           1647          51.00       190.06
 1306.41        2982.00           1650          41.00       146.47
 1306.44        2982.25           1653          45.00       163.91
 1306.47        2982.50           1657          35.00       120.31
 1306.50        2982.75           1660          42.00       150.83
 1306.53        2983.00           1663          43.00       155.19
 1306.56        2983.25           1667          49.00       181.34
 1306.60        2983.50           1670          41.00       146.47
 1306.63        2983.75           1673          45.00       163.91
 1306.66        2984.00           1677          52.00       194.42
HS scan finished at 21:46:52
end
