************************************************************
  HS Scan of (1) Internal mercury lamp
************************************************************
Integration time is 0.2294 seconds per sample
dh100618Manchester 53.47 2.23 2.857833pr1000
************************************************************
Dead Time -------------------------  3E-08 
Number of Cycles Used -------------  4 
Starting Wavelength (Angstroms) ---  2950 
Final Wavelength (Angstoms) -------  2984 
Wavelength Increment (Angstroms) --  .25 
Filter Wheel #1 Position ---------- (1) Ground quartz diffuser (ND=2.32)
Filter Wheel #2 Position ---------- (1) Neutral Density 0.494



************************************************************
HS scan start time = 01:24:57
Dark Count =  6.7 


Time (GMT)  Wavelength (Ang)  Step Number  Raw Counts  Counts/Second

   85.32        2950.00           1222          54.00       206.19
   85.39        2950.25           1226          52.00       197.47
   85.42        2950.50           1229          56.00       214.91
   85.45        2950.75           1232          55.00       210.55
   85.48        2951.00           1236          60.00       232.35
   85.51        2951.25           1239          56.00       214.91
   85.54        2951.50           1242          54.00       206.19
   85.57        2951.75           1246          59.00       227.99
   85.61        2952.00           1249          58.00       223.63
   85.64        2952.25           1252          52.00       197.47
   85.67        2952.50           1256          59.00       227.99
   85.70        2952.75           1259          58.00       223.63
   85.73        2953.00           1262          53.00       201.83
   85.76        2953.25           1266          53.00       201.83
   85.79        2953.50           1269          59.00       227.99
   85.82        2953.75           1272          60.00       232.35
   85.85        2954.00           1276          50.00       188.75
   85.88        2954.25           1279          50.00       188.75
   85.91        2954.50           1282          60.00       232.35
   85.94        2954.75           1286          53.00       201.83
   85.97        2955.00           1289          55.00       210.55
   86.01        2955.25           1292          59.00       227.99
   86.04        2955.50           1296          60.00       232.35
   86.07        2955.75           1299          58.00       223.63
   86.10        2956.00           1302          66.00       258.50
   86.13        2956.25           1306          47.00       175.68
   86.16        2956.50           1309          53.00       201.83
   86.19        2956.75           1312          50.00       188.75
   86.22        2957.00           1316          63.00       245.42
   86.25        2957.25           1319          63.00       245.42
   86.28        2957.50           1322          55.00       210.55
   86.31        2957.75           1326          61.00       236.71
   86.34        2958.00           1329          56.00       214.91
   86.38        2958.25           1332          61.00       236.71
   86.41        2958.50           1336          58.00       223.63
   86.44        2958.75           1339          51.00       193.11
   86.47        2959.00           1342          62.00       241.07
   86.50        2959.25           1346          57.00       219.27
   86.53        2959.50           1349          60.00       232.35
   86.56        2959.75           1352          81.00       323.89
   86.59        2960.00           1356         107.00       437.23
   86.62        2960.25           1359         145.00       602.89
   86.65        2960.50           1362         156.00       650.84
   86.68        2960.75           1366         205.00       864.45
   86.72        2961.00           1369         250.00      1060.63
   86.75        2961.25           1372         288.00      1226.29
   86.78        2961.50           1376         374.00      1601.21
   86.81        2961.75           1379         630.00      2717.31
   86.84        2962.00           1382        1497.00      6497.78
   86.87        2962.25           1386        3247.00     14131.10
   86.90        2962.50           1389        4674.00     20358.11
   86.93        2962.75           1392        6055.00     26386.62
   86.96        2963.00           1396        7810.00     34050.90
   87.00        2963.25           1399        9375.00     40888.40
   87.03        2963.50           1402       10763.00     46954.94
   87.06        2963.75           1406       12656.00     55232.24
   87.09        2964.00           1409       14200.00     61986.57
   87.12        2964.25           1412       15707.00     68581.68
   87.15        2964.50           1416       17585.00     76804.06
   87.18        2964.75           1419       18971.00     82874.93
   87.21        2965.00           1422       20765.00     90736.21
   87.24        2965.25           1426       22777.00     99557.16
   87.28        2965.50           1429       24178.00    105702.10
   87.31        2965.75           1432       25497.00    111489.50
   87.34        2966.00           1436       27531.00    120418.10
   87.37        2966.25           1439       28966.00    126720.20
   87.40        2966.50           1442       30081.00    131618.50
   87.43        2966.75           1446       31153.00    136329.30
   87.46        2967.00           1449       31278.00    136878.70
   87.49        2967.25           1452       31333.00    137120.50
   87.52        2967.50           1456       31206.00    136562.30
   87.56        2967.75           1459       31221.00    136628.20
   87.59        2968.00           1462       30896.00    135199.80
   87.62        2968.25           1466       29666.00    129795.20
   87.65        2968.50           1469       28354.00    124032.20
   87.68        2968.75           1472       26898.00    117638.90
   87.71        2969.00           1476       25118.00    109826.40
   87.74        2969.25           1479       23727.00    103723.80
   87.77        2969.50           1482       22334.00     97614.57
   87.80        2969.75           1486       20448.00     89346.84
   87.84        2970.00           1489       19075.00     83330.56
   87.87        2970.25           1492       17771.00     77618.63
   87.90        2970.50           1496       15686.00     68489.76
   87.93        2970.75           1499       14183.00     61912.19
   87.96        2971.00           1502       12729.00     55551.53
   87.99        2971.25           1506       10693.00     46648.94
   88.02        2971.50           1509        9159.00     39944.52
   88.05        2971.75           1513        7468.00     32557.07
   88.08        2972.00           1516        6031.00     26281.83
   88.11        2972.25           1519        4584.00     19965.31
   88.14        2972.50           1523        2776.00     12076.30
   88.18        2972.75           1526        1517.00      6585.00
   88.21        2973.00           1529         613.00      2643.19
   88.24        2973.25           1533         353.00      1509.66
   88.27        2973.50           1536         285.00      1213.21
   88.30        2973.75           1539         242.00      1025.75
   88.33        2974.00           1543         196.00       825.22
   88.36        2974.25           1546         151.00       629.04
   88.39        2974.50           1549         114.00       467.75
   88.42        2974.75           1553          77.00       306.45
   88.45        2975.00           1556          70.00       275.94
   88.48        2975.25           1559          66.00       258.50
   88.52        2975.50           1563          56.00       214.91
   88.55        2975.75           1566          52.00       197.47
   88.58        2976.00           1569          55.00       210.55
   88.61        2976.25           1573          51.00       193.11
   88.64        2976.50           1576          55.00       210.55
   88.67        2976.75           1579          59.00       227.99
   88.70        2977.00           1583          58.00       223.63
   88.73        2977.25           1586          49.00       184.40
   88.76        2977.50           1590          46.00       171.32
   88.79        2977.75           1593          55.00       210.55
   88.82        2978.00           1596          60.00       232.35
   88.86        2978.25           1600          53.00       201.83
   88.89        2978.50           1603          58.00       223.63
   88.92        2978.75           1606          53.00       201.83
   88.95        2979.00           1610          57.00       219.27
   88.98        2979.25           1613          54.00       206.19
   89.01        2979.50           1616          53.00       201.83
   89.04        2979.75           1620          61.00       236.71
   89.07        2980.00           1623          51.00       193.11
   89.10        2980.25           1626          51.00       193.11
   89.13        2980.50           1630          51.00       193.11
   89.17        2980.75           1633          56.00       214.91
   89.20        2981.00           1637          51.00       193.11
   89.23        2981.25           1640          43.00       158.24
   89.26        2981.50           1643          59.00       227.99
   89.29        2981.75           1647          46.00       171.32
   89.32        2982.00           1650          59.00       227.99
   89.35        2982.25           1653          56.00       214.91
   89.38        2982.50           1657          49.00       184.40
   89.41        2982.75           1660          61.00       236.71
   89.44        2983.00           1663          56.00       214.91
   89.48        2983.25           1667          51.00       193.11
   89.51        2983.50           1670          41.00       149.52
   89.54        2983.75           1673          50.00       188.75
   89.57        2984.00           1677          50.00       188.75
HS scan finished at 01:29:47
end
************************************************************
  HS Scan of (1) Internal mercury lamp
************************************************************
Integration time is 0.2294 seconds per sample
dh100618Manchester 53.47 2.23 2.965129pr1000
************************************************************
Dead Time -------------------------  3E-08 
Number of Cycles Used -------------  4 
Starting Wavelength (Angstroms) ---  2950 
Final Wavelength (Angstoms) -------  2984 
Wavelength Increment (Angstroms) --  .25 
Filter Wheel #1 Position ---------- (1) Ground quartz diffuser (ND=2.32)
Filter Wheel #2 Position ---------- (1) Neutral Density 0.494



************************************************************
HS scan start time = 21:42:03
Dark Count =  6 


Time (GMT)  Wavelength (Ang)  Step Number  Raw Counts  Counts/Second

 1302.41        2950.00           1222          66.00       261.55
 1302.48        2950.25           1226          59.00       231.04
 1302.51        2950.50           1229          56.00       217.96
 1302.54        2950.75           1232          67.00       265.91
 1302.57        2951.00           1236          64.00       252.84
 1302.60        2951.25           1239          62.00       244.12
 1302.63        2951.50           1242          69.00       274.63
 1302.66        2951.75           1246          59.00       231.04
 1302.70        2952.00           1249          54.00       209.24
 1302.73        2952.25           1252          53.00       204.88
 1302.76        2952.50           1256          50.00       191.81
 1302.79        2952.75           1259          56.00       217.96
 1302.82        2953.00           1262          64.00       252.84
 1302.85        2953.25           1266          55.00       213.60
 1302.88        2953.50           1269          55.00       213.60
 1302.91        2953.75           1272          47.00       178.73
 1302.94        2954.00           1276          53.00       204.88
 1302.97        2954.25           1279          57.00       222.32
 1303.01        2954.50           1282          62.00       244.12
 1303.04        2954.75           1286          58.00       226.68
 1303.07        2955.00           1289          62.00       244.12
 1303.10        2955.25           1292          56.00       217.96
 1303.13        2955.50           1296          57.00       222.32
 1303.16        2955.75           1299          52.00       200.52
 1303.19        2956.00           1302          61.00       239.76
 1303.22        2956.25           1306          53.00       204.88
 1303.25        2956.50           1309          61.00       239.76
 1303.28        2956.75           1312          50.00       191.81
 1303.31        2957.00           1316          61.00       239.76
 1303.35        2957.25           1319          56.00       217.96
 1303.38        2957.50           1322          60.00       235.40
 1303.41        2957.75           1326          53.00       204.88
 1303.44        2958.00           1329          57.00       222.32
 1303.47        2958.25           1332          60.00       235.40
 1303.50        2958.50           1336          48.00       183.09
 1303.53        2958.75           1339          55.00       213.60
 1303.56        2959.00           1342          54.00       209.24
 1303.59        2959.25           1346          61.00       239.76
 1303.62        2959.50           1349          65.00       257.19
 1303.65        2959.75           1352          81.00       326.94
 1303.68        2960.00           1356         108.00       444.64
 1303.72        2960.25           1359         139.00       579.78
 1303.75        2960.50           1362         155.00       649.53
 1303.78        2960.75           1366         227.00       963.41
 1303.81        2961.00           1369         272.00      1159.59
 1303.84        2961.25           1372         308.00      1316.53
 1303.87        2961.50           1376         354.00      1517.07
 1303.90        2961.75           1379         490.00      2109.99
 1303.93        2962.00           1382        1044.00      4525.46
 1303.96        2962.25           1386        2661.00     11577.69
 1303.99        2962.50           1389        4142.00     18039.40
 1304.03        2962.75           1392        5546.00     24167.47
 1304.06        2963.00           1396        7498.00     32691.16
 1304.09        2963.25           1399        8990.00     39209.13
 1304.12        2963.50           1402       10443.00     45559.18
 1304.15        2963.75           1406       12583.00     54916.03
 1304.18        2964.00           1409       14162.00     61823.37
 1304.21        2964.25           1412       15897.00     69416.43
 1304.24        2964.50           1416       17701.00     77315.13
 1304.27        2964.75           1419       19163.00     83719.16
 1304.31        2965.00           1422       20736.00     90612.15
 1304.34        2965.25           1426       22698.00     99213.78
 1304.37        2965.50           1429       24069.00    105227.00
 1304.40        2965.75           1432       25767.00    112677.50
 1304.43        2966.00           1436       27535.00    120438.70
 1304.46        2966.25           1439       29087.00    127254.70
 1304.49        2966.50           1442       30517.00    133537.40
 1304.52        2966.75           1446       32167.00    140789.60
 1304.55        2967.00           1449       32595.00    142671.30
 1304.59        2967.25           1452       32813.00    143629.80
 1304.62        2967.50           1456       32717.00    143207.70
 1304.65        2967.75           1459       32713.00    143190.10
 1304.68        2968.00           1462       32468.00    142112.90
 1304.71        2968.25           1466       31814.00    139237.80
 1304.74        2968.50           1469       30521.00    133555.00
 1304.77        2968.75           1472       29286.00    128128.90
 1304.80        2969.00           1476       27075.00    118419.10
 1304.83        2969.25           1479       25574.00    111830.50
 1304.87        2969.50           1482       24079.00    105270.90
 1304.90        2969.75           1486       21990.00     96109.33
 1304.93        2970.00           1489       20559.00     89836.39
 1304.96        2970.25           1492       19095.00     83421.25
 1304.99        2970.50           1496       17250.00     75340.10
 1305.02        2970.75           1499       15809.00     69031.22
 1305.05        2971.00           1502       14281.00     62344.05
 1305.08        2971.25           1506       12189.00     53192.93
 1305.11        2971.50           1509       10684.00     46612.65
 1305.15        2971.75           1513        8733.00     38086.22
 1305.18        2972.00           1516        7196.00     31372.15
 1305.21        2972.25           1519        5661.00     24669.52
 1305.24        2972.50           1523        3629.00     15800.86
 1305.27        2972.75           1526        2256.00      9811.08
 1305.30        2973.00           1529        1019.00      4416.45
 1305.33        2973.25           1533         411.00      1765.57
 1305.36        2973.50           1536         307.00      1312.17
 1305.39        2973.75           1539         249.00      1059.32
 1305.43        2974.00           1543         219.00       928.54
 1305.46        2974.25           1546         160.00       671.33
 1305.49        2974.50           1549         124.00       514.39
 1305.52        2974.75           1553          81.00       326.94
 1305.55        2975.00           1556          66.00       261.55
 1305.58        2975.25           1559          55.00       213.60
 1305.61        2975.50           1563          55.00       213.60
 1305.64        2975.75           1566          52.00       200.52
 1305.67        2976.00           1569          51.00       196.17
 1305.70        2976.25           1573          54.00       209.24
 1305.74        2976.50           1576          55.00       213.60
 1305.77        2976.75           1579          45.00       170.01
 1305.80        2977.00           1583          54.00       209.24
 1305.83        2977.25           1586          51.00       196.17
 1305.86        2977.50           1590          47.00       178.73
 1305.89        2977.75           1593          50.00       191.81
 1305.92        2978.00           1596          57.00       222.32
 1305.95        2978.25           1600          52.00       200.52
 1305.98        2978.50           1603          52.00       200.52
 1306.02        2978.75           1606          54.00       209.24
 1306.05        2979.00           1610          51.00       196.17
 1306.08        2979.25           1613          52.00       200.52
 1306.11        2979.50           1616          44.00       165.65
 1306.14        2979.75           1620          53.00       204.88
 1306.17        2980.00           1623          53.00       204.88
 1306.20        2980.25           1626          50.00       191.81
 1306.23        2980.50           1630          57.00       222.32
 1306.26        2980.75           1633          58.00       226.68
 1306.29        2981.00           1637          54.00       209.24
 1306.33        2981.25           1640          51.00       196.17
 1306.36        2981.50           1643          49.00       187.45
 1306.39        2981.75           1647          51.00       196.17
 1306.42        2982.00           1650          58.00       226.68
 1306.45        2982.25           1653          47.00       178.73
 1306.48        2982.50           1657          54.00       209.24
 1306.51        2982.75           1660          46.00       174.37
 1306.54        2983.00           1663          50.00       191.81
 1306.57        2983.25           1667          46.00       174.37
 1306.60        2983.50           1670          63.00       248.48
 1306.64        2983.75           1673          53.00       204.88
 1306.67        2984.00           1677          57.00       222.32
HS scan finished at 21:46:53
end
