************************************************************
  HS Scan of (1) Internal mercury lamp
************************************************************
Integration time is 0.2294 seconds per sample
dh180617Manchester 53.47 2.23 2.965129pr1000
************************************************************
Dead Time -------------------------  3E-08 
Number of Cycles Used -------------  4 
Starting Wavelength (Angstroms) ---  2950 
Final Wavelength (Angstoms) -------  2984 
Wavelength Increment (Angstroms) --  .25 
Filter Wheel #1 Position ---------- (1) Ground quartz diffuser (ND=2.32)
Filter Wheel #2 Position ---------- (1) Neutral Density 0.494



************************************************************
HS scan start time = 01:38:08
Dark Count =  6.8 


Time (GMT)  Wavelength (Ang)  Step Number  Raw Counts  Counts/Second

   98.50        2950.00           1222          46.00       170.88
   98.57        2950.25           1226          53.00       201.40
   98.60        2950.50           1229          37.00       131.65
   98.63        2950.75           1232          41.00       149.09
   98.66        2951.00           1236          49.00       183.96
   98.69        2951.25           1239          54.00       205.76
   98.72        2951.50           1242          40.00       144.73
   98.75        2951.75           1246          44.00       162.16
   98.78        2952.00           1249          43.00       157.80
   98.81        2952.25           1252          53.00       201.40
   98.84        2952.50           1256          44.00       162.16
   98.87        2952.75           1259          42.00       153.44
   98.90        2953.00           1262          42.00       153.44
   98.93        2953.25           1266          38.00       136.01
   98.97        2953.50           1269          57.00       218.83
   99.00        2953.75           1272          39.00       140.37
   99.03        2954.00           1276          45.00       166.52
   99.06        2954.25           1279          46.00       170.88
   99.09        2954.50           1282          39.00       140.37
   99.12        2954.75           1286          46.00       170.88
   99.15        2955.00           1289          40.00       144.73
   99.18        2955.25           1292          55.00       210.11
   99.21        2955.50           1296          44.00       162.16
   99.24        2955.75           1299          35.00       122.93
   99.28        2956.00           1302          47.00       175.24
   99.31        2956.25           1306          37.00       131.65
   99.34        2956.50           1309          47.00       175.24
   99.37        2956.75           1312          45.00       166.52
   99.40        2957.00           1316          43.00       157.80
   99.43        2957.25           1319          42.00       153.44
   99.46        2957.50           1322          45.00       166.52
   99.49        2957.75           1326          45.00       166.52
   99.52        2958.00           1329          42.00       153.44
   99.55        2958.25           1332          40.00       144.73
   99.58        2958.50           1336          44.00       162.16
   99.61        2958.75           1339          46.00       170.88
   99.64        2959.00           1342          51.00       192.68
   99.67        2959.25           1346          47.00       175.24
   99.70        2959.50           1349          48.00       179.60
   99.73        2959.75           1352          66.00       258.07
   99.76        2960.00           1356         119.00       489.11
   99.80        2960.25           1359         157.00       654.76
   99.83        2960.50           1362         184.00       772.47
   99.86        2960.75           1366         256.00      1086.35
   99.89        2961.00           1369         318.00      1356.64
   99.92        2961.25           1372         352.00      1504.86
   99.95        2961.50           1376         509.00      2189.33
   99.98        2961.75           1379         837.00      3619.40
  100.01        2962.00           1382        1798.00      7810.03
  100.04        2962.25           1386        3977.00     17315.88
  100.07        2962.50           1389        5795.00     25251.03
  100.10        2962.75           1392        7570.00     33002.15
  100.14        2963.00           1396        9713.00     42365.06
  100.17        2963.25           1399       11417.00     49813.71
  100.20        2963.50           1402       13312.00     58101.19
  100.23        2963.75           1406       15993.00     69833.16
  100.26        2964.00           1409       17736.00     77464.91
  100.29        2964.25           1412       19785.00     86440.96
  100.32        2964.50           1416       22407.00     97934.22
  100.35        2964.75           1419       24214.00    105859.60
  100.38        2965.00           1422       26247.00    114780.80
  100.41        2965.25           1426       28708.00    125586.50
  100.45        2965.50           1429       30714.00    134399.60
  100.48        2965.75           1432       32614.00    142751.30
  100.51        2966.00           1436       35098.00    153676.40
  100.54        2966.25           1439       36514.00    159907.40
  100.57        2966.50           1442       38326.00    167884.40
  100.60        2966.75           1446       39772.00    174252.90
  100.63        2967.00           1449       40106.00    175724.30
  100.66        2967.25           1452       39946.00    175019.40
  100.69        2967.50           1456       39961.00    175085.50
  100.72        2967.75           1459       40126.00    175812.40
  100.76        2968.00           1462       39441.00    172794.90
  100.79        2968.25           1466       38032.00    166589.90
  100.82        2968.50           1469       36606.00    160312.30
  100.85        2968.75           1472       34830.00    152497.30
  100.88        2969.00           1476       32832.00    143709.80
  100.91        2969.25           1479       30846.00    134979.70
  100.94        2969.50           1482       29137.00    127470.80
  100.97        2969.75           1486       26687.00    116712.20
  101.00        2970.00           1489       24734.00    108141.00
  101.03        2970.25           1492       22955.00    100337.30
  101.06        2970.50           1496       20362.00     88969.50
  101.09        2970.75           1499       18673.00     81569.03
  101.12        2971.00           1502       16824.00     73471.27
  101.15        2971.25           1506       14219.00     62069.27
  101.19        2971.50           1509       12240.00     53412.46
  101.22        2971.75           1513        9711.00     42356.32
  101.25        2972.00           1516        8072.00     35194.95
  101.28        2972.25           1519        6244.00     27211.40
  101.31        2972.50           1523        4013.00     17472.98
  101.34        2972.75           1526        2507.00     10902.43
  101.37        2973.00           1529        1319.00      5721.12
  101.40        2973.25           1533         491.00      2110.86
  101.43        2973.50           1536         387.00      1657.45
  101.46        2973.75           1539         311.00      1326.12
  101.49        2974.00           1543         257.00      1090.71
  101.52        2974.25           1546         186.00       781.19
  101.55        2974.50           1549         140.00       580.66
  101.59        2974.75           1553          85.00       340.89
  101.62        2975.00           1556          64.00       249.35
  101.65        2975.25           1559          60.00       231.91
  101.68        2975.50           1563          49.00       183.96
  101.71        2975.75           1566          46.00       170.88
  101.74        2976.00           1569          42.00       153.44
  101.77        2976.25           1573          45.00       166.52
  101.80        2976.50           1576          44.00       162.16
  101.83        2976.75           1579          46.00       170.88
  101.86        2977.00           1583          46.00       170.88
  101.89        2977.25           1586          41.00       149.09
  101.93        2977.50           1590          40.00       144.73
  101.96        2977.75           1593          48.00       179.60
  101.99        2978.00           1596          50.00       188.32
  102.02        2978.25           1600          39.00       140.37
  102.05        2978.50           1603          43.00       157.80
  102.08        2978.75           1606          48.00       179.60
  102.11        2979.00           1610          43.00       157.80
  102.14        2979.25           1613          41.00       149.09
  102.17        2979.50           1616          45.00       166.52
  102.20        2979.75           1620          45.00       166.52
  102.23        2980.00           1623          49.00       183.96
  102.26        2980.25           1626          42.00       153.44
  102.29        2980.50           1630          43.00       157.80
  102.33        2980.75           1633          36.00       127.29
  102.36        2981.00           1637          40.00       144.73
  102.39        2981.25           1640          39.00       140.37
  102.42        2981.50           1643          46.00       170.88
  102.45        2981.75           1647          44.00       162.16
  102.48        2982.00           1650          34.00       118.57
  102.51        2982.25           1653          45.00       166.52
  102.54        2982.50           1657          45.00       166.52
  102.57        2982.75           1660          45.00       166.52
  102.60        2983.00           1663          42.00       153.44
  102.63        2983.25           1667          39.00       140.37
  102.66        2983.50           1670          42.00       153.44
  102.69        2983.75           1673          35.00       122.93
  102.73        2984.00           1677          37.00       131.65
HS scan finished at 01:42:57
end
************************************************************
  HS Scan of (1) Internal mercury lamp
************************************************************
Integration time is 0.2294 seconds per sample
dh180617Manchester 53.47 2.23 3.233369pr1000
************************************************************
Dead Time -------------------------  3E-08 
Number of Cycles Used -------------  4 
Starting Wavelength (Angstroms) ---  2950 
Final Wavelength (Angstoms) -------  2984 
Wavelength Increment (Angstroms) --  .25 
Filter Wheel #1 Position ---------- (1) Ground quartz diffuser (ND=2.32)
Filter Wheel #2 Position ---------- (1) Neutral Density 0.494



************************************************************
HS scan start time = 21:43:20
Dark Count =  7.4 


Time (GMT)  Wavelength (Ang)  Step Number  Raw Counts  Counts/Second

 1303.70        2950.00           1222          38.00       133.39
 1303.77        2950.25           1226          45.00       163.91
 1303.80        2950.50           1229          39.00       137.75
 1303.83        2950.75           1232          44.00       159.55
 1303.86        2951.00           1236          39.00       137.75
 1303.90        2951.25           1239          41.00       146.47
 1303.93        2951.50           1242          39.00       137.75
 1303.96        2951.75           1246          39.00       137.75
 1303.99        2952.00           1249          48.00       176.98
 1304.02        2952.25           1252          44.00       159.55
 1304.05        2952.50           1256          42.00       150.83
 1304.08        2952.75           1259          36.00       124.67
 1304.11        2953.00           1262          39.00       137.75
 1304.14        2953.25           1266          43.00       155.19
 1304.17        2953.50           1269          32.00       107.24
 1304.20        2953.75           1272          42.00       150.83
 1304.24        2954.00           1276          43.00       155.19
 1304.27        2954.25           1279          38.00       133.39
 1304.30        2954.50           1282          54.00       203.14
 1304.33        2954.75           1286          39.00       137.75
 1304.36        2955.00           1289          39.00       137.75
 1304.39        2955.25           1292          37.00       129.03
 1304.42        2955.50           1296          46.00       168.27
 1304.45        2955.75           1299          50.00       185.70
 1304.48        2956.00           1302          40.00       142.11
 1304.51        2956.25           1306          42.00       150.83
 1304.55        2956.50           1309          39.00       137.75
 1304.58        2956.75           1312          40.00       142.11
 1304.61        2957.00           1316          42.00       150.83
 1304.64        2957.25           1319          44.00       159.55
 1304.67        2957.50           1322          47.00       172.63
 1304.70        2957.75           1326          44.00       159.55
 1304.73        2958.00           1329          43.00       155.19
 1304.76        2958.25           1332          52.00       194.42
 1304.79        2958.50           1336          41.00       146.47
 1304.82        2958.75           1339          42.00       150.83
 1304.86        2959.00           1342          48.00       176.98
 1304.89        2959.25           1346          54.00       203.14
 1304.92        2959.50           1349          62.00       238.01
 1304.95        2959.75           1352          81.00       320.84
 1304.98        2960.00           1356         125.00       512.65
 1305.01        2960.25           1359         173.00       721.90
 1305.04        2960.50           1362         228.00       961.67
 1305.07        2960.75           1366         286.00      1214.52
 1305.10        2961.00           1369         346.00      1476.09
 1305.13        2961.25           1372         382.00      1633.04
 1305.17        2961.50           1376         495.00      2125.68
 1305.20        2961.75           1379         677.00      2919.17
 1305.23        2962.00           1382        1294.00      5609.49
 1305.26        2962.25           1386        3290.00     14315.65
 1305.29        2962.50           1389        5197.00     22637.86
 1305.32        2962.75           1392        7177.00     31283.05
 1305.35        2963.00           1396        9913.00     43236.52
 1305.38        2963.25           1399       11841.00     51665.02
 1305.41        2963.50           1402       14000.00     61108.44
 1305.45        2963.75           1406       16569.00     72352.16
 1305.48        2964.00           1409       18684.00     81614.58
 1305.51        2964.25           1412       20676.00     90343.03
 1305.54        2964.50           1416       23692.00    103567.10
 1305.57        2964.75           1419       25706.00    112403.70
 1305.60        2965.00           1422       27775.00    121486.40
 1305.63        2965.25           1426       30671.00    134208.00
 1305.66        2965.50           1429       32841.00    143746.70
 1305.69        2965.75           1432       35088.00    153629.70
 1305.73        2966.00           1436       37387.00    163747.50
 1305.76        2966.25           1439       39462.00    172884.80
 1305.79        2966.50           1442       41441.00    181604.00
 1305.82        2966.75           1446       43509.00    190720.20
 1305.85        2967.00           1449       44144.00    193520.40
 1305.88        2967.25           1452       44146.00    193529.30
 1305.91        2967.50           1456       44209.00    193807.10
 1305.94        2967.75           1459       44328.00    194331.90
 1305.97        2968.00           1462       44145.00    193524.90
 1306.01        2968.25           1466       43160.00    189181.40
 1306.04        2968.50           1469       41537.00    182027.10
 1306.07        2968.75           1472       39672.00    173809.80
 1306.10        2969.00           1476       36734.00    160873.10
 1306.13        2969.25           1479       34716.00    151993.20
 1306.16        2969.50           1482       32616.00    142757.40
 1306.19        2969.75           1486       29945.00    131017.90
 1306.22        2970.00           1489       27877.00    121934.30
 1306.26        2970.25           1492       25901.00    113259.50
 1306.29        2970.50           1496       23320.00    101935.50
 1306.32        2970.75           1499       21474.00     93840.97
 1306.35        2971.00           1502       19390.00     84707.58
 1306.38        2971.25           1506       16899.00     73797.03
 1306.41        2971.50           1509       15003.00     65497.36
 1306.44        2971.75           1513       12167.00     53090.59
 1306.47        2972.00           1516        9920.00     43267.11
 1306.50        2972.25           1519        7803.00     34017.26
 1306.53        2972.50           1523        5092.00     22179.53
 1306.56        2972.75           1526        3068.00     13347.11
 1306.60        2973.00           1529        1526.00      6621.19
 1306.63        2973.25           1533         579.00      2491.90
 1306.66        2973.50           1536         402.00      1720.23
 1306.69        2973.75           1539         319.00      1358.38
 1306.72        2974.00           1543         257.00      1088.09
 1306.75        2974.25           1546         197.00       826.52
 1306.78        2974.50           1549         135.00       556.24
 1306.81        2974.75           1553          94.00       377.51
 1306.84        2975.00           1556          66.00       255.45
 1306.88        2975.25           1559          61.00       233.65
 1306.91        2975.50           1563          47.00       172.63
 1306.94        2975.75           1566          48.00       176.98
 1306.97        2976.00           1569          46.00       168.27
 1307.00        2976.25           1573          48.00       176.98
 1307.03        2976.50           1576          45.00       163.91
 1307.06        2976.75           1579          43.00       155.19
 1307.09        2977.00           1583          46.00       168.27
 1307.12        2977.25           1586          48.00       176.98
 1307.15        2977.50           1590          46.00       168.27
 1307.19        2977.75           1593          41.00       146.47
 1307.22        2978.00           1596          41.00       146.47
 1307.25        2978.25           1600          38.00       133.39
 1307.28        2978.50           1603          46.00       168.27
 1307.31        2978.75           1606          44.00       159.55
 1307.34        2979.00           1610          45.00       163.91
 1307.37        2979.25           1613          42.00       150.83
 1307.40        2979.50           1616          46.00       168.27
 1307.43        2979.75           1620          38.00       133.39
 1307.46        2980.00           1623          40.00       142.11
 1307.49        2980.25           1626          46.00       168.27
 1307.53        2980.50           1630          38.00       133.39
 1307.56        2980.75           1633          47.00       172.63
 1307.59        2981.00           1637          39.00       137.75
 1307.62        2981.25           1640          38.00       133.39
 1307.65        2981.50           1643          43.00       155.19
 1307.68        2981.75           1647          39.00       137.75
 1307.71        2982.00           1650          38.00       133.39
 1307.74        2982.25           1653          43.00       155.19
 1307.78        2982.50           1657          45.00       163.91
 1307.81        2982.75           1660          43.00       155.19
 1307.84        2983.00           1663          37.00       129.03
 1307.87        2983.25           1667          45.00       163.91
 1307.90        2983.50           1670          44.00       159.55
 1307.93        2983.75           1673          35.00       120.31
 1307.96        2984.00           1677          39.00       137.75
HS scan finished at 21:48:11
end
