************************************************************
  HS Scan of (1) Internal mercury lamp
************************************************************
Integration time is 0.2294 seconds per sample
dh160618Manchester 53.47 2.23 2.804185pr1000
************************************************************
Dead Time -------------------------  3E-08 
Number of Cycles Used -------------  4 
Starting Wavelength (Angstroms) ---  2950 
Final Wavelength (Angstoms) -------  2984 
Wavelength Increment (Angstroms) --  .25 
Filter Wheel #1 Position ---------- (1) Ground quartz diffuser (ND=2.32)
Filter Wheel #2 Position ---------- (1) Neutral Density 0.494



************************************************************
HS scan start time = 01:23:55
Dark Count =  6.7 


Time (GMT)  Wavelength (Ang)  Step Number  Raw Counts  Counts/Second

   84.29        2950.00           1222          54.00       206.19
   84.36        2950.25           1226          52.00       197.47
   84.39        2950.50           1229          57.00       219.27
   84.42        2950.75           1232          59.00       227.99
   84.45        2951.00           1236          66.00       258.50
   84.48        2951.25           1239          56.00       214.91
   84.51        2951.50           1242          58.00       223.63
   84.54        2951.75           1246          61.00       236.71
   84.57        2952.00           1249          59.00       227.99
   84.60        2952.25           1252          60.00       232.35
   84.63        2952.50           1256          54.00       206.19
   84.66        2952.75           1259          48.00       180.04
   84.69        2953.00           1262          57.00       219.27
   84.72        2953.25           1266          56.00       214.91
   84.75        2953.50           1269          60.00       232.35
   84.78        2953.75           1272          58.00       223.63
   84.82        2954.00           1276          50.00       188.75
   84.85        2954.25           1279          60.00       232.35
   84.88        2954.50           1282          53.00       201.83
   84.91        2954.75           1286          52.00       197.47
   84.94        2955.00           1289          69.00       271.58
   84.97        2955.25           1292          51.00       193.11
   85.00        2955.50           1296          55.00       210.55
   85.03        2955.75           1299          51.00       193.11
   85.06        2956.00           1302          55.00       210.55
   85.09        2956.25           1306          57.00       219.27
   85.12        2956.50           1309          55.00       210.55
   85.16        2956.75           1312          60.00       232.35
   85.19        2957.00           1316          59.00       227.99
   85.22        2957.25           1319          59.00       227.99
   85.25        2957.50           1322          63.00       245.42
   85.28        2957.75           1326          58.00       223.63
   85.31        2958.00           1329          53.00       201.83
   85.34        2958.25           1332          57.00       219.27
   85.37        2958.50           1336          62.00       241.07
   85.40        2958.75           1339          57.00       219.27
   85.43        2959.00           1342          57.00       219.27
   85.46        2959.25           1346          59.00       227.99
   85.49        2959.50           1349          58.00       223.63
   85.52        2959.75           1352          72.00       284.66
   85.56        2960.00           1356         101.00       411.08
   85.59        2960.25           1359         130.00       537.50
   85.62        2960.50           1362         163.00       681.36
   85.65        2960.75           1366         210.00       886.25
   85.68        2961.00           1369         256.00      1086.78
   85.71        2961.25           1372         290.00      1235.01
   85.74        2961.50           1376         349.00      1492.22
   85.77        2961.75           1379         406.00      1740.72
   85.80        2962.00           1382         734.00      3170.75
   85.83        2962.25           1386        2134.00      9275.90
   85.87        2962.50           1389        3475.00     15125.87
   85.90        2962.75           1392        4671.00     20345.02
   85.93        2963.00           1396        6574.00     28652.78
   85.96        2963.25           1399        7866.00     34295.51
   85.99        2963.50           1402        9256.00     40368.39
   86.02        2963.75           1406       11223.00     48965.95
   86.05        2964.00           1409       12568.00     54847.37
   86.08        2964.25           1412       14127.00     61667.16
   86.11        2964.50           1416       16101.00     70306.38
   86.15        2964.75           1419       17366.00     75845.02
   86.18        2965.00           1422       18890.00     82520.09
   86.21        2965.25           1426       20755.00     90692.38
   86.24        2965.50           1429       22161.00     96856.01
   86.27        2965.75           1432       23642.00    103350.90
   86.30        2966.00           1436       25646.00    112143.40
   86.33        2966.25           1439       26755.00    117011.20
   86.36        2966.50           1442       28105.00    122938.60
   86.39        2966.75           1446       29738.00    130111.50
   86.42        2967.00           1449       30653.00    134131.90
   86.45        2967.25           1452       30753.00    134571.40
   86.49        2967.50           1456       30829.00    134905.40
   86.52        2967.75           1459       30801.00    134782.40
   86.55        2968.00           1462       30658.00    134153.90
   86.58        2968.25           1466       30357.00    132831.30
   86.61        2968.50           1469       29195.00    127726.10
   86.64        2968.75           1472       27685.00    121094.30
   86.67        2969.00           1476       26086.00    114074.60
   86.70        2969.25           1479       24691.00    107952.80
   86.74        2969.50           1482       23365.00    102135.90
   86.77        2969.75           1486       21376.00     93414.43
   86.80        2970.00           1489       19867.00     86800.72
   86.83        2970.25           1492       18703.00     81700.88
   86.86        2970.50           1496       16885.00     73738.80
   86.89        2970.75           1499       15471.00     67548.69
   86.92        2971.00           1502       13904.00     60691.48
   86.95        2971.25           1506       12007.00     52393.98
   86.98        2971.50           1509       10566.00     46093.78
   87.01        2971.75           1513        8728.00     38061.31
   87.04        2972.00           1516        7358.00     32076.62
   87.07        2972.25           1519        5974.00     26032.97
   87.11        2972.50           1523        4100.00     17853.06
   87.14        2972.75           1526        2762.00     12015.23
   87.17        2973.00           1529        1541.00      6689.66
   87.20        2973.25           1533         486.00      2089.49
   87.23        2973.50           1536         303.00      1291.68
   87.26        2973.75           1539         245.00      1038.83
   87.29        2974.00           1543         223.00       942.92
   87.32        2974.25           1546         155.00       646.48
   87.35        2974.50           1549         120.00       493.90
   87.39        2974.75           1553          80.00       319.53
   87.42        2975.00           1556          72.00       284.66
   87.45        2975.25           1559          60.00       232.35
   87.48        2975.50           1563          65.00       254.14
   87.51        2975.75           1566          61.00       236.71
   87.54        2976.00           1569          53.00       201.83
   87.57        2976.25           1573          52.00       197.47
   87.60        2976.50           1576          53.00       201.83
   87.63        2976.75           1579          52.00       197.47
   87.66        2977.00           1583          51.00       193.11
   87.69        2977.25           1586          56.00       214.91
   87.73        2977.50           1590          53.00       201.83
   87.76        2977.75           1593          58.00       223.63
   87.79        2978.00           1596          52.00       197.47
   87.82        2978.25           1600          56.00       214.91
   87.85        2978.50           1603          57.00       219.27
   87.88        2978.75           1606          56.00       214.91
   87.91        2979.00           1610          51.00       193.11
   87.94        2979.25           1613          52.00       197.47
   87.97        2979.50           1616          57.00       219.27
   88.00        2979.75           1620          50.00       188.75
   88.04        2980.00           1623          51.00       193.11
   88.07        2980.25           1626          62.00       241.07
   88.10        2980.50           1630          52.00       197.47
   88.13        2980.75           1633          46.00       171.32
   88.16        2981.00           1637          52.00       197.47
   88.19        2981.25           1640          58.00       223.63
   88.22        2981.50           1643          51.00       193.11
   88.25        2981.75           1647          46.00       171.32
   88.28        2982.00           1650          51.00       193.11
   88.31        2982.25           1653          48.00       180.04
   88.34        2982.50           1657          46.00       171.32
   88.38        2982.75           1660          46.00       171.32
   88.41        2983.00           1663          54.00       206.19
   88.44        2983.25           1667          50.00       188.75
   88.47        2983.50           1670          49.00       184.40
   88.50        2983.75           1673          51.00       193.11
   88.53        2984.00           1677          55.00       210.55
HS scan finished at 01:28:45
end
************************************************************
  HS Scan of (1) Internal mercury lamp
************************************************************
Integration time is 0.2294 seconds per sample
dh160618Manchester 53.47 2.23 2.857833pr1000
************************************************************
Dead Time -------------------------  3E-08 
Number of Cycles Used -------------  4 
Starting Wavelength (Angstroms) ---  2950 
Final Wavelength (Angstoms) -------  2984 
Wavelength Increment (Angstroms) --  .25 
Filter Wheel #1 Position ---------- (1) Ground quartz diffuser (ND=2.32)
Filter Wheel #2 Position ---------- (1) Neutral Density 0.494



************************************************************
HS scan start time = 21:43:18
Dark Count =  6.1 


Time (GMT)  Wavelength (Ang)  Step Number  Raw Counts  Counts/Second

 1303.66        2950.00           1222          59.00       230.60
 1303.73        2950.25           1226          54.00       208.81
 1303.76        2950.50           1229          62.00       243.68
 1303.79        2950.75           1232          64.00       252.40
 1303.82        2951.00           1236          54.00       208.81
 1303.85        2951.25           1239          57.00       221.88
 1303.88        2951.50           1242          57.00       221.88
 1303.91        2951.75           1246          55.00       213.17
 1303.95        2952.00           1249          56.00       217.53
 1303.98        2952.25           1252          67.00       265.48
 1304.01        2952.50           1256          58.00       226.24
 1304.04        2952.75           1259          55.00       213.17
 1304.07        2953.00           1262          61.00       239.32
 1304.10        2953.25           1266          70.00       278.56
 1304.13        2953.50           1269          60.00       234.96
 1304.16        2953.75           1272          49.00       187.01
 1304.19        2954.00           1276          58.00       226.24
 1304.22        2954.25           1279          63.00       248.04
 1304.25        2954.50           1282          58.00       226.24
 1304.28        2954.75           1286          60.00       234.96
 1304.32        2955.00           1289          60.00       234.96
 1304.35        2955.25           1292          61.00       239.32
 1304.38        2955.50           1296          59.00       230.60
 1304.41        2955.75           1299          61.00       239.32
 1304.44        2956.00           1302          56.00       217.53
 1304.47        2956.25           1306          52.00       200.09
 1304.50        2956.50           1309          48.00       182.65
 1304.53        2956.75           1312          49.00       187.01
 1304.56        2957.00           1316          60.00       234.96
 1304.59        2957.25           1319          55.00       213.17
 1304.62        2957.50           1322          57.00       221.88
 1304.65        2957.75           1326          56.00       217.53
 1304.68        2958.00           1329          60.00       234.96
 1304.71        2958.25           1332          63.00       248.04
 1304.74        2958.50           1336          55.00       213.17
 1304.78        2958.75           1339          55.00       213.17
 1304.81        2959.00           1342          54.00       208.81
 1304.84        2959.25           1346          61.00       239.32
 1304.87        2959.50           1349          59.00       230.60
 1304.90        2959.75           1352          84.00       339.59
 1304.93        2960.00           1356         114.00       470.36
 1304.96        2960.25           1359         145.00       605.50
 1304.99        2960.50           1362         168.00       705.77
 1305.02        2960.75           1366         217.00       919.38
 1305.05        2961.00           1369         257.00      1093.76
 1305.09        2961.25           1372         306.00      1307.37
 1305.12        2961.50           1376         388.00      1664.86
 1305.15        2961.75           1379         529.00      2279.58
 1305.18        2962.00           1382        1125.00      4878.22
 1305.21        2962.25           1386        2711.00     11795.37
 1305.24        2962.50           1389        3990.00     17375.66
 1305.27        2962.75           1392        5398.00     23520.95
 1305.30        2963.00           1396        7332.00     31965.69
 1305.33        2963.25           1399        8897.00     38802.34
 1305.37        2963.50           1402       10336.00     45091.04
 1305.40        2963.75           1406       12175.00     53131.28
 1305.43        2964.00           1409       13580.00     59276.64
 1305.46        2964.25           1412       15194.00     66338.96
 1305.49        2964.50           1416       17208.00     75155.75
 1305.52        2964.75           1419       18606.00     81278.59
 1305.55        2965.00           1422       20068.00     87684.14
 1305.58        2965.25           1426       21930.00     95845.82
 1305.61        2965.50           1429       23282.00    101774.50
 1305.65        2965.75           1432       24733.00    108139.70
 1305.68        2966.00           1436       26806.00    117237.70
 1305.71        2966.25           1439       27952.00    122269.40
 1305.74        2966.50           1442       29252.00    127979.10
 1305.77        2966.75           1446       30824.00    134886.10
 1305.80        2967.00           1449       30857.00    135031.10
 1305.83        2967.25           1452       30864.00    135061.90
 1305.86        2967.50           1456       30906.00    135246.40
 1305.89        2967.75           1459       31013.00    135716.70
 1305.93        2968.00           1462       30801.00    134785.00
 1305.96        2968.25           1466       30018.00    131344.40
 1305.99        2968.50           1469       28697.00    125541.20
 1306.02        2968.75           1472       27353.00    119639.20
 1306.05        2969.00           1476       25419.00    111149.90
 1306.08        2969.25           1479       24021.00    105016.00
 1306.11        2969.50           1482       22696.00     99204.58
 1306.14        2969.75           1486       20666.00     90304.91
 1306.17        2970.00           1489       19255.00     84121.80
 1306.21        2970.25           1492       17883.00     78111.78
 1306.24        2970.50           1496       16173.00     70624.20
 1306.27        2970.75           1499       14807.00     64645.30
 1306.30        2971.00           1502       13249.00     57828.67
 1306.33        2971.25           1506       11480.00     50092.23
 1306.36        2971.50           1509        9941.00     43364.58
 1306.39        2971.75           1513        8037.00     35045.11
 1306.42        2972.00           1516        6508.00     28367.20
 1306.45        2972.25           1519        5185.00     22591.16
 1306.49        2972.50           1523        3263.00     14203.52
 1306.52        2972.75           1526        2029.00      8820.56
 1306.56        2973.00           1529         856.00      3705.29
 1306.59        2973.25           1533         394.00      1691.02
 1306.63        2973.50           1536         264.00      1124.28
 1306.66        2973.75           1539         240.00      1019.65
 1306.69        2974.00           1543         182.00       766.80
 1306.72        2974.25           1546         137.00       570.63
 1306.75        2974.50           1549         103.00       422.41
 1306.78        2974.75           1553          74.00       295.99
 1306.81        2975.00           1556          63.00       248.04
 1306.84        2975.25           1559          58.00       226.24
 1306.87        2975.50           1563          53.00       204.45
 1306.91        2975.75           1566          67.00       265.48
 1306.94        2976.00           1569          57.00       221.88
 1306.97        2976.25           1573          53.00       204.45
 1307.00        2976.50           1576          49.00       187.01
 1307.03        2976.75           1579          74.00       295.99
 1307.06        2977.00           1583          60.00       234.96
 1307.09        2977.25           1586          54.00       208.81
 1307.12        2977.50           1590          59.00       230.60
 1307.15        2977.75           1593          57.00       221.88
 1307.19        2978.00           1596          52.00       200.09
 1307.22        2978.25           1600          47.00       178.29
 1307.25        2978.50           1603          47.00       178.29
 1307.28        2978.75           1606          57.00       221.88
 1307.31        2979.00           1610          52.00       200.09
 1307.34        2979.25           1613          53.00       204.45
 1307.37        2979.50           1616          62.00       243.68
 1307.40        2979.75           1620          50.00       191.37
 1307.43        2980.00           1623          49.00       187.01
 1307.46        2980.25           1626          45.00       169.57
 1307.49        2980.50           1630          54.00       208.81
 1307.53        2980.75           1633          52.00       200.09
 1307.56        2981.00           1637          51.00       195.73
 1307.59        2981.25           1640          55.00       213.17
 1307.62        2981.50           1643          54.00       208.81
 1307.65        2981.75           1647          48.00       182.65
 1307.68        2982.00           1650          52.00       200.09
 1307.71        2982.25           1653          50.00       191.37
 1307.74        2982.50           1657          55.00       213.17
 1307.77        2982.75           1660          47.00       178.29
 1307.80        2983.00           1663          57.00       221.88
 1307.83        2983.25           1667          53.00       204.45
 1307.87        2983.50           1670          57.00       221.88
 1307.90        2983.75           1673          52.00       200.09
 1307.93        2984.00           1677          48.00       182.65
HS scan finished at 21:48:09
end
