************************************************************
  HS Scan of (1) Internal mercury lamp
************************************************************
Integration time is 0.2294 seconds per sample
dh180618Manchester 53.47 2.23 2.857833pr1000
************************************************************
Dead Time -------------------------  3E-08 
Number of Cycles Used -------------  4 
Starting Wavelength (Angstroms) ---  2950 
Final Wavelength (Angstoms) -------  2984 
Wavelength Increment (Angstroms) --  .25 
Filter Wheel #1 Position ---------- (1) Ground quartz diffuser (ND=2.32)
Filter Wheel #2 Position ---------- (1) Neutral Density 0.494



************************************************************
HS scan start time = 01:36:58
Dark Count =  7.6 


Time (GMT)  Wavelength (Ang)  Step Number  Raw Counts  Counts/Second

   97.33        2950.00           1222          52.00       193.55
   97.40        2950.25           1226          61.00       232.78
   97.43        2950.50           1229          50.00       184.83
   97.46        2950.75           1232          56.00       210.99
   97.49        2951.00           1236          56.00       210.99
   97.52        2951.25           1239          57.00       215.35
   97.55        2951.50           1242          54.00       202.27
   97.58        2951.75           1246          48.00       176.11
   97.61        2952.00           1249          62.00       237.14
   97.65        2952.25           1252          58.00       219.71
   97.68        2952.50           1256          54.00       202.27
   97.71        2952.75           1259          61.00       232.78
   97.74        2953.00           1262          65.00       250.22
   97.77        2953.25           1266          60.00       228.42
   97.80        2953.50           1269          50.00       184.83
   97.83        2953.75           1272          65.00       250.22
   97.86        2954.00           1276          65.00       250.22
   97.89        2954.25           1279          47.00       171.75
   97.92        2954.50           1282          57.00       215.35
   97.95        2954.75           1286          48.00       176.11
   97.98        2955.00           1289          58.00       219.71
   98.01        2955.25           1292          51.00       189.19
   98.05        2955.50           1296          60.00       228.42
   98.08        2955.75           1299          56.00       210.99
   98.11        2956.00           1302          52.00       193.55
   98.14        2956.25           1306          64.00       245.86
   98.17        2956.50           1309          55.00       206.63
   98.20        2956.75           1312          50.00       184.83
   98.23        2957.00           1316          55.00       206.63
   98.26        2957.25           1319          60.00       228.42
   98.29        2957.50           1322          55.00       206.63
   98.32        2957.75           1326          56.00       210.99
   98.35        2958.00           1329          60.00       228.42
   98.38        2958.25           1332          50.00       184.83
   98.41        2958.50           1336          54.00       202.27
   98.44        2958.75           1339          61.00       232.78
   98.47        2959.00           1342          57.00       215.35
   98.50        2959.25           1346          59.00       224.06
   98.53        2959.50           1349          62.00       237.14
   98.57        2959.75           1352          88.00       350.48
   98.60        2960.00           1356         113.00       459.47
   98.63        2960.25           1359         133.00       546.65
   98.66        2960.50           1362         173.00       721.03
   98.69        2960.75           1366         219.00       921.56
   98.72        2961.00           1369         259.00      1095.94
   98.75        2961.25           1372         296.00      1257.24
   98.78        2961.50           1376         380.00      1623.44
   98.81        2961.75           1379         668.00      2879.06
   98.84        2962.00           1382        1502.00      6515.66
   98.87        2962.25           1386        3296.00     14340.96
   98.90        2962.50           1389        4720.00     20554.96
   98.94        2962.75           1392        6194.00     26989.59
   98.97        2963.00           1396        8024.00     34981.77
   99.00        2963.25           1399        9385.00     40928.17
   99.03        2963.50           1402       10921.00     47641.72
   99.06        2963.75           1406       12894.00     56269.28
   99.09        2964.00           1409       14324.00     62525.20
   99.12        2964.25           1412       15609.00     68148.78
   99.15        2964.50           1416       17691.00     77264.34
   99.18        2964.75           1419       19081.00     83352.90
   99.22        2965.00           1422       20566.00     89860.06
   99.25        2965.25           1426       22456.00     98145.58
   99.28        2965.50           1429       23889.00    104430.40
   99.31        2965.75           1432       25445.00    111257.40
   99.34        2966.00           1436       27390.00    119795.10
   99.37        2966.25           1439       28625.00    125218.40
   99.40        2966.50           1442       29857.00    130630.40
   99.43        2966.75           1446       30923.00    135314.60
   99.46        2967.00           1449       31007.00    135683.70
   99.49        2967.25           1452       31167.00    136386.90
   99.53        2967.50           1456       31014.00    135714.50
   99.56        2967.75           1459       31125.00    136202.30
   99.59        2968.00           1462       30619.00    133978.60
   99.62        2968.25           1466       29423.00    128723.70
   99.65        2968.50           1469       28164.00    123193.80
   99.68        2968.75           1472       26524.00    115993.20
   99.71        2969.00           1476       24752.00    108216.50
   99.74        2969.25           1479       23255.00    101649.50
   99.77        2969.50           1482       21762.00     95102.69
   99.81        2969.75           1486       20002.00     87388.35
   99.84        2970.00           1489       18656.00     81491.05
   99.87        2970.25           1492       17209.00     75153.56
   99.90        2970.50           1496       15584.00     68039.35
   99.93        2970.75           1499       14088.00     61492.59
   99.96        2971.00           1502       12469.00     54410.46
   99.99        2971.25           1506       10484.00     45731.40
  100.02        2971.50           1509        9052.00     39473.05
  100.05        2971.75           1513        7322.00     31915.46
  100.08        2972.00           1516        5730.00     24963.76
  100.11        2972.25           1519        4401.00     19162.71
  100.15        2972.50           1523        2589.00     11256.63
  100.18        2972.75           1526        1201.00      5203.08
  100.21        2973.00           1529         556.00      2390.76
  100.24        2973.25           1533         346.00      1475.22
  100.27        2973.50           1536         294.00      1248.52
  100.30        2973.75           1539         238.00      1004.39
  100.33        2974.00           1543         196.00       821.29
  100.36        2974.25           1546         134.00       551.01
  100.39        2974.50           1549         130.00       533.57
  100.42        2974.75           1553          80.00       315.61
  100.45        2975.00           1556          57.00       215.35
  100.48        2975.25           1559          57.00       215.35
  100.51        2975.50           1563          53.00       197.91
  100.54        2975.75           1566          53.00       197.91
  100.57        2976.00           1569          57.00       215.35
  100.61        2976.25           1573          50.00       184.83
  100.64        2976.50           1576          49.00       180.47
  100.67        2976.75           1579          50.00       184.83
  100.70        2977.00           1583          45.00       163.03
  100.73        2977.25           1586          56.00       210.99
  100.76        2977.50           1590          51.00       189.19
  100.79        2977.75           1593          47.00       171.75
  100.82        2978.00           1596          51.00       189.19
  100.85        2978.25           1600          43.00       154.32
  100.88        2978.50           1603          48.00       176.11
  100.91        2978.75           1606          56.00       210.99
  100.95        2979.00           1610          56.00       210.99
  100.98        2979.25           1613          57.00       215.35
  101.01        2979.50           1616          55.00       206.63
  101.04        2979.75           1620          54.00       202.27
  101.07        2980.00           1623          50.00       184.83
  101.10        2980.25           1626          39.00       136.88
  101.13        2980.50           1630          43.00       154.32
  101.16        2980.75           1633          55.00       206.63
  101.19        2981.00           1637          55.00       206.63
  101.22        2981.25           1640          57.00       215.35
  101.25        2981.50           1643          51.00       189.19
  101.28        2981.75           1647          56.00       210.99
  101.31        2982.00           1650          53.00       197.91
  101.34        2982.25           1653          42.00       149.96
  101.38        2982.50           1657          56.00       210.99
  101.41        2982.75           1660          47.00       171.75
  101.44        2983.00           1663          45.00       163.03
  101.47        2983.25           1667          52.00       193.55
  101.50        2983.50           1670          48.00       176.11
  101.53        2983.75           1673          58.00       219.71
  101.56        2984.00           1677          50.00       184.83
HS scan finished at 01:41:46
end
************************************************************
  HS Scan of (1) Internal mercury lamp
************************************************************
Integration time is 0.2294 seconds per sample
dh180618Manchester 53.47 2.23 2.911481pr1000
************************************************************
Dead Time -------------------------  3E-08 
Number of Cycles Used -------------  4 
Starting Wavelength (Angstroms) ---  2950 
Final Wavelength (Angstoms) -------  2984 
Wavelength Increment (Angstroms) --  .25 
Filter Wheel #1 Position ---------- (1) Ground quartz diffuser (ND=2.32)
Filter Wheel #2 Position ---------- (1) Neutral Density 0.494



************************************************************
HS scan start time = 21:41:59
Dark Count =  8 


Time (GMT)  Wavelength (Ang)  Step Number  Raw Counts  Counts/Second

 1302.35        2950.00           1222          56.00       209.24
 1302.41        2950.25           1226          57.00       213.60
 1302.44        2950.50           1229          56.00       209.24
 1302.47        2950.75           1232          60.00       226.68
 1302.50        2951.00           1236          51.00       187.45
 1302.53        2951.25           1239          56.00       209.24
 1302.56        2951.50           1242          58.00       217.96
 1302.60        2951.75           1246          63.00       239.76
 1302.63        2952.00           1249          52.00       191.81
 1302.66        2952.25           1252          53.00       196.17
 1302.69        2952.50           1256          60.00       226.68
 1302.72        2952.75           1259          56.00       209.24
 1302.75        2953.00           1262          59.00       222.32
 1302.78        2953.25           1266          62.00       235.40
 1302.81        2953.50           1269          47.00       170.01
 1302.84        2953.75           1272          61.00       231.04
 1302.87        2954.00           1276          50.00       183.09
 1302.90        2954.25           1279          53.00       196.17
 1302.93        2954.50           1282          58.00       217.96
 1302.97        2954.75           1286          49.00       178.73
 1303.00        2955.00           1289          56.00       209.24
 1303.03        2955.25           1292          52.00       191.81
 1303.06        2955.50           1296          57.00       213.60
 1303.09        2955.75           1299          55.00       204.88
 1303.12        2956.00           1302          61.00       231.04
 1303.15        2956.25           1306          54.00       200.52
 1303.18        2956.50           1309          65.00       248.48
 1303.21        2956.75           1312          59.00       222.32
 1303.24        2957.00           1316          51.00       187.45
 1303.27        2957.25           1319          51.00       187.45
 1303.31        2957.50           1322          55.00       204.88
 1303.34        2957.75           1326          56.00       209.24
 1303.37        2958.00           1329          55.00       204.88
 1303.40        2958.25           1332          61.00       231.04
 1303.43        2958.50           1336          51.00       187.45
 1303.46        2958.75           1339          52.00       191.81
 1303.49        2959.00           1342          47.00       170.01
 1303.52        2959.25           1346          67.00       257.19
 1303.55        2959.50           1349          68.00       261.55
 1303.58        2959.75           1352          73.00       283.35
 1303.61        2960.00           1356         105.00       422.85
 1303.64        2960.25           1359         131.00       536.19
 1303.67        2960.50           1362         173.00       719.28
 1303.71        2960.75           1366         224.00       941.61
 1303.74        2961.00           1369         272.00      1150.87
 1303.77        2961.25           1372         293.00      1242.42
 1303.80        2961.50           1376         374.00      1595.54
 1303.83        2961.75           1379         480.00      2057.67
 1303.86        2962.00           1382         931.00      4024.03
 1303.89        2962.25           1386        2461.00     10696.54
 1303.92        2962.50           1389        3924.00     17079.37
 1303.95        2962.75           1392        5277.00     22984.46
 1303.98        2963.00           1396        7081.00     30861.17
 1304.01        2963.25           1399        8568.00     37356.58
 1304.04        2963.50           1402       10049.00     43828.30
 1304.08        2963.75           1406       12162.00     53066.10
 1304.11        2964.00           1409       13571.00     59228.96
 1304.14        2964.25           1412       15132.00     66059.30
 1304.17        2964.50           1416       17079.00     74582.56
 1304.20        2964.75           1419       18768.00     81979.93
 1304.23        2965.00           1422       20094.00     87789.76
 1304.26        2965.25           1426       22128.00     96705.61
 1304.29        2965.50           1429       23481.00    102639.00
 1304.32        2965.75           1432       25024.00    109408.20
 1304.35        2966.00           1436       26971.00    117953.70
 1304.38        2966.25           1439       28192.00    123315.00
 1304.42        2966.50           1442       29716.00    130009.10
 1304.45        2966.75           1446       31133.00    136235.70
 1304.48        2967.00           1449       31564.00    138130.10
 1304.51        2967.25           1452       31717.00    138802.60
 1304.54        2967.50           1456       31840.00    139343.30
 1304.57        2967.75           1459       31723.00    138829.00
 1304.60        2968.00           1462       31596.00    138270.70
 1304.63        2968.25           1466       30829.00    134899.70
 1304.66        2968.50           1469       29617.00    129574.20
 1304.69        2968.75           1472       28226.00    123464.30
 1304.72        2969.00           1476       26275.00    114898.40
 1304.75        2969.25           1479       24721.00    108078.70
 1304.78        2969.50           1482       23324.00    101950.40
 1304.82        2969.75           1486       21550.00     94171.52
 1304.85        2970.00           1489       20104.00     87833.58
 1304.88        2970.25           1492       18674.00     81568.15
 1304.91        2970.50           1496       16847.00     73566.72
 1304.94        2970.75           1499       15329.00     66921.50
 1304.97        2971.00           1502       13819.00     60313.92
 1305.00        2971.25           1506       11777.00     51382.55
 1305.03        2971.50           1509       10185.00     44422.73
 1305.06        2971.75           1513        8418.00     36701.24
 1305.10        2972.00           1516        6944.00     30262.86
 1305.13        2972.25           1519        5499.00     23953.56
 1305.16        2972.50           1523        3725.00     16211.02
 1305.19        2972.75           1526        2342.00     10177.48
 1305.22        2973.00           1529        1147.00      4965.87
 1305.25        2973.25           1533         445.00      1905.08
 1305.28        2973.50           1536         306.00      1299.09
 1305.31        2973.75           1539         259.00      1094.19
 1305.34        2974.00           1543         225.00       945.97
 1305.37        2974.25           1546         153.00       632.10
 1305.41        2974.50           1549         115.00       466.44
 1305.44        2974.75           1553          84.00       331.30
 1305.47        2975.00           1556          72.00       278.99
 1305.50        2975.25           1559          70.00       270.27
 1305.53        2975.50           1563          60.00       226.68
 1305.56        2975.75           1566          59.00       222.32
 1305.59        2976.00           1569          50.00       183.09
 1305.62        2976.25           1573          58.00       217.96
 1305.65        2976.50           1576          51.00       187.45
 1305.68        2976.75           1579          51.00       187.45
 1305.71        2977.00           1583          52.00       191.81
 1305.74        2977.25           1586          57.00       213.60
 1305.77        2977.50           1590          52.00       191.81
 1305.81        2977.75           1593          50.00       183.09
 1305.84        2978.00           1596          59.00       222.32
 1305.87        2978.25           1600          52.00       191.81
 1305.90        2978.50           1603          52.00       191.81
 1305.93        2978.75           1606          63.00       239.76
 1305.96        2979.00           1610          50.00       183.09
 1305.99        2979.25           1613          62.00       235.40
 1306.02        2979.50           1616          45.00       161.29
 1306.05        2979.75           1620          45.00       161.29
 1306.08        2980.00           1623          56.00       209.24
 1306.11        2980.25           1626          60.00       226.68
 1306.14        2980.50           1630          58.00       217.96
 1306.18        2980.75           1633          47.00       170.01
 1306.21        2981.00           1637          49.00       178.73
 1306.24        2981.25           1640          50.00       183.09
 1306.27        2981.50           1643          49.00       178.73
 1306.30        2981.75           1647          60.00       226.68
 1306.34        2982.00           1650          48.00       174.37
 1306.37        2982.25           1653          58.00       217.96
 1306.40        2982.50           1657          57.00       213.60
 1306.43        2982.75           1660          50.00       183.09
 1306.46        2983.00           1663          58.00       217.96
 1306.49        2983.25           1667          62.00       235.40
 1306.52        2983.50           1670          56.00       209.24
 1306.55        2983.75           1673          45.00       161.29
 1306.58        2984.00           1677          53.00       196.17
HS scan finished at 21:46:48
end
