************************************************************
  HS Scan of (1) Internal mercury lamp
************************************************************
Integration time is 0.2294 seconds per sample
dh180619El Arenosillo 37.1 6.73 3.072425pr1000
************************************************************
Dead Time -------------------------  3E-08 
Number of Cycles Used -------------  4 
Starting Wavelength (Angstroms) ---  2950 
Final Wavelength (Angstoms) -------  2984 
Wavelength Increment (Angstroms) --  .25 
Filter Wheel #1 Position ---------- (1) Ground quartz diffuser (ND=2.32)
Filter Wheel #2 Position ---------- (1) Neutral Density 0.494



************************************************************
HS scan start time = 21:38:28
Dark Count =  7.7 


Time (GMT)  Wavelength (Ang)  Step Number  Raw Counts  Counts/Second

 1298.84        2950.00           1222          58.00       219.27
 1298.90        2950.25           1226          53.00       197.47
 1298.93        2950.50           1229          57.00       214.91
 1298.96        2950.75           1232          51.00       188.75
 1299.00        2951.00           1236          60.00       227.99
 1299.03        2951.25           1239          53.00       197.47
 1299.06        2951.50           1242          49.00       180.04
 1299.09        2951.75           1246          56.00       210.55
 1299.12        2952.00           1249          60.00       227.99
 1299.15        2952.25           1252          51.00       188.75
 1299.18        2952.50           1256          63.00       241.07
 1299.21        2952.75           1259          57.00       214.91
 1299.24        2953.00           1262          49.00       180.04
 1299.27        2953.25           1266          50.00       184.40
 1299.30        2953.50           1269          56.00       210.55
 1299.33        2953.75           1272          54.00       201.83
 1299.37        2954.00           1276          61.00       232.35
 1299.40        2954.25           1279          60.00       227.99
 1299.43        2954.50           1282          56.00       210.55
 1299.46        2954.75           1286          53.00       197.47
 1299.49        2955.00           1289          56.00       210.55
 1299.52        2955.25           1292          51.00       188.75
 1299.55        2955.50           1296          63.00       241.07
 1299.58        2955.75           1299          53.00       197.47
 1299.61        2956.00           1302          50.00       184.40
 1299.64        2956.25           1306          59.00       223.63
 1299.68        2956.50           1309          56.00       210.55
 1299.71        2956.75           1312          59.00       223.63
 1299.74        2957.00           1316          49.00       180.04
 1299.77        2957.25           1319          50.00       184.40
 1299.80        2957.50           1322          61.00       232.35
 1299.83        2957.75           1326          46.00       166.96
 1299.86        2958.00           1329          50.00       184.40
 1299.89        2958.25           1332          59.00       223.63
 1299.92        2958.50           1336          57.00       214.91
 1299.95        2958.75           1339          46.00       166.96
 1299.98        2959.00           1342          57.00       214.91
 1300.01        2959.25           1346          60.00       227.99
 1300.04        2959.50           1349          57.00       214.91
 1300.07        2959.75           1352          68.00       262.86
 1300.11        2960.00           1356          87.00       345.69
 1300.14        2960.25           1359         114.00       463.39
 1300.17        2960.50           1362         154.00       637.76
 1300.20        2960.75           1366         186.00       777.26
 1300.23        2961.00           1369         232.00       977.80
 1300.26        2961.25           1372         244.00      1030.11
 1300.29        2961.50           1376         333.00      1418.11
 1300.32        2961.75           1379         467.00      2002.30
 1300.35        2962.00           1382        1113.00      4818.92
 1300.38        2962.25           1386        2677.00     11640.07
 1300.41        2962.50           1389        4030.00     17543.23
 1300.44        2962.75           1392        5333.00     23230.22
 1300.47        2963.00           1396        7164.00     31224.97
 1300.51        2963.25           1399        8429.00     36750.61
 1300.54        2963.50           1402        9749.00     42518.46
 1300.57        2963.75           1406       11629.00     50736.72
 1300.60        2964.00           1409       13173.00     57489.21
 1300.63        2964.25           1412       14489.00     63246.75
 1300.66        2964.50           1416       16434.00     71759.81
 1300.69        2964.75           1419       17734.00     77452.21
 1300.72        2965.00           1422       18996.00     82980.09
 1300.76        2965.25           1426       20901.00     91327.92
 1300.79        2965.50           1429       22229.00     97149.78
 1300.82        2965.75           1432       23624.00    103267.60
 1300.85        2966.00           1436       25285.00    110554.80
 1300.88        2966.25           1439       26750.00    116984.80
 1300.91        2966.50           1442       28098.00    122903.50
 1300.94        2966.75           1446       29589.00    129452.50
 1300.97        2967.00           1449       29854.00    130616.80
 1301.00        2967.25           1452       29957.00    131069.30
 1301.04        2967.50           1456       29870.00    130687.10
 1301.07        2967.75           1459       29852.00    130608.00
 1301.10        2968.00           1462       29647.00    129707.30
 1301.13        2968.25           1466       28765.00    125832.90
 1301.16        2968.50           1469       27690.00    121111.90
 1301.19        2968.75           1472       26673.00    116646.80
 1301.22        2969.00           1476       24872.00    108742.60
 1301.25        2969.25           1479       23273.00    101728.00
 1301.28        2969.50           1482       21875.00     95597.66
 1301.32        2969.75           1486       19947.00     87146.90
 1301.35        2970.00           1489       18580.00     81157.70
 1301.38        2970.25           1492       17303.00     75564.75
 1301.41        2970.50           1496       15523.00     67771.93
 1301.44        2970.75           1499       14226.00     62095.96
 1301.47        2971.00           1502       12912.00     56347.57
 1301.50        2971.25           1506       10960.00     47811.78
 1301.53        2971.50           1509        9583.00     41793.00
 1301.56        2971.75           1513        7772.00     33880.54
 1301.60        2972.00           1516        6461.00     28154.98
 1301.63        2972.25           1519        5034.00     21925.05
 1301.66        2972.50           1523        3247.00     14126.74
 1301.69        2972.75           1526        1929.00      8377.43
 1301.72        2973.00           1529         869.00      3755.00
 1301.75        2973.25           1533         400.00      1710.20
 1301.78        2973.50           1536         296.00      1256.80
 1301.81        2973.75           1539         245.00      1034.47
 1301.84        2974.00           1543         212.00       890.61
 1301.87        2974.25           1546         167.00       694.43
 1301.90        2974.50           1549         134.00       550.58
 1301.94        2974.75           1553          91.00       363.13
 1301.97        2975.00           1556          77.00       302.10
 1302.00        2975.25           1559          50.00       184.40
 1302.03        2975.50           1563          56.00       210.55
 1302.06        2975.75           1566          61.00       232.35
 1302.09        2976.00           1569          50.00       184.40
 1302.12        2976.25           1573          56.00       210.55
 1302.15        2976.50           1576          57.00       214.91
 1302.18        2976.75           1579          53.00       197.47
 1302.21        2977.00           1583          56.00       210.55
 1302.24        2977.25           1586          51.00       188.75
 1302.28        2977.50           1590          51.00       188.75
 1302.31        2977.75           1593          48.00       175.68
 1302.34        2978.00           1596          54.00       201.83
 1302.37        2978.25           1600          55.00       206.19
 1302.40        2978.50           1603          50.00       184.40
 1302.43        2978.75           1606          47.00       171.32
 1302.46        2979.00           1610          54.00       201.83
 1302.49        2979.25           1613          54.00       201.83
 1302.52        2979.50           1616          51.00       188.75
 1302.55        2979.75           1620          51.00       188.75
 1302.59        2980.00           1623          52.00       193.11
 1302.62        2980.25           1626          55.00       206.19
 1302.65        2980.50           1630          58.00       219.27
 1302.68        2980.75           1633          49.00       180.04
 1302.71        2981.00           1637          52.00       193.11
 1302.74        2981.25           1640          49.00       180.04
 1302.77        2981.50           1643          43.00       153.88
 1302.80        2981.75           1647          48.00       175.68
 1302.83        2982.00           1650          45.00       162.60
 1302.86        2982.25           1653          50.00       184.40
 1302.89        2982.50           1657          56.00       210.55
 1302.92        2982.75           1660          47.00       171.32
 1302.95        2983.00           1663          47.00       171.32
 1302.98        2983.25           1667          53.00       197.47
 1303.02        2983.50           1670          49.00       180.04
 1303.05        2983.75           1673          48.00       175.68
 1303.08        2984.00           1677          47.00       171.32
HS scan finished at 21:43:18
end
