************************************************************
  HS Scan of (1) Internal mercury lamp
************************************************************
Integration time is 0.2294 seconds per sample
dh150618Manchester 53.47 2.23 2.804185pr1000
************************************************************
Dead Time -------------------------  3E-08 
Number of Cycles Used -------------  4 
Starting Wavelength (Angstroms) ---  2950 
Final Wavelength (Angstoms) -------  2984 
Wavelength Increment (Angstroms) --  .25 
Filter Wheel #1 Position ---------- (1) Ground quartz diffuser (ND=2.32)
Filter Wheel #2 Position ---------- (1) Neutral Density 0.494



************************************************************
HS scan start time = 01:32:44
Dark Count =  5.9 


Time (GMT)  Wavelength (Ang)  Step Number  Raw Counts  Counts/Second

   93.10        2950.00           1222          55.00       214.04
   93.17        2950.25           1226          58.00       227.12
   93.20        2950.50           1229          54.00       209.68
   93.23        2950.75           1232          51.00       196.60
   93.26        2951.00           1236          58.00       227.12
   93.29        2951.25           1239          53.00       205.32
   93.32        2951.50           1242          57.00       222.76
   93.35        2951.75           1246          60.00       235.83
   93.38        2952.00           1249          52.00       200.96
   93.41        2952.25           1252          56.00       218.40
   93.44        2952.50           1256          56.00       218.40
   93.47        2952.75           1259          56.00       218.40
   93.51        2953.00           1262          56.00       218.40
   93.54        2953.25           1266          52.00       200.96
   93.57        2953.50           1269          52.00       200.96
   93.60        2953.75           1272          56.00       218.40
   93.63        2954.00           1276          57.00       222.76
   93.66        2954.25           1279          51.00       196.60
   93.69        2954.50           1282          60.00       235.83
   93.72        2954.75           1286          60.00       235.83
   93.75        2955.00           1289          59.00       231.48
   93.78        2955.25           1292          57.00       222.76
   93.81        2955.50           1296          56.00       218.40
   93.84        2955.75           1299          53.00       205.32
   93.87        2956.00           1302          48.00       183.52
   93.90        2956.25           1306          58.00       227.12
   93.93        2956.50           1309          62.00       244.55
   93.96        2956.75           1312          59.00       231.48
   94.00        2957.00           1316          53.00       205.32
   94.03        2957.25           1319          60.00       235.83
   94.06        2957.50           1322          49.00       187.88
   94.09        2957.75           1326          53.00       205.32
   94.12        2958.00           1329          58.00       227.12
   94.15        2958.25           1332          58.00       227.12
   94.18        2958.50           1336          54.00       209.68
   94.21        2958.75           1339          63.00       248.91
   94.24        2959.00           1342          57.00       222.76
   94.27        2959.25           1346          54.00       209.68
   94.30        2959.50           1349          57.00       222.76
   94.34        2959.75           1352          66.00       261.99
   94.37        2960.00           1356          91.00       370.97
   94.40        2960.25           1359         107.00       440.72
   94.43        2960.50           1362         144.00       602.02
   94.46        2960.75           1366         184.00       776.39
   94.49        2961.00           1369         230.00       976.92
   94.52        2961.25           1372         257.00      1094.63
   94.55        2961.50           1376         318.00      1360.56
   94.58        2961.75           1379         425.00      1827.04
   94.62        2962.00           1382         823.00      3562.28
   94.65        2962.25           1386        2296.00      9985.99
   94.68        2962.50           1389        3679.00     16019.47
   94.71        2962.75           1392        5036.00     21941.64
   94.74        2963.00           1396        6905.00     30101.72
   94.77        2963.25           1399        8302.00     36203.64
   94.80        2963.50           1402        9645.00     42071.81
   94.83        2963.75           1406       11669.00     50919.49
   94.86        2964.00           1409       12961.00     56569.77
   94.89        2964.25           1412       14492.00     63267.75
   94.93        2964.50           1416       16443.00     71807.09
   94.96        2964.75           1419       17844.00     77941.85
   94.99        2965.00           1422       19398.00     84749.21
   95.02        2965.25           1426       21089.00     92159.86
   95.05        2965.50           1429       22617.00     98859.02
   95.08        2965.75           1432       24170.00    105670.60
   95.11        2966.00           1436       26144.00    114332.60
   95.14        2966.25           1439       27597.00    120711.40
   95.17        2966.50           1442       28700.00    125555.30
   95.20        2966.75           1446       30114.00    131767.00
   95.24        2967.00           1449       30559.00    133722.40
   95.27        2967.25           1452       30619.00    133986.10
   95.30        2967.50           1456       30765.00    134627.60
   95.33        2967.75           1459       30595.00    133880.60
   95.36        2968.00           1462       30355.00    132826.00
   95.39        2968.25           1466       29497.00    129056.20
   95.42        2968.50           1469       28367.00    124092.80
   95.45        2968.75           1472       27148.00    118740.00
   95.48        2969.00           1476       25234.00    110338.90
   95.52        2969.25           1479       23828.00    104170.30
   95.55        2969.50           1482       22417.00     97982.01
   95.58        2969.75           1486       20610.00     90060.34
   95.61        2970.00           1489       19252.00     84109.53
   95.64        2970.25           1492       17759.00     77569.58
   95.67        2970.50           1496       15979.00     69775.81
   95.70        2970.75           1499       14702.00     64186.69
   95.73        2971.00           1502       13279.00     57960.77
   95.76        2971.25           1506       11312.00     49358.57
   95.80        2971.50           1509        9838.00     42915.29
   95.83        2971.75           1513        7918.00     34526.15
   95.86        2972.00           1516        6536.00     28490.34
   95.89        2972.25           1519        5291.00     23054.74
   95.92        2972.50           1523        3573.00     15556.95
   95.95        2972.75           1526        2221.00      9658.86
   95.98        2973.00           1529        1079.00      4678.51
   96.01        2973.25           1533         442.00      1901.15
   96.04        2973.50           1536         321.00      1373.64
   96.07        2973.75           1539         288.00      1229.78
   96.10        2974.00           1543         230.00       976.92
   96.13        2974.25           1546         183.00       772.03
   96.17        2974.50           1549         146.00       610.73
   96.20        2974.75           1553         102.00       418.92
   96.23        2975.00           1556          82.00       331.74
   96.26        2975.25           1559          56.00       218.40
   96.29        2975.50           1563          66.00       261.99
   96.32        2975.75           1566          54.00       209.68
   96.35        2976.00           1569          57.00       222.76
   96.38        2976.25           1573          48.00       183.52
   96.41        2976.50           1576          52.00       200.96
   96.44        2976.75           1579          55.00       214.04
   96.47        2977.00           1583          53.00       205.32
   96.50        2977.25           1586          53.00       205.32
   96.54        2977.50           1590          51.00       196.60
   96.57        2977.75           1593          56.00       218.40
   96.60        2978.00           1596          44.00       166.09
   96.63        2978.25           1600          59.00       231.48
   96.66        2978.50           1603          62.00       244.55
   96.69        2978.75           1606          54.00       209.68
   96.72        2979.00           1610          48.00       183.52
   96.75        2979.25           1613          50.00       192.24
   96.78        2979.50           1616          58.00       227.12
   96.81        2979.75           1620          44.00       166.09
   96.84        2980.00           1623          54.00       209.68
   96.87        2980.25           1626          61.00       240.19
   96.90        2980.50           1630          48.00       183.52
   96.93        2980.75           1633          57.00       222.76
   96.96        2981.00           1637          51.00       196.60
   97.00        2981.25           1640          48.00       183.52
   97.03        2981.50           1643          54.00       209.68
   97.06        2981.75           1647          54.00       209.68
   97.09        2982.00           1650          51.00       196.60
   97.12        2982.25           1653          47.00       179.16
   97.15        2982.50           1657          49.00       187.88
   97.18        2982.75           1660          45.00       170.45
   97.21        2983.00           1663          47.00       179.16
   97.24        2983.25           1667          52.00       200.96
   97.27        2983.50           1670          52.00       200.96
   97.30        2983.75           1673          46.00       174.80
   97.33        2984.00           1677          52.00       200.96
HS scan finished at 01:37:33
end
************************************************************
  HS Scan of (1) Internal mercury lamp
************************************************************
Integration time is 0.2294 seconds per sample
dh150618Manchester 53.47 2.23 2.804185pr1000
************************************************************
Dead Time -------------------------  3E-08 
Number of Cycles Used -------------  4 
Starting Wavelength (Angstroms) ---  2950 
Final Wavelength (Angstoms) -------  2984 
Wavelength Increment (Angstroms) --  .25 
Filter Wheel #1 Position ---------- (1) Ground quartz diffuser (ND=2.32)
Filter Wheel #2 Position ---------- (1) Neutral Density 0.494



************************************************************
HS scan start time = 21:42:05
Dark Count =  5.4 


Time (GMT)  Wavelength (Ang)  Step Number  Raw Counts  Counts/Second

 1302.46        2950.00           1222          63.00       251.09
 1302.52        2950.25           1226          57.00       224.94
 1302.55        2950.50           1229          55.00       216.22
 1302.58        2950.75           1232          54.00       211.86
 1302.61        2951.00           1236          56.00       220.58
 1302.64        2951.25           1239          52.00       203.14
 1302.67        2951.50           1242          57.00       224.94
 1302.70        2951.75           1246          49.00       190.06
 1302.74        2952.00           1249          54.00       211.86
 1302.77        2952.25           1252          51.00       198.78
 1302.80        2952.50           1256          57.00       224.94
 1302.83        2952.75           1259          61.00       242.37
 1302.86        2953.00           1262          56.00       220.58
 1302.89        2953.25           1266          60.00       238.01
 1302.92        2953.50           1269          60.00       238.01
 1302.95        2953.75           1272          53.00       207.50
 1302.98        2954.00           1276          51.00       198.78
 1303.01        2954.25           1279          66.00       264.17
 1303.04        2954.50           1282          56.00       220.58
 1303.07        2954.75           1286          51.00       198.78
 1303.10        2955.00           1289          58.00       229.30
 1303.14        2955.25           1292          61.00       242.37
 1303.17        2955.50           1296          55.00       216.22
 1303.20        2955.75           1299          55.00       216.22
 1303.23        2956.00           1302          60.00       238.01
 1303.26        2956.25           1306          57.00       224.94
 1303.29        2956.50           1309          55.00       216.22
 1303.32        2956.75           1312          54.00       211.86
 1303.35        2957.00           1316          54.00       211.86
 1303.38        2957.25           1319          65.00       259.81
 1303.41        2957.50           1322          48.00       185.70
 1303.44        2957.75           1326          51.00       198.78
 1303.47        2958.00           1329          60.00       238.01
 1303.50        2958.25           1332          56.00       220.58
 1303.53        2958.50           1336          66.00       264.17
 1303.56        2958.75           1339          58.00       229.30
 1303.59        2959.00           1342          61.00       242.37
 1303.62        2959.25           1346          52.00       203.14
 1303.66        2959.50           1349          70.00       281.61
 1303.69        2959.75           1352          69.00       277.25
 1303.72        2960.00           1356          86.00       351.36
 1303.75        2960.25           1359         120.00       499.57
 1303.78        2960.50           1362         150.00       630.35
 1303.81        2960.75           1366         209.00       887.56
 1303.84        2961.00           1369         241.00      1027.06
 1303.87        2961.25           1372         277.00      1184.00
 1303.90        2961.50           1376         349.00      1497.89
 1303.93        2961.75           1379         489.00      2108.24
 1303.96        2962.00           1382        1110.00      4815.87
 1303.99        2962.25           1386        2683.00     11676.28
 1304.03        2962.50           1389        4112.00     17911.11
 1304.06        2962.75           1392        5533.00     24113.35
 1304.09        2963.00           1396        7262.00     31663.02
 1304.12        2963.25           1399        8631.00     37643.18
 1304.15        2963.50           1402        9937.00     43350.15
 1304.18        2963.75           1406       11853.00     51726.24
 1304.21        2964.00           1409       13139.00     57350.55
 1304.24        2964.25           1412       14916.00     65125.37
 1304.27        2964.50           1416       16735.00     73087.72
 1304.30        2964.75           1419       17955.00     78430.18
 1304.33        2965.00           1422       19480.00     85110.68
 1304.37        2965.25           1426       21586.00     94340.74
 1304.40        2965.50           1429       22929.00    100229.40
 1304.43        2965.75           1432       24506.00    107146.80
 1304.46        2966.00           1436       26405.00    115480.50
 1304.49        2966.25           1439       27640.00    120902.40
 1304.52        2966.50           1442       28953.00    126668.80
 1304.55        2966.75           1446       30361.00    132854.50
 1304.58        2967.00           1449       30661.00    134172.80
 1304.61        2967.25           1452       30640.00    134080.50
 1304.64        2967.50           1456       30695.00    134322.20
 1304.67        2967.75           1459       30729.00    134471.60
 1304.71        2968.00           1462       30748.00    134555.10
 1304.74        2968.25           1466       29712.00    130003.00
 1304.77        2968.50           1469       28546.00    124881.10
 1304.80        2968.75           1472       27163.00    118808.10
 1304.83        2969.00           1476       25503.00    111521.60
 1304.86        2969.25           1479       23971.00    104799.80
 1304.89        2969.50           1482       22503.00     98361.31
 1304.92        2969.75           1486       20834.00     91044.32
 1304.95        2970.00           1489       19573.00     85518.16
 1304.99        2970.25           1492       17945.00     78386.38
 1305.02        2970.50           1496       16070.00     70176.36
 1305.05        2970.75           1499       14561.00     63571.87
 1305.08        2971.00           1502       13182.00     57538.65
 1305.11        2971.25           1506       11305.00     49330.15
 1305.14        2971.50           1509        9986.00     43564.31
 1305.17        2971.75           1513        7975.00     34777.33
 1305.20        2972.00           1516        6447.00     28103.90
 1305.23        2972.25           1519        5075.00     22114.06
 1305.26        2972.50           1523        3248.00     14141.13
 1305.29        2972.75           1526        1974.00      8583.73
 1305.32        2973.00           1529         919.00      3983.04
 1305.36        2973.25           1533         394.00      1694.07
 1305.39        2973.50           1536         309.00      1323.51
 1305.42        2973.75           1539         256.00      1092.45
 1305.45        2974.00           1543         219.00       931.15
 1305.48        2974.25           1546         158.00       665.23
 1305.51        2974.50           1549         119.00       495.21
 1305.54        2974.75           1553          86.00       351.36
 1305.57        2975.00           1556          66.00       264.17
 1305.60        2975.25           1559          66.00       264.17
 1305.63        2975.50           1563          54.00       211.86
 1305.66        2975.75           1566          57.00       224.94
 1305.70        2976.00           1569          52.00       203.14
 1305.73        2976.25           1573          51.00       198.78
 1305.76        2976.50           1576          56.00       220.58
 1305.79        2976.75           1579          58.00       229.30
 1305.82        2977.00           1583          57.00       224.94
 1305.85        2977.25           1586          59.00       233.65
 1305.88        2977.50           1590          52.00       203.14
 1305.91        2977.75           1593          52.00       203.14
 1305.94        2978.00           1596          49.00       190.06
 1305.97        2978.25           1600          60.00       238.01
 1306.00        2978.50           1603          51.00       198.78
 1306.03        2978.75           1606          48.00       185.70
 1306.06        2979.00           1610          49.00       190.06
 1306.09        2979.25           1613          49.00       190.06
 1306.13        2979.50           1616          52.00       203.14
 1306.16        2979.75           1620          50.00       194.42
 1306.19        2980.00           1623          53.00       207.50
 1306.22        2980.25           1626          49.00       190.06
 1306.25        2980.50           1630          52.00       203.14
 1306.28        2980.75           1633          49.00       190.06
 1306.31        2981.00           1637          57.00       224.94
 1306.34        2981.25           1640          55.00       216.22
 1306.37        2981.50           1643          52.00       203.14
 1306.40        2981.75           1647          57.00       224.94
 1306.44        2982.00           1650          52.00       203.14
 1306.47        2982.25           1653          55.00       216.22
 1306.50        2982.50           1657          53.00       207.50
 1306.53        2982.75           1660          53.00       207.50
 1306.56        2983.00           1663          51.00       198.78
 1306.59        2983.25           1667          46.00       176.98
 1306.62        2983.50           1670          48.00       185.70
 1306.65        2983.75           1673          43.00       163.91
 1306.68        2984.00           1677          63.00       251.09
HS scan finished at 21:46:54
end
