************************************************************
  HS Scan of (1) Internal mercury lamp
************************************************************
Integration time is 0.2294 seconds per sample
dh110619Manchester 53.47 2.23 2.804185pr1000
************************************************************
Dead Time -------------------------  3E-08 
Number of Cycles Used -------------  4 
Starting Wavelength (Angstroms) ---  2950 
Final Wavelength (Angstoms) -------  2984 
Wavelength Increment (Angstroms) --  .25 
Filter Wheel #1 Position ---------- (1) Ground quartz diffuser (ND=2.32)
Filter Wheel #2 Position ---------- (1) Neutral Density 0.494



************************************************************
HS scan start time = 01:35:13
Dark Count =  6.6 


Time (GMT)  Wavelength (Ang)  Step Number  Raw Counts  Counts/Second

   95.58        2950.00           1222          54.00       206.63
   95.65        2950.25           1226          63.00       245.86
   95.68        2950.50           1229          60.00       232.78
   95.71        2950.75           1232          54.00       206.63
   95.74        2951.00           1236          53.00       202.27
   95.77        2951.25           1239          52.00       197.91
   95.80        2951.50           1242          55.00       210.99
   95.83        2951.75           1246          52.00       197.91
   95.87        2952.00           1249          55.00       210.99
   95.90        2952.25           1252          60.00       232.78
   95.93        2952.50           1256          62.00       241.50
   95.96        2952.75           1259          62.00       241.50
   95.99        2953.00           1262          62.00       241.50
   96.02        2953.25           1266          55.00       210.99
   96.05        2953.50           1269          55.00       210.99
   96.08        2953.75           1272          61.00       237.14
   96.11        2954.00           1276          54.00       206.63
   96.14        2954.25           1279          64.00       250.22
   96.17        2954.50           1282          49.00       184.83
   96.20        2954.75           1286          68.00       267.66
   96.23        2955.00           1289          50.00       189.19
   96.27        2955.25           1292          52.00       197.91
   96.30        2955.50           1296          54.00       206.63
   96.33        2955.75           1299          60.00       232.78
   96.36        2956.00           1302          47.00       176.11
   96.39        2956.25           1306          50.00       189.19
   96.42        2956.50           1309          58.00       224.06
   96.45        2956.75           1312          62.00       241.50
   96.48        2957.00           1316          61.00       237.14
   96.51        2957.25           1319          59.00       228.42
   96.54        2957.50           1322          55.00       210.99
   96.58        2957.75           1326          54.00       206.63
   96.61        2958.00           1329          50.00       189.19
   96.64        2958.25           1332          54.00       206.63
   96.67        2958.50           1336          49.00       184.83
   96.70        2958.75           1339          57.00       219.71
   96.73        2959.00           1342          54.00       206.63
   96.76        2959.25           1346          52.00       197.91
   96.79        2959.50           1349          61.00       237.14
   96.82        2959.75           1352          62.00       241.50
   96.85        2960.00           1356          83.00       333.05
   96.88        2960.25           1359         116.00       476.90
   96.91        2960.50           1362         126.00       520.50
   96.95        2960.75           1366         178.00       747.18
   96.98        2961.00           1369         207.00       873.61
   97.01        2961.25           1372         259.00      1100.30
   97.04        2961.50           1376         303.00      1292.12
   97.07        2961.75           1379         454.00      1950.42
   97.10        2962.00           1382        1069.00      4631.86
   97.13        2962.25           1386        2515.00     10938.20
   97.16        2962.50           1389        3813.00     16601.12
   97.19        2962.75           1392        5042.00     21964.77
   97.22        2963.00           1396        6555.00     28570.25
   97.25        2963.25           1399        7844.00     34199.85
   97.29        2963.50           1402        9211.00     40172.19
   97.32        2963.75           1406       10943.00     47742.26
   97.35        2964.00           1409       12230.00     53369.61
   97.38        2964.25           1412       13648.00     59571.94
   97.41        2964.50           1416       15428.00     67360.93
   97.44        2964.75           1419       16711.00     72977.38
   97.47        2965.00           1422       18056.00     78867.30
   97.50        2965.25           1426       19829.00     86634.64
   97.53        2965.50           1429       21050.00     91985.84
   97.56        2965.75           1432       22017.00     96225.08
   97.60        2966.00           1436       23778.00    103947.90
   97.63        2966.25           1439       24987.00    109252.00
   97.66        2966.50           1442       26167.00    114430.50
   97.69        2966.75           1446       27410.00    119887.30
   97.72        2967.00           1449       27765.00    121446.00
   97.75        2967.25           1452       27858.00    121854.40
   97.78        2967.50           1456       27759.00    121419.70
   97.81        2967.75           1459       27705.00    121182.60
   97.84        2968.00           1462       27554.00    120519.50
   97.88        2968.25           1466       26585.00    116265.30
   97.91        2968.50           1469       25470.00    111371.50
   97.94        2968.75           1472       24454.00    106913.40
   97.97        2969.00           1476       22751.00     99443.57
   98.00        2969.25           1479       21321.00     93173.78
   98.03        2969.50           1482       20214.00     88321.78
   98.06        2969.75           1486       18625.00     81359.65
   98.09        2970.00           1489       17204.00     75136.05
   98.12        2970.25           1492       16066.00     70153.60
   98.16        2970.50           1496       14286.00     62363.30
   98.19        2970.75           1499       12821.00     55954.36
   98.22        2971.00           1502       11496.00     50160.00
   98.25        2971.25           1506        9846.00     42947.19
   98.28        2971.50           1509        8572.00     37380.17
   98.31        2971.75           1513        6953.00     30308.28
   98.34        2972.00           1516        5719.00     24920.11
   98.37        2972.25           1519        4497.00     19586.05
   98.40        2972.50           1523        2799.00     12177.07
   98.44        2972.75           1526        1583.00      6873.26
   98.47        2973.00           1529         691.00      2983.70
   98.50        2973.25           1533         380.00      1627.80
   98.53        2973.50           1536         281.00      1196.21
   98.56        2973.75           1539         259.00      1100.30
   98.59        2974.00           1543         196.00       825.65
   98.62        2974.25           1546         170.00       712.31
   98.65        2974.50           1549         125.00       516.14
   98.68        2974.75           1553          88.00       354.84
   98.71        2975.00           1556          73.00       289.45
   98.74        2975.25           1559          67.00       263.30
   98.78        2975.50           1563          60.00       232.78
   98.81        2975.75           1566          62.00       241.50
   98.84        2976.00           1569          56.00       215.35
   98.87        2976.25           1573          58.00       224.06
   98.90        2976.50           1576          51.00       193.55
   98.93        2976.75           1579          56.00       215.35
   98.96        2977.00           1583          50.00       189.19
   98.99        2977.25           1586          51.00       193.55
   99.02        2977.50           1590          51.00       193.55
   99.05        2977.75           1593          50.00       189.19
   99.08        2978.00           1596          56.00       215.35
   99.11        2978.25           1600          54.00       206.63
   99.14        2978.50           1603          49.00       184.83
   99.17        2978.75           1606          53.00       202.27
   99.21        2979.00           1610          51.00       193.55
   99.24        2979.25           1613          57.00       219.71
   99.27        2979.50           1616          52.00       197.91
   99.30        2979.75           1620          51.00       193.55
   99.33        2980.00           1623          55.00       210.99
   99.36        2980.25           1626          51.00       193.55
   99.39        2980.50           1630          55.00       210.99
   99.42        2980.75           1633          64.00       250.22
   99.45        2981.00           1637          54.00       206.63
   99.49        2981.25           1640          55.00       210.99
   99.52        2981.50           1643          53.00       202.27
   99.55        2981.75           1647          59.00       228.42
   99.58        2982.00           1650          56.00       215.35
   99.61        2982.25           1653          57.00       219.71
   99.64        2982.50           1657          50.00       189.19
   99.67        2982.75           1660          46.00       171.75
   99.70        2983.00           1663          51.00       193.55
   99.73        2983.25           1667          49.00       184.83
   99.76        2983.50           1670          44.00       163.03
   99.79        2983.75           1673          44.00       163.03
   99.83        2984.00           1677          45.00       167.39
HS scan finished at 01:40:02
end
************************************************************
  HS Scan of (1) Internal mercury lamp
************************************************************
Integration time is 0.2294 seconds per sample
dh110619Manchester 53.47 2.23 2.804185pr1000
************************************************************
Dead Time -------------------------  3E-08 
Number of Cycles Used -------------  4 
Starting Wavelength (Angstroms) ---  2950 
Final Wavelength (Angstoms) -------  2984 
Wavelength Increment (Angstroms) --  .25 
Filter Wheel #1 Position ---------- (1) Ground quartz diffuser (ND=2.32)
Filter Wheel #2 Position ---------- (1) Neutral Density 0.494



************************************************************
HS scan start time = 21:41:59
Dark Count =  4.6 


Time (GMT)  Wavelength (Ang)  Step Number  Raw Counts  Counts/Second

 1302.36        2950.00           1222          60.00       241.50
 1302.43        2950.25           1226          63.00       254.58
 1302.46        2950.50           1229          58.00       232.78
 1302.49        2950.75           1232          58.00       232.78
 1302.52        2951.00           1236          60.00       241.50
 1302.55        2951.25           1239          49.00       193.55
 1302.58        2951.50           1242          59.00       237.14
 1302.61        2951.75           1246          49.00       193.55
 1302.64        2952.00           1249          58.00       232.78
 1302.67        2952.25           1252          58.00       232.78
 1302.70        2952.50           1256          54.00       215.35
 1302.73        2952.75           1259          62.00       250.22
 1302.76        2953.00           1262          54.00       215.35
 1302.80        2953.25           1266          61.00       245.86
 1302.83        2953.50           1269          53.00       210.99
 1302.86        2953.75           1272          55.00       219.71
 1302.89        2954.00           1276          57.00       228.42
 1302.92        2954.25           1279          56.00       224.06
 1302.95        2954.50           1282          57.00       228.42
 1302.98        2954.75           1286          53.00       210.99
 1303.01        2955.00           1289          56.00       224.06
 1303.04        2955.25           1292          56.00       224.06
 1303.07        2955.50           1296          62.00       250.22
 1303.11        2955.75           1299          55.00       219.71
 1303.14        2956.00           1302          55.00       219.71
 1303.17        2956.25           1306          57.00       228.42
 1303.20        2956.50           1309          58.00       232.78
 1303.23        2956.75           1312          57.00       228.42
 1303.26        2957.00           1316          50.00       197.91
 1303.29        2957.25           1319          58.00       232.78
 1303.32        2957.50           1322          50.00       197.91
 1303.35        2957.75           1326          54.00       215.35
 1303.38        2958.00           1329          54.00       215.35
 1303.41        2958.25           1332          51.00       202.27
 1303.44        2958.50           1336          54.00       215.35
 1303.48        2958.75           1339          58.00       232.78
 1303.51        2959.00           1342          63.00       254.58
 1303.54        2959.25           1346          56.00       224.06
 1303.57        2959.50           1349          68.00       276.38
 1303.60        2959.75           1352          74.00       302.53
 1303.63        2960.00           1356         109.00       455.11
 1303.66        2960.25           1359         145.00       612.04
 1303.69        2960.50           1362         163.00       690.51
 1303.72        2960.75           1366         208.00       886.68
 1303.75        2961.00           1369         249.00      1065.42
 1303.78        2961.25           1372         279.00      1196.21
 1303.81        2961.50           1376         375.00      1614.73
 1303.84        2961.75           1379         582.00      2517.19
 1303.87        2962.00           1382        1330.00      5778.68
 1303.91        2962.25           1386        2762.00     12024.39
 1303.94        2962.50           1389        3951.00     17212.03
 1303.97        2962.75           1392        5308.00     23134.62
 1304.00        2963.00           1396        6869.00     29950.18
 1304.03        2963.25           1399        8197.00     35750.62
 1304.06        2963.50           1402        9369.00     40871.36
 1304.09        2963.75           1406       11178.00     48778.39
 1304.12        2964.00           1409       12536.00     54716.60
 1304.15        2964.25           1412       13894.00     60656.93
 1304.18        2964.50           1416       15793.00     68967.31
 1304.22        2964.75           1419       17194.00     75101.02
 1304.25        2965.00           1422       18252.00     79734.53
 1304.28        2965.25           1426       20070.00     87699.49
 1304.31        2965.50           1429       21443.00     93717.35
 1304.34        2965.75           1432       22728.00     99351.49
 1304.37        2966.00           1436       24579.00    107470.60
 1304.40        2966.25           1439       25644.00    112143.90
 1304.43        2966.50           1442       26737.00    116941.40
 1304.46        2966.75           1446       27764.00    121450.40
 1304.49        2967.00           1449       27916.00    122117.90
 1304.53        2967.25           1452       27830.00    121740.20
 1304.56        2967.50           1456       27974.00    122372.60
 1304.59        2967.75           1459       27812.00    121661.20
 1304.62        2968.00           1462       27480.00    120203.40
 1304.65        2968.25           1466       26605.00    116361.90
 1304.68        2968.50           1469       25549.00    111727.00
 1304.71        2968.75           1472       24338.00    106413.30
 1304.74        2969.00           1476       22821.00     99759.32
 1304.77        2969.25           1479       21341.00     93270.21
 1304.81        2969.50           1482       20259.00     88527.74
 1304.84        2969.75           1486       18535.00     80974.16
 1304.87        2970.00           1489       17108.00     74724.43
 1304.90        2970.25           1492       16026.00     69987.25
 1304.93        2970.50           1496       14151.00     61781.36
 1304.96        2970.75           1499       12854.00     56107.45
 1304.99        2971.00           1502       11628.00     50745.90
 1305.02        2971.25           1506        9769.00     42619.41
 1305.05        2971.50           1509        8521.00     37166.09
 1305.08        2971.75           1513        6814.00     29709.99
 1305.11        2972.00           1516        5573.00     24291.45
 1305.14        2972.25           1519        4356.00     18979.42
 1305.18        2972.50           1523        2704.00     11771.38
 1305.21        2972.75           1526        1608.00      6991.00
 1305.24        2973.00           1529         686.00      2970.62
 1305.27        2973.25           1533         339.00      1457.78
 1305.30        2973.50           1536         252.00      1078.50
 1305.33        2973.75           1539         219.00       934.64
 1305.36        2974.00           1543         186.00       790.78
 1305.39        2974.25           1546         140.00       590.25
 1305.42        2974.50           1549         103.00       428.95
 1305.46        2974.75           1553          78.00       319.97
 1305.49        2975.00           1556          65.00       263.30
 1305.52        2975.25           1559          52.00       206.63
 1305.55        2975.50           1563          58.00       232.78
 1305.58        2975.75           1566          54.00       215.35
 1305.61        2976.00           1569          58.00       232.78
 1305.64        2976.25           1573          58.00       232.78
 1305.67        2976.50           1576          52.00       206.63
 1305.70        2976.75           1579          54.00       215.35
 1305.73        2977.00           1583          54.00       215.35
 1305.76        2977.25           1586          51.00       202.27
 1305.79        2977.50           1590          58.00       232.78
 1305.83        2977.75           1593          61.00       245.86
 1305.86        2978.00           1596          55.00       219.71
 1305.89        2978.25           1600          50.00       197.91
 1305.92        2978.50           1603          50.00       197.91
 1305.95        2978.75           1606          52.00       206.63
 1305.98        2979.00           1610          54.00       215.35
 1306.01        2979.25           1613          53.00       210.99
 1306.04        2979.50           1616          56.00       224.06
 1306.07        2979.75           1620          49.00       193.55
 1306.10        2980.00           1623          52.00       206.63
 1306.13        2980.25           1626          53.00       210.99
 1306.16        2980.50           1630          51.00       202.27
 1306.19        2980.75           1633          49.00       193.55
 1306.22        2981.00           1637          53.00       210.99
 1306.26        2981.25           1640          41.00       158.68
 1306.29        2981.50           1643          52.00       206.63
 1306.32        2981.75           1647          62.00       250.22
 1306.35        2982.00           1650          52.00       206.63
 1306.38        2982.25           1653          49.00       193.55
 1306.41        2982.50           1657          50.00       197.91
 1306.44        2982.75           1660          50.00       197.91
 1306.47        2983.00           1663          53.00       210.99
 1306.50        2983.25           1667          54.00       215.35
 1306.54        2983.50           1670          55.00       219.71
 1306.57        2983.75           1673          45.00       176.11
 1306.60        2984.00           1677          63.00       254.58
HS scan finished at 21:46:49
end
