************************************************************
  HS Scan of (1) Internal mercury lamp
************************************************************
Integration time is 0.2294 seconds per sample
dh120618Manchester 53.47 2.23 2.804185pr1000
************************************************************
Dead Time -------------------------  3E-08 
Number of Cycles Used -------------  4 
Starting Wavelength (Angstroms) ---  2950 
Final Wavelength (Angstoms) -------  2984 
Wavelength Increment (Angstroms) --  .25 
Filter Wheel #1 Position ---------- (1) Ground quartz diffuser (ND=2.32)
Filter Wheel #2 Position ---------- (1) Neutral Density 0.494



************************************************************
HS scan start time = 01:37:11
Dark Count =  6.9 


Time (GMT)  Wavelength (Ang)  Step Number  Raw Counts  Counts/Second

   97.55        2950.00           1222          56.00       214.04
   97.62        2950.25           1226          60.00       231.48
   97.65        2950.50           1229          83.00       331.74
   97.68        2950.75           1232          50.00       187.88
   97.71        2951.00           1236          50.00       187.88
   97.74        2951.25           1239          52.00       196.60
   97.77        2951.50           1242          64.00       248.91
   97.81        2951.75           1246          56.00       214.04
   97.84        2952.00           1249          58.00       222.76
   97.87        2952.25           1252          52.00       196.60
   97.90        2952.50           1256          56.00       214.04
   97.93        2952.75           1259          49.00       183.52
   97.96        2953.00           1262          54.00       205.32
   97.99        2953.25           1266          66.00       257.63
   98.02        2953.50           1269          52.00       196.60
   98.05        2953.75           1272          56.00       214.04
   98.08        2954.00           1276          53.00       200.96
   98.11        2954.25           1279          56.00       214.04
   98.15        2954.50           1282          51.00       192.24
   98.18        2954.75           1286          56.00       214.04
   98.21        2955.00           1289          59.00       227.12
   98.24        2955.25           1292          59.00       227.12
   98.27        2955.50           1296          51.00       192.24
   98.30        2955.75           1299          53.00       200.96
   98.33        2956.00           1302          44.00       161.73
   98.36        2956.25           1306          62.00       240.19
   98.39        2956.50           1309          55.00       209.68
   98.43        2956.75           1312          51.00       192.24
   98.46        2957.00           1316          56.00       214.04
   98.49        2957.25           1319          54.00       205.32
   98.52        2957.50           1322          54.00       205.32
   98.55        2957.75           1326          60.00       231.48
   98.58        2958.00           1329          62.00       240.19
   98.61        2958.25           1332          54.00       205.32
   98.64        2958.50           1336          56.00       214.04
   98.68        2958.75           1339          61.00       235.83
   98.71        2959.00           1342          54.00       205.32
   98.74        2959.25           1346          54.00       205.32
   98.77        2959.50           1349          56.00       214.04
   98.80        2959.75           1352          78.00       309.94
   98.83        2960.00           1356          97.00       392.77
   98.86        2960.25           1359         130.00       536.63
   98.89        2960.50           1362         158.00       658.69
   98.92        2960.75           1366         213.00       898.45
   98.96        2961.00           1369         253.00      1072.83
   98.99        2961.25           1372         287.00      1221.06
   99.02        2961.50           1376         375.00      1604.70
   99.05        2961.75           1379         586.00      2524.60
   99.08        2962.00           1382        1342.00      5820.98
   99.11        2962.25           1386        3008.00     13087.53
   99.14        2962.50           1389        4367.00     19017.39
   99.17        2962.75           1392        5754.00     25071.60
   99.20        2963.00           1396        7688.00     33517.12
   99.24        2963.25           1399        9159.00     39943.65
   99.27        2963.50           1402       10593.00     46210.92
   99.30        2963.75           1406       12504.00     54566.58
   99.33        2964.00           1409       14087.00     61491.28
   99.36        2964.25           1412       15558.00     67928.61
   99.39        2964.50           1416       17445.00     76190.09
   99.42        2964.75           1419       18622.00     81345.18
   99.45        2965.00           1422       20250.00     88478.22
   99.48        2965.25           1426       22108.00     96622.74
   99.52        2965.50           1429       23558.00    102981.60
   99.55        2965.75           1432       24982.00    109228.70
   99.58        2966.00           1436       26989.00    118037.60
   99.61        2966.25           1439       28213.00    123412.10
   99.64        2966.50           1442       29531.00    129201.20
   99.67        2966.75           1446       30503.00    133471.90
   99.70        2967.00           1449       30763.00    134614.50
   99.73        2967.25           1452       30819.00    134860.60
   99.76        2967.50           1456       30848.00    134988.00
   99.80        2967.75           1459       30694.00    134311.20
   99.83        2968.00           1462       30556.00    133704.80
   99.86        2968.25           1466       29291.00    128146.90
   99.89        2968.50           1469       27886.00    121976.10
   99.92        2968.75           1472       26486.00    115829.40
   99.95        2969.00           1476       24743.00    108180.10
   99.98        2969.25           1479       23288.00    101797.30
  100.01        2969.50           1482       21842.00     95456.49
  100.04        2969.75           1486       19886.00     86883.09
  100.08        2970.00           1489       18454.00     80609.27
  100.11        2970.25           1492       17220.00     75204.79
  100.14        2970.50           1496       15428.00     67359.61
  100.17        2970.75           1499       13863.00     60511.23
  100.20        2971.00           1502       12565.00     54833.37
  100.23        2971.25           1506       10587.00     46184.70
  100.26        2971.50           1509        9047.00     39454.26
  100.29        2971.75           1513        7066.00     30800.46
  100.32        2972.00           1516        5617.00     24473.50
  100.35        2972.25           1519        4153.00     18083.48
  100.39        2972.50           1523        2399.00     10430.90
  100.42        2972.75           1526        1258.00      5454.69
  100.45        2973.00           1529         576.00      2481.00
  100.48        2973.25           1533         378.00      1617.78
  100.51        2973.50           1536         304.00      1295.17
  100.54        2973.75           1539         260.00      1103.35
  100.57        2974.00           1543         217.00       915.89
  100.60        2974.25           1546         159.00       663.05
  100.63        2974.50           1549         121.00       497.39
  100.66        2974.75           1553          83.00       331.74
  100.69        2975.00           1556          70.00       275.07
  100.73        2975.25           1559          58.00       222.76
  100.76        2975.50           1563          52.00       196.60
  100.79        2975.75           1566          55.00       209.68
  100.82        2976.00           1569          53.00       200.96
  100.85        2976.25           1573          49.00       183.52
  100.88        2976.50           1576          54.00       205.32
  100.91        2976.75           1579          52.00       196.60
  100.94        2977.00           1583          53.00       200.96
  100.97        2977.25           1586          53.00       200.96
  101.01        2977.50           1590          56.00       214.04
  101.04        2977.75           1593          66.00       257.63
  101.07        2978.00           1596          53.00       200.96
  101.10        2978.25           1600          49.00       183.52
  101.13        2978.50           1603          53.00       200.96
  101.16        2978.75           1606          55.00       209.68
  101.19        2979.00           1610          54.00       205.32
  101.22        2979.25           1613          52.00       196.60
  101.25        2979.50           1616          60.00       231.48
  101.28        2979.75           1620          54.00       205.32
  101.32        2980.00           1623          46.00       170.45
  101.35        2980.25           1626          60.00       231.48
  101.38        2980.50           1630          51.00       192.24
  101.41        2980.75           1633          45.00       166.09
  101.44        2981.00           1637          55.00       209.68
  101.47        2981.25           1640          48.00       179.16
  101.50        2981.50           1643          52.00       196.60
  101.53        2981.75           1647          50.00       187.88
  101.56        2982.00           1650          51.00       192.24
  101.59        2982.25           1653          49.00       183.52
  101.63        2982.50           1657          48.00       179.16
  101.66        2982.75           1660          55.00       209.68
  101.69        2983.00           1663          47.00       174.80
  101.72        2983.25           1667          48.00       179.16
  101.75        2983.50           1670          56.00       214.04
  101.78        2983.75           1673          51.00       192.24
  101.81        2984.00           1677          48.00       179.16
HS scan finished at 01:42:02
end
************************************************************
  HS Scan of (1) Internal mercury lamp
************************************************************
Integration time is 0.2294 seconds per sample
dh120618Manchester 53.47 2.23 2.911481pr1000
************************************************************
Dead Time -------------------------  3E-08 
Number of Cycles Used -------------  4 
Starting Wavelength (Angstroms) ---  2950 
Final Wavelength (Angstoms) -------  2984 
Wavelength Increment (Angstroms) --  .25 
Filter Wheel #1 Position ---------- (1) Ground quartz diffuser (ND=2.32)
Filter Wheel #2 Position ---------- (1) Neutral Density 0.494



************************************************************
HS scan start time = 21:42:12
Dark Count =  7.1 


Time (GMT)  Wavelength (Ang)  Step Number  Raw Counts  Counts/Second

 1302.56        2950.00           1222          58.00       221.88
 1302.63        2950.25           1226          52.00       195.73
 1302.66        2950.50           1229          51.00       191.37
 1302.69        2950.75           1232          64.00       248.04
 1302.72        2951.00           1236          56.00       213.17
 1302.75        2951.25           1239          58.00       221.88
 1302.78        2951.50           1242          58.00       221.88
 1302.81        2951.75           1246          57.00       217.53
 1302.85        2952.00           1249          58.00       221.88
 1302.88        2952.25           1252          57.00       217.53
 1302.91        2952.50           1256          54.00       204.45
 1302.94        2952.75           1259          55.00       208.81
 1302.97        2953.00           1262          53.00       200.09
 1303.00        2953.25           1266          61.00       234.96
 1303.03        2953.50           1269          60.00       230.60
 1303.06        2953.75           1272          46.00       169.57
 1303.09        2954.00           1276          56.00       213.17
 1303.12        2954.25           1279          58.00       221.88
 1303.15        2954.50           1282          70.00       274.20
 1303.18        2954.75           1286          56.00       213.17
 1303.21        2955.00           1289          67.00       261.12
 1303.24        2955.25           1292          54.00       204.45
 1303.27        2955.50           1296          60.00       230.60
 1303.31        2955.75           1299          52.00       195.73
 1303.34        2956.00           1302          58.00       221.88
 1303.37        2956.25           1306          50.00       187.01
 1303.40        2956.50           1309          61.00       234.96
 1303.43        2956.75           1312          60.00       230.60
 1303.46        2957.00           1316          61.00       234.96
 1303.49        2957.25           1319          59.00       226.24
 1303.52        2957.50           1322          72.00       282.91
 1303.55        2957.75           1326          61.00       234.96
 1303.58        2958.00           1329          57.00       217.53
 1303.62        2958.25           1332          60.00       230.60
 1303.65        2958.50           1336          59.00       226.24
 1303.68        2958.75           1339          61.00       234.96
 1303.71        2959.00           1342          59.00       226.24
 1303.74        2959.25           1346          65.00       252.40
 1303.77        2959.50           1349          63.00       243.68
 1303.80        2959.75           1352          74.00       291.63
 1303.83        2960.00           1356         109.00       444.21
 1303.86        2960.25           1359         142.00       588.07
 1303.89        2960.50           1362         145.00       601.14
 1303.93        2960.75           1366         220.00       928.10
 1303.96        2961.00           1369         255.00      1080.68
 1303.99        2961.25           1372         287.00      1220.18
 1304.02        2961.50           1376         381.00      1629.98
 1304.05        2961.75           1379         569.00      2449.61
 1304.08        2962.00           1382        1359.00      5894.24
 1304.11        2962.25           1386        3092.00     13453.12
 1304.14        2962.50           1389        4578.00     19937.38
 1304.17        2962.75           1392        6076.00     26476.56
 1304.21        2963.00           1396        7882.00     34363.66
 1304.24        2963.25           1399        9467.00     41288.69
 1304.27        2963.50           1402       10940.00     47726.97
 1304.30        2963.75           1406       12821.00     55952.17
 1304.33        2964.00           1409       14386.00     62798.67
 1304.36        2964.25           1412       16006.00     69888.76
 1304.39        2964.50           1416       17916.00     78251.93
 1304.42        2964.75           1419       19108.00     83473.38
 1304.45        2965.00           1422       20767.00     90743.21
 1304.48        2965.25           1426       22876.00     99989.55
 1304.52        2965.50           1429       24468.00    106972.70
 1304.55        2965.75           1432       25869.00    113120.40
 1304.58        2966.00           1436       27910.00    122080.60
 1304.61        2966.25           1439       29239.00    127917.60
 1304.64        2966.50           1442       30518.00    133537.00
 1304.67        2966.75           1446       31710.00    138775.80
 1304.70        2967.00           1449       31852.00    139400.00
 1304.73        2967.25           1452       31985.00    139984.60
 1304.76        2967.50           1456       31764.00    139013.20
 1304.80        2967.75           1459       31819.00    139254.90
 1304.83        2968.00           1462       31548.00    138063.70
 1304.86        2968.25           1466       30338.00    132746.00
 1304.89        2968.50           1469       28707.00    125580.80
 1304.92        2968.75           1472       27247.00    119169.40
 1304.95        2969.00           1476       25563.00    111777.40
 1304.98        2969.25           1479       23851.00    104265.90
 1305.01        2969.50           1482       22533.00     98485.41
 1305.04        2969.75           1486       20595.00     89989.34
 1305.08        2970.00           1489       19231.00     84012.27
 1305.11        2970.25           1492       17728.00     77428.56
 1305.14        2970.50           1496       15799.00     68982.63
 1305.17        2970.75           1499       14384.00     62789.92
 1305.20        2971.00           1502       12913.00     56354.57
 1305.23        2971.25           1506       10868.00     47412.21
 1305.26        2971.50           1509        9156.00     39929.67
 1305.29        2971.75           1513        7267.00     31677.43
 1305.33        2972.00           1516        5817.00     25345.77
 1305.36        2972.25           1519        4491.00     19557.68
 1305.39        2972.50           1523        2722.00     11838.99
 1305.42        2972.75           1526        1492.00      6474.23
 1305.45        2973.00           1529         660.00      2846.36
 1305.48        2973.25           1533         379.00      1621.26
 1305.51        2973.50           1536         305.00      1298.66
 1305.54        2973.75           1539         253.00      1071.96
 1305.57        2974.00           1543         237.00      1002.21
 1305.60        2974.25           1546         170.00       710.13
 1305.64        2974.50           1549         121.00       496.52
 1305.67        2974.75           1553          88.00       352.66
 1305.70        2975.00           1556          67.00       261.12
 1305.73        2975.25           1559          59.00       226.24
 1305.76        2975.50           1563          58.00       221.88
 1305.79        2975.75           1566          54.00       204.45
 1305.82        2976.00           1569          53.00       200.09
 1305.85        2976.25           1573          53.00       200.09
 1305.88        2976.50           1576          52.00       195.73
 1305.91        2976.75           1579          58.00       221.88
 1305.94        2977.00           1583          55.00       208.81
 1305.98        2977.25           1586          55.00       208.81
 1306.01        2977.50           1590          51.00       191.37
 1306.04        2977.75           1593          62.00       239.32
 1306.07        2978.00           1596          54.00       204.45
 1306.10        2978.25           1600          51.00       191.37
 1306.13        2978.50           1603          55.00       208.81
 1306.16        2978.75           1606          55.00       208.81
 1306.19        2979.00           1610          50.00       187.01
 1306.22        2979.25           1613          51.00       191.37
 1306.25        2979.50           1616          56.00       213.17
 1306.29        2979.75           1620          52.00       195.73
 1306.32        2980.00           1623          49.00       182.65
 1306.35        2980.25           1626          47.00       173.93
 1306.38        2980.50           1630          51.00       191.37
 1306.41        2980.75           1633          50.00       187.01
 1306.44        2981.00           1637          60.00       230.60
 1306.47        2981.25           1640          54.00       204.45
 1306.50        2981.50           1643          53.00       200.09
 1306.53        2981.75           1647          54.00       204.45
 1306.56        2982.00           1650          56.00       213.17
 1306.59        2982.25           1653          51.00       191.37
 1306.62        2982.50           1657          48.00       178.29
 1306.66        2982.75           1660          50.00       187.01
 1306.69        2983.00           1663          51.00       191.37
 1306.72        2983.25           1667          57.00       217.53
 1306.75        2983.50           1670          54.00       204.45
 1306.78        2983.75           1673          55.00       208.81
 1306.81        2984.00           1677          56.00       213.17
HS scan finished at 21:47:02
end
