************************************************************
  HS Scan of (1) Internal mercury lamp
************************************************************
Integration time is 0.2294 seconds per sample
dh120619Manchester 53.47 2.23 2.804185pr1000
************************************************************
Dead Time -------------------------  3E-08 
Number of Cycles Used -------------  4 
Starting Wavelength (Angstroms) ---  2950 
Final Wavelength (Angstoms) -------  2984 
Wavelength Increment (Angstroms) --  .25 
Filter Wheel #1 Position ---------- (1) Ground quartz diffuser (ND=2.32)
Filter Wheel #2 Position ---------- (1) Neutral Density 0.494



************************************************************
HS scan start time = 01:35:17
Dark Count =  5.9 


Time (GMT)  Wavelength (Ang)  Step Number  Raw Counts  Counts/Second

   95.65        2950.00           1222          49.00       187.88
   95.72        2950.25           1226          60.00       235.83
   95.75        2950.50           1229          59.00       231.48
   95.78        2950.75           1232          60.00       235.83
   95.81        2951.00           1236          48.00       183.52
   95.84        2951.25           1239          51.00       196.60
   95.87        2951.50           1242          55.00       214.04
   95.90        2951.75           1246          52.00       200.96
   95.93        2952.00           1249          52.00       200.96
   95.96        2952.25           1252          53.00       205.32
   95.99        2952.50           1256          54.00       209.68
   96.02        2952.75           1259          57.00       222.76
   96.05        2953.00           1262          56.00       218.40
   96.08        2953.25           1266          54.00       209.68
   96.11        2953.50           1269          54.00       209.68
   96.15        2953.75           1272          54.00       209.68
   96.18        2954.00           1276          55.00       214.04
   96.21        2954.25           1279          52.00       200.96
   96.24        2954.50           1282          60.00       235.83
   96.27        2954.75           1286          52.00       200.96
   96.30        2955.00           1289          61.00       240.19
   96.33        2955.25           1292          56.00       218.40
   96.36        2955.50           1296          57.00       222.76
   96.39        2955.75           1299          58.00       227.12
   96.42        2956.00           1302          56.00       218.40
   96.45        2956.25           1306          56.00       218.40
   96.48        2956.50           1309          62.00       244.55
   96.51        2956.75           1312          49.00       187.88
   96.55        2957.00           1316          48.00       183.52
   96.58        2957.25           1319          56.00       218.40
   96.61        2957.50           1322          59.00       231.48
   96.64        2957.75           1326          55.00       214.04
   96.67        2958.00           1329          58.00       227.12
   96.70        2958.25           1332          52.00       200.96
   96.73        2958.50           1336          57.00       222.76
   96.76        2958.75           1339          57.00       222.76
   96.79        2959.00           1342          72.00       288.15
   96.82        2959.25           1346          62.00       244.55
   96.85        2959.50           1349          58.00       227.12
   96.88        2959.75           1352          63.00       248.91
   96.91        2960.00           1356          94.00       384.05
   96.94        2960.25           1359         114.00       471.24
   96.98        2960.50           1362         143.00       597.66
   97.01        2960.75           1366         182.00       767.67
   97.04        2961.00           1369         218.00       924.61
   97.07        2961.25           1372         259.00      1103.35
   97.10        2961.50           1376         317.00      1356.20
   97.13        2961.75           1379         459.00      1975.27
   97.16        2962.00           1382        1003.00      4347.12
   97.19        2962.25           1386        2404.00     10457.07
   97.22        2962.50           1389        3632.00     15814.39
   97.25        2962.75           1392        4954.00     21583.72
   97.28        2963.00           1396        6735.00     29359.33
   97.31        2963.25           1399        7981.00     34801.36
   97.35        2963.50           1402        9149.00     39904.33
   97.38        2963.75           1406       10877.00     47456.79
   97.41        2964.00           1409       12357.00     53928.07
   97.44        2964.25           1412       13821.00     60331.86
   97.47        2964.50           1416       15510.00     67722.88
   97.50        2964.75           1419       16743.00     73120.56
   97.53        2965.00           1422       18162.00     79334.63
   97.56        2965.25           1426       19764.00     86352.89
   97.59        2965.50           1429       21061.00     92037.12
   97.63        2965.75           1432       22294.00     97442.68
   97.66        2966.00           1436       24050.00    105144.10
   97.69        2966.25           1439       25055.00    109553.50
   97.72        2966.50           1442       26377.00    115355.40
   97.75        2966.75           1446       27496.00    120267.90
   97.78        2967.00           1449       28194.00    123333.00
   97.81        2967.25           1452       28095.00    122898.20
   97.84        2967.50           1456       28188.00    123306.70
   97.87        2967.75           1459       28127.00    123038.80
   97.91        2968.00           1462       28095.00    122898.20
   97.94        2968.25           1466       26888.00    117598.60
   97.97        2968.50           1469       25906.00    113288.00
   98.00        2968.75           1472       24668.00    107855.40
   98.03        2969.00           1476       23048.00    100749.10
   98.06        2969.25           1479       21832.00     95417.03
   98.09        2969.50           1482       20654.00     90253.19
   98.12        2969.75           1486       18992.00     82970.43
   98.15        2970.00           1489       17667.00     77166.66
   98.18        2970.25           1492       16298.00     71172.30
   98.21        2970.50           1496       14604.00     63757.85
   98.24        2970.75           1499       13305.00     58074.51
   98.28        2971.00           1502       12024.00     52471.81
   98.31        2971.25           1506       10271.00     44807.80
   98.34        2971.50           1509        8943.00     39004.20
   98.37        2971.75           1513        7275.00     31717.61
   98.40        2972.00           1516        5922.00     25809.43
   98.43        2972.25           1519        4713.00     20531.82
   98.46        2972.50           1523        3079.00     13401.64
   98.49        2972.75           1526        1899.00      8254.44
   98.52        2973.00           1529         837.00      3623.32
   98.55        2973.25           1533         412.00      1770.36
   98.58        2973.50           1536         297.00      1269.01
   98.62        2973.75           1539         266.00      1133.87
   98.65        2974.00           1543         221.00       937.69
   98.68        2974.25           1546         170.00       715.36
   98.71        2974.50           1549         126.00       523.55
   98.74        2974.75           1553          93.00       379.69
   98.77        2975.00           1556          85.00       344.82
   98.80        2975.25           1559          75.00       301.22
   98.83        2975.50           1563          56.00       218.40
   98.86        2975.75           1566          62.00       244.55
   98.89        2976.00           1569          52.00       200.96
   98.92        2976.25           1573          57.00       222.76
   98.95        2976.50           1576          53.00       205.32
   98.99        2976.75           1579          53.00       205.32
   99.02        2977.00           1583          59.00       231.48
   99.05        2977.25           1586          56.00       218.40
   99.08        2977.50           1590          60.00       235.83
   99.11        2977.75           1593          51.00       196.60
   99.14        2978.00           1596          50.00       192.24
   99.17        2978.25           1600          50.00       192.24
   99.20        2978.50           1603          46.00       174.80
   99.23        2978.75           1606          47.00       179.16
   99.26        2979.00           1610          52.00       200.96
   99.29        2979.25           1613          58.00       227.12
   99.33        2979.50           1616          57.00       222.76
   99.36        2979.75           1620          56.00       218.40
   99.39        2980.00           1623          54.00       209.68
   99.42        2980.25           1626          51.00       196.60
   99.45        2980.50           1630          49.00       187.88
   99.48        2980.75           1633          50.00       192.24
   99.51        2981.00           1637          51.00       196.60
   99.54        2981.25           1640          54.00       209.68
   99.57        2981.50           1643          49.00       187.88
   99.60        2981.75           1647          63.00       248.91
   99.63        2982.00           1650          50.00       192.24
   99.66        2982.25           1653          48.00       183.52
   99.69        2982.50           1657          52.00       200.96
   99.72        2982.75           1660          56.00       218.40
   99.75        2983.00           1663          50.00       192.24
   99.78        2983.25           1667          50.00       192.24
   99.81        2983.50           1670          45.00       170.45
   99.84        2983.75           1673          46.00       174.80
   99.88        2984.00           1677          51.00       196.60
HS scan finished at 01:40:05
end
************************************************************
  HS Scan of (1) Internal mercury lamp
************************************************************
Integration time is 0.2294 seconds per sample
dh120619Manchester 53.47 2.23 2.804185pr1000
************************************************************
Dead Time -------------------------  3E-08 
Number of Cycles Used -------------  4 
Starting Wavelength (Angstroms) ---  2950 
Final Wavelength (Angstoms) -------  2984 
Wavelength Increment (Angstroms) --  .25 
Filter Wheel #1 Position ---------- (1) Ground quartz diffuser (ND=2.32)
Filter Wheel #2 Position ---------- (1) Neutral Density 0.494



************************************************************
HS scan start time = 21:42:01
Dark Count =  7 


Time (GMT)  Wavelength (Ang)  Step Number  Raw Counts  Counts/Second

 1302.39        2950.00           1222          58.00       222.32
 1302.45        2950.25           1226          59.00       226.68
 1302.48        2950.50           1229          58.00       222.32
 1302.51        2950.75           1232          53.00       200.52
 1302.54        2951.00           1236          58.00       222.32
 1302.57        2951.25           1239          57.00       217.96
 1302.61        2951.50           1242          63.00       244.12
 1302.64        2951.75           1246          52.00       196.17
 1302.67        2952.00           1249          52.00       196.17
 1302.70        2952.25           1252          57.00       217.96
 1302.73        2952.50           1256          64.00       248.48
 1302.76        2952.75           1259          50.00       187.45
 1302.79        2953.00           1262          59.00       226.68
 1302.82        2953.25           1266          53.00       200.52
 1302.85        2953.50           1269          58.00       222.32
 1302.88        2953.75           1272          57.00       217.96
 1302.91        2954.00           1276          53.00       200.52
 1302.94        2954.25           1279          54.00       204.88
 1302.97        2954.50           1282          56.00       213.60
 1303.01        2954.75           1286          57.00       217.96
 1303.04        2955.00           1289          62.00       239.76
 1303.07        2955.25           1292          61.00       235.40
 1303.10        2955.50           1296          54.00       204.88
 1303.13        2955.75           1299          56.00       213.60
 1303.16        2956.00           1302          67.00       261.55
 1303.19        2956.25           1306          53.00       200.52
 1303.22        2956.50           1309          55.00       209.24
 1303.25        2956.75           1312          49.00       183.09
 1303.29        2957.00           1316          56.00       213.60
 1303.32        2957.25           1319          60.00       231.04
 1303.35        2957.50           1322          55.00       209.24
 1303.38        2957.75           1326          56.00       213.60
 1303.41        2958.00           1329          59.00       226.68
 1303.44        2958.25           1332          54.00       204.88
 1303.47        2958.50           1336          51.00       191.81
 1303.50        2958.75           1339          58.00       222.32
 1303.53        2959.00           1342          63.00       244.12
 1303.56        2959.25           1346          59.00       226.68
 1303.59        2959.50           1349          56.00       213.60
 1303.63        2959.75           1352          69.00       270.27
 1303.66        2960.00           1356          91.00       366.18
 1303.69        2960.25           1359         119.00       488.24
 1303.72        2960.50           1362         146.00       605.94
 1303.75        2960.75           1366         190.00       797.75
 1303.78        2961.00           1369         224.00       945.97
 1303.81        2961.25           1372         248.00      1050.60
 1303.84        2961.50           1376         325.00      1386.28
 1303.87        2961.75           1379         405.00      1735.05
 1303.91        2962.00           1382         830.00      3588.01
 1303.94        2962.25           1386        2127.00      9244.06
 1303.97        2962.50           1389        3381.00     14714.43
 1304.00        2962.75           1392        4532.00     19737.05
 1304.03        2963.00           1396        6102.00     26590.51
 1304.06        2963.25           1399        7311.00     31870.04
 1304.09        2963.50           1402        8581.00     37417.75
 1304.12        2963.75           1406       10430.00     45497.99
 1304.15        2964.00           1409       11861.00     51754.23
 1304.19        2964.25           1412       13145.00     57369.80
 1304.22        2964.50           1416       14767.00     64466.32
 1304.25        2964.75           1419       16088.00     70248.16
 1304.28        2965.00           1422       17373.00     75874.35
 1304.31        2965.25           1426       19069.00     83302.96
 1304.34        2965.50           1429       20201.00     88263.06
 1304.37        2965.75           1432       21414.00     93579.69
 1304.40        2966.00           1436       23253.00    101643.40
 1304.43        2966.25           1439       24475.00    107003.80
 1304.46        2966.50           1442       25666.00    112229.90
 1304.50        2966.75           1446       26927.00    117764.90
 1304.53        2967.00           1449       27236.00    119121.60
 1304.56        2967.25           1452       27378.00    119745.00
 1304.59        2967.50           1456       27437.00    120004.10
 1304.62        2967.75           1459       27321.00    119494.70
 1304.65        2968.00           1462       27189.00    118915.20
 1304.68        2968.25           1466       26484.00    115820.20
 1304.71        2968.50           1469       25414.00    111124.00
 1304.74        2968.75           1472       24460.00    106938.00
 1304.77        2969.00           1476       22711.00     99266.41
 1304.81        2969.25           1479       21502.00     93965.48
 1304.84        2969.50           1482       20266.00     88547.90
 1304.87        2969.75           1486       18576.00     81143.23
 1304.90        2970.00           1489       17314.00     75615.98
 1304.93        2970.25           1492       15996.00     69845.43
 1304.96        2970.50           1496       14362.00     62694.10
 1304.99        2970.75           1499       13055.00     56976.13
 1305.02        2971.00           1502       11861.00     51754.23
 1305.05        2971.25           1506       10137.00     44217.30
 1305.08        2971.50           1509        9006.00     39274.67
 1305.12        2971.75           1513        7429.00     32385.42
 1305.15        2972.00           1516        6148.00     26791.36
 1305.18        2972.25           1519        4868.00     21203.55
 1305.21        2972.50           1523        3270.00     14230.14
 1305.24        2972.75           1526        1941.00      8432.82
 1305.27        2973.00           1529         948.00      4102.51
 1305.30        2973.25           1533         360.00      1538.87
 1305.33        2973.50           1536         279.00      1185.74
 1305.36        2973.75           1539         223.00       941.61
 1305.39        2974.00           1543         195.00       819.55
 1305.43        2974.25           1546         155.00       645.17
 1305.46        2974.50           1549         120.00       492.60
 1305.49        2974.75           1553          87.00       348.74
 1305.52        2975.00           1556          68.00       265.91
 1305.55        2975.25           1559          54.00       204.88
 1305.58        2975.50           1563          59.00       226.68
 1305.61        2975.75           1566          54.00       204.88
 1305.64        2976.00           1569          59.00       226.68
 1305.67        2976.25           1573          57.00       217.96
 1305.70        2976.50           1576          60.00       231.04
 1305.73        2976.75           1579          51.00       191.81
 1305.77        2977.00           1583          49.00       183.09
 1305.80        2977.25           1586          51.00       191.81
 1305.83        2977.50           1590          53.00       200.52
 1305.86        2977.75           1593          57.00       217.96
 1305.89        2978.00           1596          51.00       191.81
 1305.92        2978.25           1600          60.00       231.04
 1305.95        2978.50           1603          59.00       226.68
 1305.98        2978.75           1606          59.00       226.68
 1306.01        2979.00           1610          59.00       226.68
 1306.04        2979.25           1613          58.00       222.32
 1306.07        2979.50           1616          52.00       196.17
 1306.10        2979.75           1620          57.00       217.96
 1306.14        2980.00           1623          55.00       209.24
 1306.17        2980.25           1626          50.00       187.45
 1306.20        2980.50           1630          48.00       178.73
 1306.23        2980.75           1633          50.00       187.45
 1306.26        2981.00           1637          61.00       235.40
 1306.29        2981.25           1640          51.00       191.81
 1306.32        2981.50           1643          56.00       213.60
 1306.35        2981.75           1647          54.00       204.88
 1306.38        2982.00           1650          56.00       213.60
 1306.41        2982.25           1653          50.00       187.45
 1306.44        2982.50           1657          57.00       217.96
 1306.47        2982.75           1660          57.00       217.96
 1306.51        2983.00           1663          56.00       213.60
 1306.54        2983.25           1667          57.00       217.96
 1306.57        2983.50           1670          56.00       213.60
 1306.60        2983.75           1673          50.00       187.45
 1306.63        2984.00           1677          48.00       178.73
HS scan finished at 21:46:51
end
