************************************************************
  HS Scan of (1) Internal mercury lamp
************************************************************
Integration time is 0.2294 seconds per sample
dh130617Manchester 53.47 2.23 2.911481pr1000
************************************************************
Dead Time -------------------------  3E-08 
Number of Cycles Used -------------  4 
Starting Wavelength (Angstroms) ---  2950 
Final Wavelength (Angstoms) -------  2984 
Wavelength Increment (Angstroms) --  .25 
Filter Wheel #1 Position ---------- (1) Ground quartz diffuser (ND=2.32)
Filter Wheel #2 Position ---------- (1) Neutral Density 0.494



************************************************************
HS scan start time = 21:42:01
Dark Count =  3.8 


Time (GMT)  Wavelength (Ang)  Step Number  Raw Counts  Counts/Second

 1302.38        2950.00           1222          37.00       144.73
 1302.45        2950.25           1226          48.00       192.68
 1302.48        2950.50           1229          43.00       170.88
 1302.51        2950.75           1232          44.00       175.24
 1302.54        2951.00           1236          39.00       153.44
 1302.57        2951.25           1239          44.00       175.24
 1302.60        2951.50           1242          32.00       122.93
 1302.63        2951.75           1246          49.00       197.04
 1302.66        2952.00           1249          49.00       197.04
 1302.69        2952.25           1252          43.00       170.88
 1302.73        2952.50           1256          39.00       153.44
 1302.76        2952.75           1259          39.00       153.44
 1302.79        2953.00           1262          50.00       201.40
 1302.82        2953.25           1266          44.00       175.24
 1302.85        2953.50           1269          47.00       188.32
 1302.88        2953.75           1272          44.00       175.24
 1302.91        2954.00           1276          43.00       170.88
 1302.94        2954.25           1279          45.00       179.60
 1302.97        2954.50           1282          48.00       192.68
 1303.00        2954.75           1286          44.00       175.24
 1303.03        2955.00           1289          46.00       183.96
 1303.06        2955.25           1292          42.00       166.52
 1303.09        2955.50           1296          45.00       179.60
 1303.13        2955.75           1299          41.00       162.16
 1303.16        2956.00           1302          47.00       188.32
 1303.19        2956.25           1306          42.00       166.52
 1303.22        2956.50           1309          46.00       183.96
 1303.25        2956.75           1312          42.00       166.52
 1303.28        2957.00           1316          41.00       162.16
 1303.31        2957.25           1319          44.00       175.24
 1303.34        2957.50           1322          46.00       183.96
 1303.37        2957.75           1326          43.00       170.88
 1303.40        2958.00           1329          52.00       210.11
 1303.43        2958.25           1332          53.00       214.47
 1303.46        2958.50           1336          39.00       153.44
 1303.49        2958.75           1339          47.00       188.32
 1303.52        2959.00           1342          49.00       197.04
 1303.55        2959.25           1346          48.00       192.68
 1303.59        2959.50           1349          59.00       240.63
 1303.62        2959.75           1352          78.00       323.46
 1303.65        2960.00           1356         129.00       545.78
 1303.68        2960.25           1359         161.00       685.28
 1303.71        2960.50           1362         204.00       872.73
 1303.74        2960.75           1366         266.00      1143.02
 1303.77        2961.00           1369         296.00      1273.81
 1303.80        2961.25           1372         367.00      1583.34
 1303.83        2961.50           1376         506.00      2189.33
 1303.86        2961.75           1379         833.00      3615.04
 1303.90        2962.00           1382        1768.00      7692.27
 1303.93        2962.25           1386        3917.00     17067.15
 1303.96        2962.50           1389        5775.00     25176.81
 1303.99        2962.75           1392        7688.00     33530.67
 1304.02        2963.00           1396       10069.00     43934.07
 1304.05        2963.25           1399       11885.00     51873.17
 1304.08        2963.50           1402       13647.00     59579.81
 1304.11        2963.75           1406       16188.00     70699.93
 1304.14        2964.00           1409       18210.00     79554.06
 1304.17        2964.25           1412       19986.00     87334.88
 1304.20        2964.50           1416       22418.00     97995.60
 1304.24        2964.75           1419       24417.00    106763.40
 1304.27        2965.00           1422       26354.00    115263.60
 1304.30        2965.25           1426       28967.00    126737.30
 1304.33        2965.50           1429       30786.00    134729.20
 1304.36        2965.75           1432       32656.00    142949.10
 1304.39        2966.00           1436       35237.00    154301.10
 1304.42        2966.25           1439       36785.00    161113.40
 1304.45        2966.50           1442       38422.00    168320.30
 1304.48        2966.75           1446       40047.00    175477.60
 1304.51        2967.00           1449       40666.00    178204.80
 1304.54        2967.25           1452       40437.00    177195.80
 1304.57        2967.50           1456       40517.00    177548.30
 1304.60        2967.75           1459       40328.00    176715.60
 1304.64        2968.00           1462       40165.00    175997.40
 1304.67        2968.25           1466       38775.00    169874.90
 1304.70        2968.50           1469       37217.00    163015.00
 1304.73        2968.75           1472       35617.00    155973.10
 1304.76        2969.00           1476       33031.00    144598.00
 1304.79        2969.25           1479       31236.00    136706.90
 1304.82        2969.50           1482       29612.00    129570.70
 1304.85        2969.75           1486       26820.00    117309.20
 1304.88        2970.00           1489       24974.00    109207.30
 1304.92        2970.25           1492       23347.00    102069.70
 1304.95        2970.50           1496       20716.00     90534.14
 1304.98        2970.75           1499       18917.00     82651.07
 1305.01        2971.00           1502       16937.00     73979.18
 1305.04        2971.25           1506       14557.00     63561.37
 1305.07        2971.50           1509       12413.00     54182.16
 1305.10        2971.75           1513        9937.00     43357.14
 1305.13        2972.00           1516        8120.00     35417.74
 1305.16        2972.25           1519        6358.00     27722.26
 1305.19        2972.50           1523        4003.00     17442.43
 1305.23        2972.75           1526        2240.00      9750.89
 1305.26        2973.00           1529        1049.00      4556.86
 1305.29        2973.25           1533         449.00      1940.83
 1305.32        2973.50           1536         345.00      1487.42
 1305.35        2973.75           1539         293.00      1260.73
 1305.38        2974.00           1543         246.00      1055.83
 1305.41        2974.25           1546         175.00       746.31
 1305.44        2974.50           1549         131.00       554.50
 1305.48        2974.75           1553          80.00       332.17
 1305.51        2975.00           1556          61.00       249.35
 1305.54        2975.25           1559          54.00       218.83
 1305.57        2975.50           1563          41.00       162.16
 1305.60        2975.75           1566          42.00       166.52
 1305.63        2976.00           1569          47.00       188.32
 1305.66        2976.25           1573          46.00       183.96
 1305.69        2976.50           1576          50.00       201.40
 1305.72        2976.75           1579          49.00       197.04
 1305.75        2977.00           1583          42.00       166.52
 1305.78        2977.25           1586          55.00       223.19
 1305.81        2977.50           1590          44.00       175.24
 1305.85        2977.75           1593          44.00       175.24
 1305.88        2978.00           1596          49.00       197.04
 1305.91        2978.25           1600          50.00       201.40
 1305.94        2978.50           1603          42.00       166.52
 1305.97        2978.75           1606          44.00       175.24
 1306.00        2979.00           1610          38.00       149.09
 1306.03        2979.25           1613          40.00       157.80
 1306.06        2979.50           1616          41.00       162.16
 1306.09        2979.75           1620          44.00       175.24
 1306.12        2980.00           1623          46.00       183.96
 1306.15        2980.25           1626          41.00       162.16
 1306.19        2980.50           1630          44.00       175.24
 1306.22        2980.75           1633          43.00       170.88
 1306.25        2981.00           1637          52.00       210.11
 1306.28        2981.25           1640          41.00       162.16
 1306.31        2981.50           1643          47.00       188.32
 1306.34        2981.75           1647          46.00       183.96
 1306.37        2982.00           1650          47.00       188.32
 1306.40        2982.25           1653          48.00       192.68
 1306.43        2982.50           1657          43.00       170.88
 1306.46        2982.75           1660          48.00       192.68
 1306.49        2983.00           1663          42.00       166.52
 1306.53        2983.25           1667          48.00       192.68
 1306.56        2983.50           1670          43.00       170.88
 1306.59        2983.75           1673          44.00       175.24
 1306.62        2984.00           1677          42.00       166.52
HS scan finished at 21:46:50
end
