************************************************************
  HS Scan of (1) Internal mercury lamp
************************************************************
Integration time is 0.2294 seconds per sample
dh170617Manchester 53.47 2.23 3.018777pr1000
************************************************************
Dead Time -------------------------  3E-08 
Number of Cycles Used -------------  4 
Starting Wavelength (Angstroms) ---  2950 
Final Wavelength (Angstoms) -------  2984 
Wavelength Increment (Angstroms) --  .25 
Filter Wheel #1 Position ---------- (1) Ground quartz diffuser (ND=2.32)
Filter Wheel #2 Position ---------- (1) Neutral Density 0.494



************************************************************
HS scan start time = 01:25:55
Dark Count =  5.9 


Time (GMT)  Wavelength (Ang)  Step Number  Raw Counts  Counts/Second

   86.29        2950.00           1222          44.00       166.09
   86.35        2950.25           1226          41.00       153.01
   86.39        2950.50           1229          39.00       144.29
   86.42        2950.75           1232          40.00       148.65
   86.45        2951.00           1236          40.00       148.65
   86.48        2951.25           1239          48.00       183.52
   86.51        2951.50           1242          38.00       139.93
   86.54        2951.75           1246          39.00       144.29
   86.57        2952.00           1249          70.00       279.43
   86.60        2952.25           1252          43.00       161.73
   86.63        2952.50           1256          44.00       166.09
   86.66        2952.75           1259          40.00       148.65
   86.69        2953.00           1262          45.00       170.45
   86.72        2953.25           1266          43.00       161.73
   86.75        2953.50           1269          42.00       157.37
   86.78        2953.75           1272          41.00       153.01
   86.82        2954.00           1276          39.00       144.29
   86.85        2954.25           1279          44.00       166.09
   86.88        2954.50           1282          40.00       148.65
   86.91        2954.75           1286          41.00       153.01
   86.94        2955.00           1289          39.00       144.29
   86.97        2955.25           1292          45.00       170.45
   87.00        2955.50           1296          44.00       166.09
   87.03        2955.75           1299          47.00       179.16
   87.06        2956.00           1302          46.00       174.80
   87.09        2956.25           1306          48.00       183.52
   87.12        2956.50           1309          45.00       170.45
   87.15        2956.75           1312          47.00       179.16
   87.19        2957.00           1316          37.00       135.57
   87.22        2957.25           1319          55.00       214.04
   87.25        2957.50           1322          42.00       157.37
   87.28        2957.75           1326          49.00       187.88
   87.31        2958.00           1329          46.00       174.80
   87.34        2958.25           1332          43.00       161.73
   87.37        2958.50           1336          43.00       161.73
   87.40        2958.75           1339          41.00       153.01
   87.43        2959.00           1342          39.00       144.29
   87.46        2959.25           1346          44.00       166.09
   87.49        2959.50           1349          55.00       214.04
   87.52        2959.75           1352          71.00       283.79
   87.55        2960.00           1356         105.00       432.00
   87.58        2960.25           1359         148.00       619.45
   87.62        2960.50           1362         190.00       802.55
   87.65        2960.75           1366         266.00      1133.87
   87.68        2961.00           1369         326.00      1395.44
   87.71        2961.25           1372         364.00      1561.10
   87.74        2961.50           1376         447.00      1922.95
   87.77        2961.75           1379         569.00      2454.85
   87.80        2962.00           1382        1064.00      4613.11
   87.83        2962.25           1386        2917.00     12694.90
   87.86        2962.50           1389        4713.00     20531.82
   87.89        2962.75           1392        6587.00     28713.04
   87.92        2963.00           1396        9035.00     39406.19
   87.96        2963.25           1399       10920.00     47644.78
   87.99        2963.50           1402       12781.00     55782.46
   88.02        2963.75           1406       15204.00     66383.60
   88.05        2964.00           1409       17254.00     75358.06
   88.08        2964.25           1412       19157.00     83693.31
   88.11        2964.50           1416       21680.00     94750.65
   88.14        2964.75           1419       23606.00    103196.50
   88.17        2965.00           1422       25587.00    111888.00
   88.20        2965.25           1426       28245.00    123557.00
   88.23        2965.50           1429       30084.00    131635.20
   88.27        2965.75           1432       31955.00    139858.00
   88.30        2966.00           1436       34423.00    150710.80
   88.33        2966.25           1439       36233.00    158674.60
   88.36        2966.50           1442       38043.00    166642.30
   88.39        2966.75           1446       39962.00    175093.90
   88.42        2967.00           1449       40639.00    178076.50
   88.45        2967.25           1452       40912.00    179279.50
   88.48        2967.50           1456       40840.00    178962.20
   88.51        2967.75           1459       40809.00    178825.60
   88.55        2968.00           1462       40786.00    178724.20
   88.58        2968.25           1466       40141.00    175882.50
   88.61        2968.50           1469       38570.00    168962.90
   88.64        2968.75           1472       37013.00    162107.70
   88.67        2969.00           1476       34434.00    150759.20
   88.70        2969.25           1479       32436.00    141972.60
   88.73        2969.50           1482       30597.00    133889.40
   88.76        2969.75           1486       28178.00    123262.70
   88.79        2970.00           1489       26243.00    114767.20
   88.83        2970.25           1492       24336.00    106398.80
   88.86        2970.50           1496       21873.00     95596.78
   88.89        2970.75           1499       20199.00     88259.10
   88.92        2971.00           1502       18170.00     79369.68
   88.95        2971.25           1506       15541.00     67858.59
   88.98        2971.50           1509       13649.00     59579.37
   89.01        2971.75           1513       11160.00     48694.01
   89.04        2972.00           1516        9277.00     40463.65
   89.07        2972.25           1519        7549.00     32914.35
   89.11        2972.50           1523        5031.00     21919.82
   89.14        2972.75           1526        3230.00     14060.42
   89.17        2973.00           1529        1707.00      7417.08
   89.20        2973.25           1533         590.00      2546.40
   89.23        2973.50           1536         371.00      1591.62
   89.26        2973.75           1539         310.00      1325.68
   89.29        2974.00           1543         245.00      1042.32
   89.32        2974.25           1546         179.00       754.59
   89.35        2974.50           1549         123.00       510.47
   89.38        2974.75           1553          82.00       331.74
   89.41        2975.00           1556          64.00       253.27
   89.44        2975.25           1559          54.00       209.68
   89.47        2975.50           1563          43.00       161.73
   89.51        2975.75           1566          55.00       214.04
   89.54        2976.00           1569          59.00       231.48
   89.57        2976.25           1573          42.00       157.37
   89.60        2976.50           1576          44.00       166.09
   89.63        2976.75           1579          45.00       170.45
   89.66        2977.00           1583          55.00       214.04
   89.69        2977.25           1586          48.00       183.52
   89.72        2977.50           1590          47.00       179.16
   89.75        2977.75           1593          50.00       192.24
   89.78        2978.00           1596          52.00       200.96
   89.81        2978.25           1600          50.00       192.24
   89.84        2978.50           1603          45.00       170.45
   89.88        2978.75           1606          41.00       153.01
   89.91        2979.00           1610          45.00       170.45
   89.94        2979.25           1613          43.00       161.73
   89.97        2979.50           1616          43.00       161.73
   90.00        2979.75           1620          44.00       166.09
   90.03        2980.00           1623          40.00       148.65
   90.06        2980.25           1626          44.00       166.09
   90.09        2980.50           1630          45.00       170.45
   90.12        2980.75           1633          41.00       153.01
   90.15        2981.00           1637          41.00       153.01
   90.18        2981.25           1640          43.00       161.73
   90.22        2981.50           1643          41.00       153.01
   90.25        2981.75           1647          41.00       153.01
   90.28        2982.00           1650          51.00       196.60
   90.31        2982.25           1653          44.00       166.09
   90.34        2982.50           1657          44.00       166.09
   90.37        2982.75           1660          42.00       157.37
   90.40        2983.00           1663          35.00       126.85
   90.43        2983.25           1667          49.00       187.88
   90.46        2983.50           1670          42.00       157.37
   90.49        2983.75           1673          40.00       148.65
   90.52        2984.00           1677          45.00       170.45
HS scan finished at 01:30:44
end
************************************************************
  HS Scan of (1) Internal mercury lamp
************************************************************
Integration time is 0.2294 seconds per sample
dh170617Manchester 53.47 2.23 3.126073pr1000
************************************************************
Dead Time -------------------------  3E-08 
Number of Cycles Used -------------  4 
Starting Wavelength (Angstroms) ---  2950 
Final Wavelength (Angstoms) -------  2984 
Wavelength Increment (Angstroms) --  .25 
Filter Wheel #1 Position ---------- (1) Ground quartz diffuser (ND=2.32)
Filter Wheel #2 Position ---------- (1) Neutral Density 0.494



************************************************************
HS scan start time = 21:43:17
Dark Count =  6.7 


Time (GMT)  Wavelength (Ang)  Step Number  Raw Counts  Counts/Second

 1303.66        2950.00           1222          45.00       166.96
 1303.72        2950.25           1226          41.00       149.52
 1303.75        2950.50           1229          45.00       166.96
 1303.79        2950.75           1232          43.00       158.24
 1303.82        2951.00           1236          44.00       162.60
 1303.85        2951.25           1239          55.00       210.55
 1303.88        2951.50           1242          42.00       153.88
 1303.91        2951.75           1246          40.00       145.16
 1303.94        2952.00           1249          42.00       153.88
 1303.97        2952.25           1252          45.00       166.96
 1304.00        2952.50           1256          32.00       110.29
 1304.03        2952.75           1259          40.00       145.16
 1304.06        2953.00           1262          39.00       140.80
 1304.09        2953.25           1266          46.00       171.32
 1304.12        2953.50           1269          38.00       136.44
 1304.15        2953.75           1272          45.00       166.96
 1304.18        2954.00           1276          44.00       162.60
 1304.22        2954.25           1279          41.00       149.52
 1304.25        2954.50           1282          46.00       171.32
 1304.28        2954.75           1286          39.00       140.80
 1304.31        2955.00           1289          45.00       166.96
 1304.34        2955.25           1292          39.00       140.80
 1304.37        2955.50           1296          48.00       180.04
 1304.40        2955.75           1299          47.00       175.68
 1304.43        2956.00           1302          43.00       158.24
 1304.46        2956.25           1306          34.00       119.01
 1304.49        2956.50           1309          45.00       166.96
 1304.52        2956.75           1312          42.00       153.88
 1304.55        2957.00           1316          39.00       140.80
 1304.59        2957.25           1319          50.00       188.75
 1304.62        2957.50           1322          44.00       162.60
 1304.65        2957.75           1326          42.00       153.88
 1304.68        2958.00           1329          43.00       158.24
 1304.71        2958.25           1332          41.00       149.52
 1304.74        2958.50           1336          37.00       132.08
 1304.77        2958.75           1339          48.00       180.04
 1304.80        2959.00           1342          50.00       188.75
 1304.83        2959.25           1346          50.00       188.75
 1304.86        2959.50           1349          62.00       241.07
 1304.89        2959.75           1352          83.00       332.61
 1304.92        2960.00           1356         139.00       576.73
 1304.96        2960.25           1359         184.00       772.90
 1304.99        2960.50           1362         233.00       986.52
 1305.02        2960.75           1366         287.00      1221.93
 1305.05        2961.00           1369         348.00      1487.86
 1305.08        2961.25           1372         398.00      1705.84
 1305.11        2961.50           1376         513.00      2207.21
 1305.14        2961.75           1379         628.00      2708.59
 1305.17        2962.00           1382        1100.00      4766.59
 1305.20        2962.25           1386        2784.00     12111.20
 1305.23        2962.50           1389        4686.00     20410.49
 1305.26        2962.75           1392        6659.00     29023.95
 1305.30        2963.00           1396        9317.00     40634.95
 1305.33        2963.25           1399       11261.00     49132.09
 1305.36        2963.50           1402       13134.00     57322.99
 1305.39        2963.75           1406       15815.00     69054.41
 1305.42        2964.00           1409       17835.00     77898.93
 1305.45        2964.25           1412       19862.00     86778.81
 1305.48        2964.50           1416       22822.00     99754.50
 1305.51        2964.75           1419       24424.00    106781.40
 1305.54        2965.00           1422       26470.00    115760.10
 1305.57        2965.25           1426       29321.00    128279.60
 1305.60        2965.50           1429       31254.00    136773.20
 1305.63        2965.75           1432       33231.00    145464.70
 1305.67        2966.00           1436       35796.00    156748.00
 1305.70        2966.25           1439       37957.00    166260.10
 1305.73        2966.50           1442       39569.00    173359.20
 1305.76        2966.75           1446       41482.00    181787.80
 1305.79        2967.00           1449       42358.00    185648.80
 1305.82        2967.25           1452       42729.00    187284.30
 1305.85        2967.50           1456       42884.00    187967.60
 1305.88        2967.75           1459       42665.00    187002.10
 1305.91        2968.00           1462       42564.00    186556.90
 1305.95        2968.25           1466       41803.00    183202.50
 1305.98        2968.50           1469       39965.00    175103.60
 1306.01        2968.75           1472       38472.00    168527.80
 1306.04        2969.00           1476       35887.00    157148.50
 1306.07        2969.25           1479       33876.00    148301.30
 1306.10        2969.50           1482       31755.00    138975.40
 1306.13        2969.75           1486       29297.00    128174.10
 1306.16        2970.00           1489       27231.00    119100.90
 1306.19        2970.25           1492       25326.00    110739.10
 1306.23        2970.50           1496       22816.00     99728.18
 1306.26        2970.75           1499       20848.00     91099.99
 1306.29        2971.00           1502       19020.00     83089.60
 1306.32        2971.25           1506       16553.00     72285.19
 1306.35        2971.50           1509       14404.00     62879.18
 1306.38        2971.75           1513       11710.00     51095.26
 1306.41        2972.00           1516        9864.00     43025.42
 1306.44        2972.25           1519        7801.00     34011.58
 1306.47        2972.50           1523        5300.00     23090.53
 1306.51        2972.75           1526        3350.00     14580.48
 1306.54        2973.00           1529        1725.00      7492.09
 1306.57        2973.25           1533         570.00      2455.72
 1306.60        2973.50           1536         398.00      1705.84
 1306.63        2973.75           1539         312.00      1330.92
 1306.66        2974.00           1543         252.00      1069.35
 1306.69        2974.25           1546         173.00       724.95
 1306.72        2974.50           1549         129.00       533.14
 1306.75        2974.75           1553          74.00       293.38
 1306.78        2975.00           1556          55.00       210.55
 1306.82        2975.25           1559          49.00       184.40
 1306.85        2975.50           1563          46.00       171.32
 1306.88        2975.75           1566          49.00       184.40
 1306.91        2976.00           1569          43.00       158.24
 1306.94        2976.25           1573          48.00       180.04
 1306.97        2976.50           1576          53.00       201.83
 1307.00        2976.75           1579          44.00       162.60
 1307.03        2977.00           1583          43.00       158.24
 1307.06        2977.25           1586          43.00       158.24
 1307.09        2977.50           1590          39.00       140.80
 1307.13        2977.75           1593          45.00       166.96
 1307.16        2978.00           1596          42.00       153.88
 1307.19        2978.25           1600          41.00       149.52
 1307.22        2978.50           1603          45.00       166.96
 1307.25        2978.75           1606          44.00       162.60
 1307.28        2979.00           1610          38.00       136.44
 1307.31        2979.25           1613          43.00       158.24
 1307.34        2979.50           1616          45.00       166.96
 1307.37        2979.75           1620          43.00       158.24
 1307.40        2980.00           1623          51.00       193.11
 1307.43        2980.25           1626          55.00       210.55
 1307.47        2980.50           1630          43.00       158.24
 1307.50        2980.75           1633          43.00       158.24
 1307.53        2981.00           1637          44.00       162.60
 1307.56        2981.25           1640          49.00       184.40
 1307.59        2981.50           1643          43.00       158.24
 1307.62        2981.75           1647          43.00       158.24
 1307.65        2982.00           1650          40.00       145.16
 1307.68        2982.25           1653          48.00       180.04
 1307.71        2982.50           1657          38.00       136.44
 1307.75        2982.75           1660          44.00       162.60
 1307.78        2983.00           1663          37.00       132.08
 1307.81        2983.25           1667          40.00       145.16
 1307.84        2983.50           1670          40.00       145.16
 1307.87        2983.75           1673          37.00       132.08
 1307.90        2984.00           1677          46.00       171.32
HS scan finished at 21:48:07
end
