************************************************************
  HS Scan of (1) Internal mercury lamp
************************************************************
Integration time is 0.2294 seconds per sample
dh110618Manchester 53.47 2.23 2.911481pr1000
************************************************************
Dead Time -------------------------  3E-08 
Number of Cycles Used -------------  4 
Starting Wavelength (Angstroms) ---  2950 
Final Wavelength (Angstoms) -------  2984 
Wavelength Increment (Angstroms) --  .25 
Filter Wheel #1 Position ---------- (1) Ground quartz diffuser (ND=2.32)
Filter Wheel #2 Position ---------- (1) Neutral Density 0.494



************************************************************
HS scan start time = 01:37:24
Dark Count =  6.4 


Time (GMT)  Wavelength (Ang)  Step Number  Raw Counts  Counts/Second

   97.77        2950.00           1222          54.00       207.50
   97.84        2950.25           1226          61.00       238.01
   97.87        2950.50           1229          53.00       203.14
   97.90        2950.75           1232          67.00       264.17
   97.93        2951.00           1236          51.00       194.42
   97.96        2951.25           1239          59.00       229.30
   97.99        2951.50           1242          55.00       211.86
   98.02        2951.75           1246          60.00       233.65
   98.05        2952.00           1249          57.00       220.58
   98.08        2952.25           1252          52.00       198.78
   98.11        2952.50           1256          47.00       176.98
   98.14        2952.75           1259          51.00       194.42
   98.17        2953.00           1262          55.00       211.86
   98.21        2953.25           1266          56.00       216.22
   98.24        2953.50           1269          53.00       203.14
   98.27        2953.75           1272          54.00       207.50
   98.30        2954.00           1276          52.00       198.78
   98.33        2954.25           1279          51.00       194.42
   98.36        2954.50           1282          51.00       194.42
   98.39        2954.75           1286          59.00       229.30
   98.42        2955.00           1289          65.00       255.45
   98.45        2955.25           1292          53.00       203.14
   98.48        2955.50           1296          59.00       229.30
   98.52        2955.75           1299          48.00       181.34
   98.55        2956.00           1302          60.00       233.65
   98.58        2956.25           1306          57.00       220.58
   98.61        2956.50           1309          55.00       211.86
   98.64        2956.75           1312          62.00       242.37
   98.67        2957.00           1316          58.00       224.94
   98.70        2957.25           1319          53.00       203.14
   98.73        2957.50           1322          57.00       220.58
   98.76        2957.75           1326          57.00       220.58
   98.79        2958.00           1329          48.00       181.34
   98.82        2958.25           1332          61.00       238.01
   98.85        2958.50           1336          51.00       194.42
   98.88        2958.75           1339          57.00       220.58
   98.91        2959.00           1342          47.00       176.98
   98.95        2959.25           1346          54.00       207.50
   98.98        2959.50           1349          61.00       238.01
   99.01        2959.75           1352          74.00       294.68
   99.04        2960.00           1356         109.00       447.26
   99.07        2960.25           1359         114.00       469.06
   99.10        2960.50           1362         143.00       595.48
   99.13        2960.75           1366         206.00       870.12
   99.16        2961.00           1369         231.00       979.10
   99.19        2961.25           1372         279.00      1188.36
   99.22        2961.50           1376         342.00      1463.01
   99.26        2961.75           1379         463.00      1990.53
   99.29        2962.00           1382         944.00      4087.69
   99.32        2962.25           1386        2415.00     10502.87
   99.35        2962.50           1389        3725.00     16218.00
   99.38        2962.75           1392        5091.00     22179.53
   99.41        2963.00           1396        7068.00     30811.38
   99.44        2963.25           1399        8414.00     36690.76
   99.47        2963.50           1402        9906.00     43210.30
   99.50        2963.75           1406       12068.00     52662.03
   99.53        2964.00           1409       13538.00     59091.58
   99.57        2964.25           1412       15199.00     66359.53
   99.60        2964.50           1416       17316.00     75627.36
   99.63        2964.75           1419       18584.00     81180.91
   99.66        2965.00           1422       20211.00     88309.49
   99.69        2965.25           1426       22190.00     96984.47
   99.72        2965.50           1429       23494.00    102703.10
   99.75        2965.75           1432       24907.00    108901.90
   99.78        2966.00           1436       26848.00    117420.80
   99.81        2966.25           1439       28187.00    123300.10
   99.85        2966.50           1442       29735.00    130099.60
   99.88        2966.75           1446       31313.00    137033.90
   99.91        2967.00           1449       31384.00    137345.90
   99.94        2967.25           1452       31565.00    138141.50
   99.97        2967.50           1456       31627.00    138414.00
  100.00        2967.75           1459       31770.00    139042.60
  100.03        2968.00           1462       31498.00    137847.00
  100.06        2968.25           1466       30734.00    134489.20
  100.09        2968.50           1469       29497.00    129054.00
  100.13        2968.75           1472       28326.00    123910.50
  100.16        2969.00           1476       26348.00    115225.90
  100.19        2969.25           1479       24874.00    108757.10
  100.22        2969.50           1482       23313.00    101909.20
  100.25        2969.75           1486       21496.00     93941.81
  100.28        2970.00           1489       20065.00     87669.69
  100.31        2970.25           1492       18454.00     80611.46
  100.34        2970.50           1496       16536.00     72212.06
  100.37        2970.75           1499       14963.00     65326.69
  100.41        2971.00           1502       13695.00     59778.42
  100.44        2971.25           1506       11826.00     51603.81
  100.47        2971.50           1509       10413.00     45426.30
  100.50        2971.75           1513        8602.00     37512.11
  100.53        2972.00           1516        7186.00     31326.73
  100.56        2972.25           1519        5807.00     25305.17
  100.59        2972.50           1523        3759.00     16366.36
  100.62        2972.75           1526        2401.00     10441.81
  100.65        2973.00           1529        1141.00      4946.68
  100.69        2973.25           1533         463.00      1990.53
  100.72        2973.50           1536         306.00      1306.07
  100.75        2973.75           1539         281.00      1197.08
  100.78        2974.00           1543         236.00      1000.90
  100.81        2974.25           1546         166.00       695.74
  100.84        2974.50           1549         136.00       564.96
  100.87        2974.75           1553          85.00       342.64
  100.90        2975.00           1556          80.00       320.84
  100.93        2975.25           1559          67.00       264.17
  100.96        2975.50           1563          56.00       216.22
  101.00        2975.75           1566          56.00       216.22
  101.03        2976.00           1569          54.00       207.50
  101.06        2976.25           1573          51.00       194.42
  101.09        2976.50           1576          53.00       203.14
  101.12        2976.75           1579          54.00       207.50
  101.15        2977.00           1583          47.00       176.98
  101.18        2977.25           1586          54.00       207.50
  101.21        2977.50           1590          51.00       194.42
  101.25        2977.75           1593          56.00       216.22
  101.28        2978.00           1596          55.00       211.86
  101.31        2978.25           1600          48.00       181.34
  101.34        2978.50           1603          55.00       211.86
  101.37        2978.75           1606          45.00       168.27
  101.40        2979.00           1610          44.00       163.91
  101.43        2979.25           1613          48.00       181.34
  101.46        2979.50           1616          49.00       185.70
  101.49        2979.75           1620          55.00       211.86
  101.52        2980.00           1623          46.00       172.63
  101.56        2980.25           1626          54.00       207.50
  101.59        2980.50           1630          56.00       216.22
  101.62        2980.75           1633          48.00       181.34
  101.65        2981.00           1637          47.00       176.98
  101.68        2981.25           1640          58.00       224.94
  101.71        2981.50           1643          48.00       181.34
  101.74        2981.75           1647          51.00       194.42
  101.77        2982.00           1650          52.00       198.78
  101.80        2982.25           1653          54.00       207.50
  101.84        2982.50           1657          46.00       172.63
  101.87        2982.75           1660          51.00       194.42
  101.90        2983.00           1663          48.00       181.34
  101.93        2983.25           1667          59.00       229.30
  101.96        2983.50           1670          44.00       163.91
  101.99        2983.75           1673          51.00       194.42
  102.02        2984.00           1677          50.00       190.06
HS scan finished at 01:42:14
end
************************************************************
  HS Scan of (1) Internal mercury lamp
************************************************************
Integration time is 0.2294 seconds per sample
dh110618Manchester 53.47 2.23 2.857833pr1000
************************************************************
Dead Time -------------------------  3E-08 
Number of Cycles Used -------------  4 
Starting Wavelength (Angstroms) ---  2950 
Final Wavelength (Angstoms) -------  2984 
Wavelength Increment (Angstroms) --  .25 
Filter Wheel #1 Position ---------- (1) Ground quartz diffuser (ND=2.32)
Filter Wheel #2 Position ---------- (1) Neutral Density 0.494



************************************************************
HS scan start time = 21:42:08
Dark Count =  7.5 


Time (GMT)  Wavelength (Ang)  Step Number  Raw Counts  Counts/Second

 1302.50        2950.00           1222          50.00       185.27
 1302.56        2950.25           1226          60.00       228.86
 1302.60        2950.50           1229          65.00       250.66
 1302.63        2950.75           1232          53.00       198.34
 1302.66        2951.00           1236          58.00       220.14
 1302.69        2951.25           1239          56.00       211.42
 1302.72        2951.50           1242          61.00       233.22
 1302.75        2951.75           1246          54.00       202.70
 1302.78        2952.00           1249          61.00       233.22
 1302.81        2952.25           1252          47.00       172.19
 1302.85        2952.50           1256          62.00       237.58
 1302.88        2952.75           1259          55.00       207.06
 1302.91        2953.00           1262          53.00       198.34
 1302.94        2953.25           1266          57.00       215.78
 1302.97        2953.50           1269          50.00       185.27
 1303.00        2953.75           1272          67.00       259.37
 1303.03        2954.00           1276          54.00       202.70
 1303.06        2954.25           1279          58.00       220.14
 1303.09        2954.50           1282          56.00       211.42
 1303.12        2954.75           1286          53.00       198.34
 1303.15        2955.00           1289          63.00       241.94
 1303.18        2955.25           1292          55.00       207.06
 1303.21        2955.50           1296          57.00       215.78
 1303.24        2955.75           1299          70.00       272.45
 1303.28        2956.00           1302          53.00       198.34
 1303.31        2956.25           1306          57.00       215.78
 1303.34        2956.50           1309          55.00       207.06
 1303.37        2956.75           1312          62.00       237.58
 1303.40        2957.00           1316          57.00       215.78
 1303.43        2957.25           1319          54.00       202.70
 1303.46        2957.50           1322          57.00       215.78
 1303.49        2957.75           1326          63.00       241.94
 1303.52        2958.00           1329          60.00       228.86
 1303.55        2958.25           1332          55.00       207.06
 1303.58        2958.50           1336          61.00       233.22
 1303.61        2958.75           1339          57.00       215.78
 1303.65        2959.00           1342          55.00       207.06
 1303.68        2959.25           1346          64.00       246.30
 1303.71        2959.50           1349          71.00       276.81
 1303.74        2959.75           1352          77.00       302.97
 1303.77        2960.00           1356         104.00       420.67
 1303.80        2960.25           1359         144.00       595.04
 1303.83        2960.50           1362         176.00       734.54
 1303.86        2960.75           1366         228.00       961.23
 1303.89        2961.00           1369         290.00      1231.52
 1303.92        2961.25           1372         311.00      1323.07
 1303.96        2961.50           1376         386.00      1650.04
 1303.99        2961.75           1379         718.00      3097.50
 1304.02        2962.00           1382        1569.00      6808.28
 1304.05        2962.25           1386        3293.00     14328.30
 1304.08        2962.50           1389        4742.00     20651.41
 1304.11        2962.75           1392        6084.00     26509.74
 1304.14        2963.00           1396        7963.00     34715.74
 1304.17        2963.25           1399        9491.00     41391.82
 1304.20        2963.50           1402       11106.00     48450.94
 1304.23        2963.75           1406       13021.00     56825.22
 1304.27        2964.00           1409       14350.00     62639.40
 1304.30        2964.25           1412       16046.00     70062.10
 1304.33        2964.50           1416       18000.00     78618.07
 1304.36        2964.75           1419       19493.00     85158.44
 1304.39        2965.00           1422       21028.00     91885.47
 1304.42        2965.25           1426       23028.00    100654.40
 1304.45        2965.50           1429       24572.00    107427.20
 1304.48        2965.75           1432       25841.00    112995.70
 1304.52        2966.00           1436       28048.00    122684.80
 1304.55        2966.25           1439       29281.00    128100.30
 1304.58        2966.50           1442       30395.00    132994.70
 1304.61        2966.75           1446       31814.00    139231.20
 1304.64        2967.00           1449       32000.00    140048.80
 1304.67        2967.25           1452       32120.00    140576.40
 1304.70        2967.50           1456       32026.00    140163.10
 1304.73        2967.75           1459       31912.00    139662.00
 1304.76        2968.00           1462       31619.00    138374.00
 1304.79        2968.25           1466       30489.00    133407.80
 1304.83        2968.50           1469       29002.00    126874.80
 1304.86        2968.75           1472       27780.00    121508.00
 1304.89        2969.00           1476       25947.00    113461.00
 1304.92        2969.25           1479       24687.00    107931.70
 1304.95        2969.50           1482       23265.00    101693.80
 1304.98        2969.75           1486       21235.00     92792.84
 1305.01        2970.00           1489       19624.00     85732.43
 1305.04        2970.25           1492       18344.00     80124.81
 1305.07        2970.50           1496       16481.00     71966.46
 1305.10        2970.75           1499       14829.00     64735.45
 1305.13        2971.00           1502       13404.00     58500.58
 1305.17        2971.25           1506       11266.00     49150.45
 1305.20        2971.50           1509        9891.00     43139.93
 1305.23        2971.75           1513        7841.00     34182.81
 1305.26        2972.00           1516        6383.00     27815.27
 1305.29        2972.25           1519        4925.00     21450.16
 1305.32        2972.50           1523        3068.00     13346.67
 1305.35        2972.75           1526        1792.00      7780.80
 1305.38        2973.00           1529         763.00      3293.70
 1305.41        2973.25           1533         384.00      1641.32
 1305.45        2973.50           1536         309.00      1314.35
 1305.48        2973.75           1539         259.00      1096.37
 1305.51        2974.00           1543         203.00       852.24
 1305.54        2974.25           1546         140.00       577.60
 1305.57        2974.50           1549         111.00       451.18
 1305.60        2974.75           1553          79.00       311.69
 1305.63        2975.00           1556          66.00       255.02
 1305.66        2975.25           1559          63.00       241.94
 1305.69        2975.50           1563          51.00       189.63
 1305.72        2975.75           1566          52.00       193.99
 1305.76        2976.00           1569          57.00       215.78
 1305.79        2976.25           1573          45.00       163.47
 1305.82        2976.50           1576          59.00       224.50
 1305.85        2976.75           1579          57.00       215.78
 1305.88        2977.00           1583          53.00       198.34
 1305.91        2977.25           1586          47.00       172.19
 1305.94        2977.50           1590          57.00       215.78
 1305.97        2977.75           1593          57.00       215.78
 1306.00        2978.00           1596          47.00       172.19
 1306.03        2978.25           1600          61.00       233.22
 1306.06        2978.50           1603          50.00       185.27
 1306.10        2978.75           1606          60.00       228.86
 1306.13        2979.00           1610          54.00       202.70
 1306.16        2979.25           1613          58.00       220.14
 1306.19        2979.50           1616          56.00       211.42
 1306.22        2979.75           1620          48.00       176.55
 1306.25        2980.00           1623          50.00       185.27
 1306.28        2980.25           1626          55.00       207.06
 1306.31        2980.50           1630          47.00       172.19
 1306.34        2980.75           1633          56.00       211.42
 1306.37        2981.00           1637          62.00       237.58
 1306.40        2981.25           1640          48.00       176.55
 1306.43        2981.50           1643          55.00       207.06
 1306.46        2981.75           1647          59.00       224.50
 1306.49        2982.00           1650          47.00       172.19
 1306.52        2982.25           1653          49.00       180.91
 1306.55        2982.50           1657          50.00       185.27
 1306.59        2982.75           1660          52.00       193.99
 1306.62        2983.00           1663          44.00       159.11
 1306.65        2983.25           1667          53.00       198.34
 1306.68        2983.50           1670          57.00       215.78
 1306.71        2983.75           1673          45.00       163.47
 1306.74        2984.00           1677          56.00       211.42
HS scan finished at 21:46:58
end
