************************************************************
  HS Scan of (1) Internal mercury lamp
************************************************************
Integration time is 0.2294 seconds per sample
dh100619Manchester 53.47 2.23 2.804185pr1000
************************************************************
Dead Time -------------------------  3E-08 
Number of Cycles Used -------------  4 
Starting Wavelength (Angstroms) ---  2950 
Final Wavelength (Angstoms) -------  2984 
Wavelength Increment (Angstroms) --  .25 
Filter Wheel #1 Position ---------- (1) Ground quartz diffuser (ND=2.32)
Filter Wheel #2 Position ---------- (1) Neutral Density 0.494



************************************************************
HS scan start time = 01:24:31
Dark Count =  6.8 


Time (GMT)  Wavelength (Ang)  Step Number  Raw Counts  Counts/Second

   84.88        2950.00           1222          56.00       214.47
   84.95        2950.25           1226          54.00       205.76
   84.98        2950.50           1229          61.00       236.27
   85.01        2950.75           1232          47.00       175.24
   85.04        2951.00           1236          58.00       223.19
   85.07        2951.25           1239          60.00       231.91
   85.10        2951.50           1242          59.00       227.55
   85.13        2951.75           1246          74.00       292.94
   85.16        2952.00           1249          51.00       192.68
   85.19        2952.25           1252          61.00       236.27
   85.23        2952.50           1256          60.00       231.91
   85.26        2952.75           1259          56.00       214.47
   85.29        2953.00           1262          61.00       236.27
   85.32        2953.25           1266          53.00       201.40
   85.35        2953.50           1269          55.00       210.11
   85.38        2953.75           1272          48.00       179.60
   85.41        2954.00           1276          58.00       223.19
   85.44        2954.25           1279          69.00       271.14
   85.47        2954.50           1282          54.00       205.76
   85.50        2954.75           1286          50.00       188.32
   85.53        2955.00           1289          55.00       210.11
   85.57        2955.25           1292          62.00       240.63
   85.60        2955.50           1296          49.00       183.96
   85.63        2955.75           1299          50.00       188.32
   85.66        2956.00           1302          49.00       183.96
   85.69        2956.25           1306          65.00       253.71
   85.72        2956.50           1309          58.00       223.19
   85.75        2956.75           1312          49.00       183.96
   85.78        2957.00           1316          56.00       214.47
   85.81        2957.25           1319          56.00       214.47
   85.84        2957.50           1322          55.00       210.11
   85.88        2957.75           1326          57.00       218.83
   85.91        2958.00           1329          58.00       223.19
   85.94        2958.25           1332          57.00       218.83
   85.97        2958.50           1336          63.00       244.99
   86.00        2958.75           1339          55.00       210.11
   86.03        2959.00           1342          55.00       210.11
   86.06        2959.25           1346          57.00       218.83
   86.09        2959.50           1349          69.00       271.14
   86.12        2959.75           1352          78.00       310.38
   86.15        2960.00           1356         102.00       415.00
   86.18        2960.25           1359         131.00       541.42
   86.22        2960.50           1362         151.00       628.61
   86.25        2960.75           1366         216.00       911.97
   86.28        2961.00           1369         255.00      1081.99
   86.31        2961.25           1372         273.00      1160.46
   86.34        2961.50           1376         333.00      1422.03
   86.37        2961.75           1379         459.00      1971.35
   86.40        2962.00           1382         954.00      4129.54
   86.43        2962.25           1386        2399.00     10431.34
   86.47        2962.50           1389        3594.00     15644.66
   86.50        2962.75           1392        4813.00     20964.36
   86.53        2963.00           1396        6394.00     27866.36
   86.56        2963.25           1399        7655.00     33373.42
   86.59        2963.50           1402        8994.00     39223.11
   86.62        2963.75           1406       10767.00     46971.99
   86.65        2964.00           1409       12063.00     52638.42
   86.68        2964.25           1412       13489.00     58875.49
   86.71        2964.50           1416       15303.00     66812.96
   86.75        2964.75           1419       16406.00     71641.16
   86.78        2965.00           1422       17654.00     77105.79
   86.81        2965.25           1426       19431.00     84889.84
   86.84        2965.50           1429       20786.00     90827.80
   86.87        2965.75           1432       21956.00     95956.74
   86.90        2966.00           1436       23763.00    103881.20
   86.93        2966.25           1439       24873.00    108750.90
   86.96        2966.50           1442       26202.00    114583.30
   87.00        2966.75           1446       27632.00    120861.10
   87.03        2967.00           1449       27971.00    122349.80
   87.06        2967.25           1452       28127.00    123034.80
   87.09        2967.50           1456       28182.00    123276.40
   87.12        2967.75           1459       27999.00    122472.70
   87.15        2968.00           1462       27849.00    121814.00
   87.18        2968.25           1466       27453.00    120075.20
   87.21        2968.50           1469       26186.00    114513.00
   87.24        2968.75           1472       25062.00    109580.20
   87.27        2969.00           1476       23255.00    101653.00
   87.31        2969.25           1479       21962.00     95983.05
   87.34        2969.50           1482       20705.00     90472.78
   87.37        2969.75           1486       18979.00     82909.53
   87.40        2970.00           1489       17620.00     76956.88
   87.43        2970.25           1492       16569.00     72354.79
   87.46        2970.50           1496       14949.00     65263.66
   87.49        2970.75           1499       13686.00     59737.31
   87.52        2971.00           1502       12330.00     53806.06
   87.55        2971.25           1506       10544.00     45997.17
   87.59        2971.50           1509        9231.00     40258.71
   87.62        2971.75           1513        7584.00     33063.30
   87.65        2972.00           1516        6253.00     27250.69
   87.68        2972.25           1519        4929.00     21470.67
   87.71        2972.50           1523        3305.00     14383.71
   87.74        2972.75           1526        2059.00      8948.35
   87.77        2973.00           1529         948.00      4103.38
   87.80        2973.25           1533         370.00      1583.34
   87.83        2973.50           1536         270.00      1147.38
   87.87        2973.75           1539         225.00       951.20
   87.90        2974.00           1543         186.00       781.19
   87.93        2974.25           1546         147.00       611.17
   87.96        2974.50           1549         106.00       432.44
   87.99        2974.75           1553          76.00       301.66
   88.02        2975.00           1556          62.00       240.63
   88.05        2975.25           1559          57.00       218.83
   88.08        2975.50           1563          50.00       188.32
   88.11        2975.75           1566          45.00       166.52
   88.14        2976.00           1569          52.00       197.04
   88.17        2976.25           1573          65.00       253.71
   88.21        2976.50           1576          56.00       214.47
   88.24        2976.75           1579          58.00       223.19
   88.27        2977.00           1583          56.00       214.47
   88.30        2977.25           1586          59.00       227.55
   88.33        2977.50           1590          54.00       205.76
   88.36        2977.75           1593          58.00       223.19
   88.39        2978.00           1596          50.00       188.32
   88.42        2978.25           1600          47.00       175.24
   88.45        2978.50           1603          50.00       188.32
   88.49        2978.75           1606          49.00       183.96
   88.52        2979.00           1610          48.00       179.60
   88.55        2979.25           1613          55.00       210.11
   88.58        2979.50           1616          48.00       179.60
   88.61        2979.75           1620          55.00       210.11
   88.64        2980.00           1623          49.00       183.96
   88.67        2980.25           1626          56.00       214.47
   88.70        2980.50           1630          54.00       205.76
   88.73        2980.75           1633          51.00       192.68
   88.76        2981.00           1637          52.00       197.04
   88.79        2981.25           1640          53.00       201.40
   88.82        2981.50           1643          52.00       197.04
   88.85        2981.75           1647          53.00       201.40
   88.89        2982.00           1650          49.00       183.96
   88.92        2982.25           1653          54.00       205.76
   88.95        2982.50           1657          52.00       197.04
   88.98        2982.75           1660          45.00       166.52
   89.01        2983.00           1663          49.00       183.96
   89.04        2983.25           1667          52.00       197.04
   89.07        2983.50           1670          52.00       197.04
   89.10        2983.75           1673          54.00       205.76
   89.13        2984.00           1677          50.00       188.32
HS scan finished at 01:29:21
end
************************************************************
  HS Scan of (1) Internal mercury lamp
************************************************************
Integration time is 0.2294 seconds per sample
dh100619Manchester 53.47 2.23 2.804185pr1000
************************************************************
Dead Time -------------------------  3E-08 
Number of Cycles Used -------------  4 
Starting Wavelength (Angstroms) ---  2950 
Final Wavelength (Angstoms) -------  2984 
Wavelength Increment (Angstroms) --  .25 
Filter Wheel #1 Position ---------- (1) Ground quartz diffuser (ND=2.32)
Filter Wheel #2 Position ---------- (1) Neutral Density 0.494



************************************************************
HS scan start time = 21:42:00
Dark Count =  5.1 


Time (GMT)  Wavelength (Ang)  Step Number  Raw Counts  Counts/Second

 1302.37        2950.00           1222          59.00       234.96
 1302.44        2950.25           1226          63.00       252.40
 1302.47        2950.50           1229          58.00       230.60
 1302.50        2950.75           1232          61.00       243.68
 1302.53        2951.00           1236          58.00       230.60
 1302.56        2951.25           1239          54.00       213.17
 1302.60        2951.50           1242          54.00       213.17
 1302.63        2951.75           1246          65.00       261.12
 1302.66        2952.00           1249          60.00       239.32
 1302.69        2952.25           1252          61.00       243.68
 1302.72        2952.50           1256          55.00       217.53
 1302.75        2952.75           1259          54.00       213.17
 1302.78        2953.00           1262          54.00       213.17
 1302.81        2953.25           1266          64.00       256.76
 1302.84        2953.50           1269          54.00       213.17
 1302.87        2953.75           1272          52.00       204.45
 1302.90        2954.00           1276          59.00       234.96
 1302.93        2954.25           1279          57.00       226.24
 1302.97        2954.50           1282          56.00       221.88
 1303.00        2954.75           1286          45.00       173.93
 1303.03        2955.00           1289          53.00       208.81
 1303.06        2955.25           1292          57.00       226.24
 1303.09        2955.50           1296          54.00       213.17
 1303.12        2955.75           1299          53.00       208.81
 1303.15        2956.00           1302          60.00       239.32
 1303.18        2956.25           1306          54.00       213.17
 1303.21        2956.50           1309          57.00       226.24
 1303.24        2956.75           1312          60.00       239.32
 1303.27        2957.00           1316          53.00       208.81
 1303.30        2957.25           1319          54.00       213.17
 1303.33        2957.50           1322          60.00       239.32
 1303.37        2957.75           1326          61.00       243.68
 1303.40        2958.00           1329          52.00       204.45
 1303.43        2958.25           1332          49.00       191.37
 1303.46        2958.50           1336          56.00       221.88
 1303.49        2958.75           1339          54.00       213.17
 1303.52        2959.00           1342          55.00       217.53
 1303.55        2959.25           1346          53.00       208.81
 1303.58        2959.50           1349          72.00       291.63
 1303.61        2959.75           1352          79.00       322.15
 1303.64        2960.00           1356         106.00       439.85
 1303.68        2960.25           1359         128.00       535.75
 1303.71        2960.50           1362         172.00       727.57
 1303.74        2960.75           1366         204.00       867.07
 1303.77        2961.00           1369         225.00       958.62
 1303.80        2961.25           1372         282.00      1207.11
 1303.83        2961.50           1376         336.00      1442.52
 1303.86        2961.75           1379         574.00      2480.13
 1303.89        2962.00           1382        1279.00      5554.11
 1303.92        2962.25           1386        2846.00     12388.65
 1303.95        2962.50           1389        4144.00     18052.06
 1303.98        2962.75           1392        5346.00     23298.32
 1304.02        2963.00           1396        6919.00     30166.35
 1304.05        2963.25           1399        8320.00     36285.78
 1304.08        2963.50           1402        9495.00     41419.79
 1304.11        2963.75           1406       11231.00     49007.92
 1304.14        2964.00           1409       12582.00     54915.60
 1304.17        2964.25           1412       13852.00     60470.99
 1304.20        2964.50           1416       15597.00     68107.20
 1304.23        2964.75           1419       16849.00     73588.18
 1304.26        2965.00           1422       18247.00     79710.44
 1304.29        2965.25           1426       20082.00     87749.88
 1304.33        2965.50           1429       21288.00     93035.68
 1304.36        2965.75           1432       22705.00     99248.43
 1304.39        2966.00           1436       24174.00    105691.60
 1304.42        2966.25           1439       25488.00    111457.10
 1304.45        2966.50           1442       26581.00    116254.40
 1304.48        2966.75           1446       27677.00    121066.20
 1304.51        2967.00           1449       27770.00    121474.60
 1304.54        2967.25           1452       27937.00    122207.90
 1304.57        2967.50           1456       27932.00    122186.00
 1304.61        2967.75           1459       27757.00    121417.50
 1304.64        2968.00           1462       27541.00    120469.10
 1304.67        2968.25           1466       26579.00    116245.60
 1304.70        2968.50           1469       25265.00    110478.50
 1304.73        2968.75           1472       24178.00    105709.20
 1304.76        2969.00           1476       22671.00     99099.33
 1304.79        2969.25           1479       21239.00     92820.89
 1304.82        2969.50           1482       19963.00     87228.40
 1304.85        2969.75           1486       18493.00     80788.00
 1304.88        2970.00           1489       17149.00     74901.78
 1304.92        2970.25           1492       15915.00     69499.16
 1304.95        2970.50           1496       14239.00     62164.22
 1304.98        2970.75           1499       12836.00     56026.53
 1305.01        2971.00           1502       11475.00     50074.74
 1305.04        2971.25           1506        9827.00     42870.71
 1305.07        2971.50           1509        8462.00     36906.15
 1305.10        2971.75           1513        6725.00     29319.15
 1305.13        2972.00           1516        5504.00     23988.05
 1305.16        2972.25           1519        4251.00     18519.00
 1305.20        2972.50           1523        2627.00     11433.30
 1305.23        2972.75           1526        1476.00      6413.18
 1305.26        2973.00           1529         617.00      2667.61
 1305.29        2973.25           1533         347.00      1490.48
 1305.32        2973.50           1536         271.00      1159.15
 1305.35        2973.75           1539         236.00      1006.57
 1305.38        2974.00           1543         209.00       888.86
 1305.41        2974.25           1546         152.00       640.38
 1305.44        2974.50           1549         120.00       500.88
 1305.47        2974.75           1553          89.00       365.74
 1305.51        2975.00           1556          64.00       256.76
 1305.54        2975.25           1559          51.00       200.09
 1305.57        2975.50           1563          59.00       234.96
 1305.60        2975.75           1566          54.00       213.17
 1305.63        2976.00           1569          54.00       213.17
 1305.66        2976.25           1573          55.00       217.53
 1305.69        2976.50           1576          51.00       200.09
 1305.72        2976.75           1579          54.00       213.17
 1305.75        2977.00           1583          50.00       195.73
 1305.78        2977.25           1586          56.00       221.88
 1305.81        2977.50           1590          56.00       221.88
 1305.84        2977.75           1593          53.00       208.81
 1305.87        2978.00           1596          54.00       213.17
 1305.90        2978.25           1600          44.00       169.57
 1305.94        2978.50           1603          55.00       217.53
 1305.97        2978.75           1606          54.00       213.17
 1306.00        2979.00           1610          55.00       217.53
 1306.03        2979.25           1613          49.00       191.37
 1306.06        2979.50           1616          50.00       195.73
 1306.09        2979.75           1620          48.00       187.01
 1306.13        2980.00           1623          48.00       187.01
 1306.16        2980.25           1626          53.00       208.81
 1306.19        2980.50           1630          51.00       200.09
 1306.22        2980.75           1633          53.00       208.81
 1306.25        2981.00           1637          56.00       221.88
 1306.28        2981.25           1640          49.00       191.37
 1306.31        2981.50           1643          47.00       182.65
 1306.34        2981.75           1647          56.00       221.88
 1306.38        2982.00           1650          51.00       200.09
 1306.41        2982.25           1653          50.00       195.73
 1306.44        2982.50           1657          47.00       182.65
 1306.47        2982.75           1660          51.00       200.09
 1306.50        2983.00           1663          55.00       217.53
 1306.53        2983.25           1667          50.00       195.73
 1306.56        2983.50           1670          59.00       234.96
 1306.59        2983.75           1673          48.00       187.01
 1306.62        2984.00           1677          45.00       173.93
HS scan finished at 21:46:50
end
