************************************************************
  HS Scan of (1) Internal mercury lamp
************************************************************
Integration time is 0.2294 seconds per sample
dh140617Manchester 53.47 2.23 2.857833pr1000
************************************************************
Dead Time -------------------------  3E-08 
Number of Cycles Used -------------  4 
Starting Wavelength (Angstroms) ---  2950 
Final Wavelength (Angstoms) -------  2984 
Wavelength Increment (Angstroms) --  .25 
Filter Wheel #1 Position ---------- (1) Ground quartz diffuser (ND=2.32)
Filter Wheel #2 Position ---------- (1) Neutral Density 0.494



************************************************************
HS scan start time = 02:13:24
Dark Count =  5.9 


Time (GMT)  Wavelength (Ang)  Step Number  Raw Counts  Counts/Second

  133.77        2950.00           1222          48.00       183.52
  133.83        2950.25           1226          39.00       144.29
  133.86        2950.50           1229          48.00       183.52
  133.90        2950.75           1232          46.00       174.80
  133.93        2951.00           1236          38.00       139.93
  133.96        2951.25           1239          47.00       179.16
  133.99        2951.50           1242          46.00       174.80
  134.02        2951.75           1246          43.00       161.73
  134.05        2952.00           1249          43.00       161.73
  134.08        2952.25           1252          45.00       170.45
  134.11        2952.50           1256          49.00       187.88
  134.14        2952.75           1259          45.00       170.45
  134.18        2953.00           1262          44.00       166.09
  134.21        2953.25           1266          47.00       179.16
  134.24        2953.50           1269          44.00       166.09
  134.27        2953.75           1272          45.00       170.45
  134.30        2954.00           1276          47.00       179.16
  134.33        2954.25           1279          42.00       157.37
  134.36        2954.50           1282          42.00       157.37
  134.39        2954.75           1286          45.00       170.45
  134.42        2955.00           1289          51.00       196.60
  134.45        2955.25           1292          50.00       192.24
  134.48        2955.50           1296          48.00       183.52
  134.51        2955.75           1299          48.00       183.52
  134.55        2956.00           1302          54.00       209.68
  134.58        2956.25           1306          42.00       157.37
  134.61        2956.50           1309          47.00       179.16
  134.64        2956.75           1312          46.00       174.80
  134.67        2957.00           1316          49.00       187.88
  134.70        2957.25           1319          44.00       166.09
  134.73        2957.50           1322          40.00       148.65
  134.76        2957.75           1326          44.00       166.09
  134.79        2958.00           1329          45.00       170.45
  134.82        2958.25           1332          43.00       161.73
  134.85        2958.50           1336          48.00       183.52
  134.88        2958.75           1339          50.00       192.24
  134.92        2959.00           1342          46.00       174.80
  134.95        2959.25           1346          50.00       192.24
  134.98        2959.50           1349          46.00       174.80
  135.01        2959.75           1352          68.00       270.71
  135.04        2960.00           1356         106.00       436.36
  135.07        2960.25           1359         131.00       545.34
  135.10        2960.50           1362         179.00       754.59
  135.13        2960.75           1366         240.00      1020.52
  135.16        2961.00           1369         295.00      1260.29
  135.19        2961.25           1372         336.00      1439.03
  135.22        2961.50           1376         440.00      1892.44
  135.25        2961.75           1379         669.00      2890.84
  135.28        2962.00           1382        1303.00      5655.27
  135.31        2962.25           1386        3188.00     13877.18
  135.35        2962.50           1389        5024.00     21889.26
  135.38        2962.75           1392        6758.00     29459.77
  135.41        2963.00           1396        9153.00     39921.81
  135.44        2963.25           1399       10824.00     47225.10
  135.47        2963.50           1402       12460.00     54378.53
  135.50        2963.75           1406       14994.00     65464.54
  135.53        2964.00           1409       16765.00     73216.88
  135.56        2964.25           1412       18697.00     81678.10
  135.59        2964.50           1416       21052.00     91997.68
  135.62        2964.75           1419       22886.00    100038.70
  135.65        2965.00           1422       24631.00    107693.10
  135.68        2965.25           1426       27282.00    119328.30
  135.72        2965.50           1429       29103.00    127325.50
  135.75        2965.75           1432       30776.00    134676.00
  135.78        2966.00           1436       33200.00    145331.90
  135.81        2966.25           1439       34706.00    151955.80
  135.84        2966.50           1442       36051.00    157873.70
  135.87        2966.75           1446       37694.00    165105.70
  135.90        2967.00           1449       38339.00    167945.60
  135.93        2967.25           1452       38264.00    167615.40
  135.96        2967.50           1456       38481.00    168570.90
  136.00        2967.75           1459       38383.00    168139.40
  136.03        2968.00           1462       37951.00    166237.20
  136.06        2968.25           1466       36894.00    161583.90
  136.09        2968.50           1469       35183.00    154054.30
  136.12        2968.75           1472       33581.00    147007.40
  136.15        2969.00           1476       31331.00    137115.20
  136.18        2969.25           1479       29679.00    129855.80
  136.21        2969.50           1482       27974.00    122366.90
  136.24        2969.75           1486       25576.00    111839.70
  136.28        2970.00           1489       23895.00    104464.20
  136.31        2970.25           1492       22075.00     96482.44
  136.34        2970.50           1496       19890.00     86905.01
  136.37        2970.75           1499       18011.00     78673.26
  136.40        2971.00           1502       16281.00     71097.87
  136.43        2971.25           1506       13846.00     60441.23
  136.46        2971.50           1509       11865.00     51776.53
  136.49        2971.75           1513        9636.00     42032.48
  136.52        2972.00           1516        7841.00     34189.81
  136.55        2972.25           1519        6087.00     26529.83
  136.58        2972.50           1523        4067.00     17712.55
  136.61        2972.75           1526        2452.00     10666.45
  136.64        2973.00           1529        1201.00      5210.49
  136.68        2973.25           1533         506.00      2180.18
  136.71        2973.50           1536         363.00      1556.74
  136.74        2973.75           1539         312.00      1334.40
  136.77        2974.00           1543         241.00      1024.88
  136.80        2974.25           1546         192.00       811.27
  136.83        2974.50           1549         154.00       645.61
  136.86        2974.75           1553          94.00       384.05
  136.89        2975.00           1556          74.00       296.86
  136.92        2975.25           1559          55.00       214.04
  136.95        2975.50           1563          46.00       174.80
  136.98        2975.75           1566          48.00       183.52
  137.01        2976.00           1569          54.00       209.68
  137.05        2976.25           1573          50.00       192.24
  137.08        2976.50           1576          47.00       179.16
  137.11        2976.75           1579          49.00       187.88
  137.14        2977.00           1583          48.00       183.52
  137.17        2977.25           1586          52.00       200.96
  137.20        2977.50           1590          41.00       153.01
  137.23        2977.75           1593          42.00       157.37
  137.26        2978.00           1596          45.00       170.45
  137.29        2978.25           1600          47.00       179.16
  137.32        2978.50           1603          44.00       166.09
  137.35        2978.75           1606          53.00       205.32
  137.39        2979.00           1610          45.00       170.45
  137.42        2979.25           1613          44.00       166.09
  137.45        2979.50           1616          50.00       192.24
  137.48        2979.75           1620          45.00       170.45
  137.51        2980.00           1623          48.00       183.52
  137.54        2980.25           1626          44.00       166.09
  137.57        2980.50           1630          43.00       161.73
  137.60        2980.75           1633          44.00       166.09
  137.63        2981.00           1637          48.00       183.52
  137.66        2981.25           1640          35.00       126.85
  137.69        2981.50           1643          57.00       222.76
  137.72        2981.75           1647          43.00       161.73
  137.75        2982.00           1650          38.00       139.93
  137.78        2982.25           1653          41.00       153.01
  137.82        2982.50           1657          45.00       170.45
  137.85        2982.75           1660          51.00       196.60
  137.88        2983.00           1663          43.00       161.73
  137.91        2983.25           1667          46.00       174.80
  137.94        2983.50           1670          44.00       166.09
  137.97        2983.75           1673          40.00       148.65
  138.00        2984.00           1677          44.00       166.09
HS scan finished at 02:18:13
end
************************************************************
  HS Scan of (1) Internal mercury lamp
************************************************************
Integration time is 0.2294 seconds per sample
dh140617Manchester 53.47 2.23 3.179721pr1000
************************************************************
Dead Time -------------------------  3E-08 
Number of Cycles Used -------------  4 
Starting Wavelength (Angstroms) ---  2950 
Final Wavelength (Angstoms) -------  2984 
Wavelength Increment (Angstroms) --  .25 
Filter Wheel #1 Position ---------- (1) Ground quartz diffuser (ND=2.32)
Filter Wheel #2 Position ---------- (1) Neutral Density 0.494



************************************************************
HS scan start time = 21:42:01
Dark Count =  6.8 


Time (GMT)  Wavelength (Ang)  Step Number  Raw Counts  Counts/Second

 1302.38        2950.00           1222          47.00       175.24
 1302.45        2950.25           1226          39.00       140.37
 1302.48        2950.50           1229          43.00       157.80
 1302.51        2950.75           1232          42.00       153.44
 1302.54        2951.00           1236          47.00       175.24
 1302.57        2951.25           1239          41.00       149.09
 1302.60        2951.50           1242          44.00       162.16
 1302.63        2951.75           1246          41.00       149.09
 1302.66        2952.00           1249          39.00       140.37
 1302.69        2952.25           1252          44.00       162.16
 1302.72        2952.50           1256          40.00       144.73
 1302.76        2952.75           1259          36.00       127.29
 1302.79        2953.00           1262          36.00       127.29
 1302.82        2953.25           1266          47.00       175.24
 1302.85        2953.50           1269          42.00       153.44
 1302.88        2953.75           1272          40.00       144.73
 1302.91        2954.00           1276          41.00       149.09
 1302.94        2954.25           1279          44.00       162.16
 1302.97        2954.50           1282          51.00       192.68
 1303.00        2954.75           1286          44.00       162.16
 1303.03        2955.00           1289          37.00       131.65
 1303.06        2955.25           1292          48.00       179.60
 1303.09        2955.50           1296          44.00       162.16
 1303.12        2955.75           1299          40.00       144.73
 1303.15        2956.00           1302          44.00       162.16
 1303.18        2956.25           1306          45.00       166.52
 1303.22        2956.50           1309          41.00       149.09
 1303.25        2956.75           1312          49.00       183.96
 1303.28        2957.00           1316          48.00       179.60
 1303.31        2957.25           1319          39.00       140.37
 1303.34        2957.50           1322          48.00       179.60
 1303.37        2957.75           1326          40.00       144.73
 1303.40        2958.00           1329          44.00       162.16
 1303.43        2958.25           1332          39.00       140.37
 1303.46        2958.50           1336          41.00       149.09
 1303.49        2958.75           1339          44.00       162.16
 1303.52        2959.00           1342          45.00       166.52
 1303.55        2959.25           1346          51.00       192.68
 1303.58        2959.50           1349          61.00       236.27
 1303.61        2959.75           1352          93.00       375.77
 1303.64        2960.00           1356         121.00       497.83
 1303.67        2960.25           1359         178.00       746.31
 1303.71        2960.50           1362         217.00       916.33
 1303.74        2960.75           1366         300.00      1278.17
 1303.77        2961.00           1369         348.00      1487.42
 1303.80        2961.25           1372         407.00      1744.64
 1303.83        2961.50           1376         552.00      2376.80
 1303.86        2961.75           1379         854.00      3693.52
 1303.89        2962.00           1382        1835.00      7971.39
 1303.92        2962.25           1386        4120.00     17939.91
 1303.95        2962.50           1389        5980.00     26058.73
 1303.98        2962.75           1392        7975.00     34771.21
 1304.01        2963.00           1396       10604.00     46259.45
 1304.04        2963.25           1399       12488.00     54497.05
 1304.08        2963.50           1402       14613.00     63793.29
 1304.11        2963.75           1406       17254.00     75354.11
 1304.14        2964.00           1409       19257.00     84127.49
 1304.17        2964.25           1412       21178.00     92546.04
 1304.20        2964.50           1416       24036.00    105078.80
 1304.23        2964.75           1419       26145.00    114333.10
 1304.26        2965.00           1422       28510.00    124716.90
 1304.29        2965.25           1426       31221.00    136627.70
 1304.32        2965.50           1429       33327.00    145886.40
 1304.35        2965.75           1432       35076.00    153579.60
 1304.39        2966.00           1436       37788.00    165515.60
 1304.42        2966.25           1439       39676.00    173830.00
 1304.45        2966.50           1442       41517.00    181941.60
 1304.48        2966.75           1446       43236.00    189519.10
 1304.51        2967.00           1449       43543.00    190872.80
 1304.54        2967.25           1452       43695.00    191543.00
 1304.57        2967.50           1456       43611.00    191172.60
 1304.60        2967.75           1459       43702.00    191573.90
 1304.63        2968.00           1462       43273.00    189682.30
 1304.67        2968.25           1466       41880.00    183541.40
 1304.70        2968.50           1469       40247.00    176345.50
 1304.73        2968.75           1472       38113.00    166946.50
 1304.76        2969.00           1476       35930.00    157337.30
 1304.79        2969.25           1479       33872.00    148283.30
 1304.82        2969.50           1482       31711.00    138781.50
 1304.85        2969.75           1486       29086.00    127246.80
 1304.88        2970.00           1489       27228.00    119087.30
 1304.91        2970.25           1492       25023.00    109409.10
 1304.95        2970.50           1496       22440.00     98078.92
 1304.98        2970.75           1499       20497.00     89561.15
 1305.01        2971.00           1502       18421.00     80465.15
 1305.04        2971.25           1506       15713.00     68607.50
 1305.07        2971.50           1509       13668.00     59658.56
 1305.10        2971.75           1513       10887.00     47496.57
 1305.13        2972.00           1516        8876.00     38707.52
 1305.16        2972.25           1519        6909.00     30115.25
 1305.20        2972.50           1523        4307.00     18755.97
 1305.23        2972.75           1526        2512.00     10924.24
 1305.26        2973.00           1529        1159.00      5023.43
 1305.29        2973.25           1533         505.00      2171.89
 1305.32        2973.50           1536         370.00      1583.34
 1305.35        2973.75           1539         300.00      1278.17
 1305.38        2974.00           1543         229.00       968.64
 1305.41        2974.25           1546         153.00       637.33
 1305.44        2974.50           1549         112.00       458.59
 1305.47        2974.75           1553          68.00       266.79
 1305.51        2975.00           1556          49.00       183.96
 1305.54        2975.25           1559          44.00       162.16
 1305.57        2975.50           1563          43.00       157.80
 1305.60        2975.75           1566          44.00       162.16
 1305.63        2976.00           1569          45.00       166.52
 1305.66        2976.25           1573          47.00       175.24
 1305.69        2976.50           1576          47.00       175.24
 1305.72        2976.75           1579          48.00       179.60
 1305.75        2977.00           1583          39.00       140.37
 1305.78        2977.25           1586          40.00       144.73
 1305.81        2977.50           1590          48.00       179.60
 1305.84        2977.75           1593          45.00       166.52
 1305.87        2978.00           1596          57.00       218.83
 1305.91        2978.25           1600          52.00       197.04
 1305.94        2978.50           1603          40.00       144.73
 1305.97        2978.75           1606          44.00       162.16
 1306.00        2979.00           1610          40.00       144.73
 1306.04        2979.25           1613          46.00       170.88
 1306.08        2979.50           1616          41.00       149.09
 1306.11        2979.75           1620          46.00       170.88
 1306.14        2980.00           1623          53.00       201.40
 1306.17        2980.25           1626          44.00       162.16
 1306.20        2980.50           1630          45.00       166.52
 1306.23        2980.75           1633          40.00       144.73
 1306.26        2981.00           1637          46.00       170.88
 1306.29        2981.25           1640          46.00       170.88
 1306.32        2981.50           1643          41.00       149.09
 1306.35        2981.75           1647          51.00       192.68
 1306.38        2982.00           1650          40.00       144.73
 1306.41        2982.25           1653          38.00       136.01
 1306.45        2982.50           1657          44.00       162.16
 1306.48        2982.75           1660          43.00       157.80
 1306.51        2983.00           1663          40.00       144.73
 1306.54        2983.25           1667          41.00       149.09
 1306.57        2983.50           1670          37.00       131.65
 1306.60        2983.75           1673          45.00       166.52
 1306.63        2984.00           1677          41.00       149.09
HS scan finished at 21:46:51
end
