************************************************************
  HS Scan of (1) Internal mercury lamp
************************************************************
Integration time is 0.2294 seconds per sample
dh160617Manchester 53.47 2.23 2.804185pr1000
************************************************************
Dead Time -------------------------  3E-08 
Number of Cycles Used -------------  4 
Starting Wavelength (Angstroms) ---  2950 
Final Wavelength (Angstoms) -------  2984 
Wavelength Increment (Angstroms) --  .25 
Filter Wheel #1 Position ---------- (1) Ground quartz diffuser (ND=2.32)
Filter Wheel #2 Position ---------- (1) Neutral Density 0.494



************************************************************
HS scan start time = 01:23:46
Dark Count =  6.1 


Time (GMT)  Wavelength (Ang)  Step Number  Raw Counts  Counts/Second

   84.14        2950.00           1222          37.00       134.70
   84.21        2950.25           1226          46.00       173.93
   84.24        2950.50           1229          44.00       165.21
   84.27        2950.75           1232          48.00       182.65
   84.30        2951.00           1236          43.00       160.86
   84.33        2951.25           1239          54.00       208.81
   84.36        2951.50           1242          48.00       182.65
   84.39        2951.75           1246          40.00       147.78
   84.42        2952.00           1249          41.00       152.14
   84.45        2952.25           1252          41.00       152.14
   84.48        2952.50           1256          42.00       156.50
   84.51        2952.75           1259          47.00       178.29
   84.54        2953.00           1262          42.00       156.50
   84.57        2953.25           1266          50.00       191.37
   84.61        2953.50           1269          49.00       187.01
   84.64        2953.75           1272          45.00       169.57
   84.67        2954.00           1276          43.00       160.86
   84.70        2954.25           1279          48.00       182.65
   84.73        2954.50           1282          41.00       152.14
   84.76        2954.75           1286          45.00       169.57
   84.79        2955.00           1289          39.00       143.42
   84.82        2955.25           1292          45.00       169.57
   84.85        2955.50           1296          44.00       165.21
   84.89        2955.75           1299          46.00       173.93
   84.92        2956.00           1302          46.00       173.93
   84.95        2956.25           1306          48.00       182.65
   84.98        2956.50           1309          40.00       147.78
   85.01        2956.75           1312          34.00       121.62
   85.04        2957.00           1316          44.00       165.21
   85.07        2957.25           1319          48.00       182.65
   85.10        2957.50           1322          43.00       160.86
   85.13        2957.75           1326          48.00       182.65
   85.16        2958.00           1329          48.00       182.65
   85.19        2958.25           1332          48.00       182.65
   85.22        2958.50           1336          43.00       160.86
   85.25        2958.75           1339          43.00       160.86
   85.28        2959.00           1342          46.00       173.93
   85.31        2959.25           1346          46.00       173.93
   85.34        2959.50           1349          62.00       243.68
   85.38        2959.75           1352          64.00       252.40
   85.41        2960.00           1356          93.00       378.82
   85.44        2960.25           1359         146.00       609.86
   85.47        2960.50           1362         194.00       819.11
   85.50        2960.75           1366         239.00      1015.29
   85.53        2961.00           1369         283.00      1207.11
   85.56        2961.25           1372         333.00      1425.08
   85.59        2961.50           1376         462.00      1987.48
   85.62        2961.75           1379         724.00      3129.76
   85.65        2962.00           1382        1514.00      6574.53
   85.69        2962.25           1386        3386.00     14740.17
   85.72        2962.50           1389        5016.00     21853.47
   85.75        2962.75           1392        6724.00     29310.42
   85.78        2963.00           1396        9009.00     39291.72
   85.81        2963.25           1399       10597.00     46231.91
   85.84        2963.50           1402       12289.00     53629.81
   85.87        2963.75           1406       14512.00     63354.40
   85.90        2964.00           1409       16387.00     71561.05
   85.93        2964.25           1412       18402.00     80385.00
   85.96        2964.50           1416       20733.00     90598.57
   86.00        2964.75           1419       22315.00     97533.88
   86.03        2965.00           1422       24252.00    106029.40
   86.06        2965.25           1426       26490.00    115850.50
   86.09        2965.50           1429       28164.00    123200.40
   86.12        2965.75           1432       29884.00    130755.60
   86.15        2966.00           1436       31982.00    139975.90
   86.18        2966.25           1439       33902.00    148418.30
   86.21        2966.50           1442       35221.00    154220.60
   86.24        2966.75           1446       36662.00    160561.90
   86.27        2967.00           1449       36964.00    161891.10
   86.31        2967.25           1452       37166.00    162780.40
   86.34        2967.50           1456       37115.00    162555.80
   86.37        2967.75           1459       37219.00    163013.60
   86.40        2968.00           1462       36703.00    160742.30
   86.43        2968.25           1466       35843.00    156957.50
   86.46        2968.50           1469       34145.00    149487.10
   86.49        2968.75           1472       32605.00    142714.80
   86.52        2969.00           1476       30555.00    133703.90
   86.55        2969.25           1479       28815.00    126059.50
   86.58        2969.50           1482       26995.00    118067.40
   86.62        2969.75           1486       24667.00    107850.10
   86.65        2970.00           1489       23017.00    100612.30
   86.68        2970.25           1492       21304.00     93101.44
   86.71        2970.50           1496       19253.00     84113.02
   86.74        2970.75           1499       17386.00     75935.22
   86.77        2971.00           1502       15782.00     68912.60
   86.80        2971.25           1506       13270.00     57920.53
   86.83        2971.50           1509       11742.00     51237.81
   86.87        2971.75           1513        9619.00     41957.32
   86.90        2972.00           1516        7733.00     33717.17
   86.93        2972.25           1519        6256.00     27266.85
   86.96        2972.50           1523        4087.00     17798.95
   86.99        2972.75           1526        2498.00     10866.23
   87.02        2973.00           1529        1239.00      5375.32
   87.05        2973.25           1533         472.00      2031.07
   87.08        2973.50           1536         319.00      1364.05
   87.11        2973.75           1539         288.00      1228.90
   87.14        2974.00           1543         241.00      1024.01
   87.17        2974.25           1546         174.00       731.93
   87.20        2974.50           1549         108.00       444.21
   87.24        2974.75           1553          83.00       335.23
   87.27        2975.00           1556          57.00       221.88
   87.30        2975.25           1559          60.00       234.96
   87.33        2975.50           1563          43.00       160.86
   87.36        2975.75           1566          53.00       204.45
   87.39        2976.00           1569          48.00       182.65
   87.42        2976.25           1573          46.00       173.93
   87.45        2976.50           1576          50.00       191.37
   87.48        2976.75           1579          44.00       165.21
   87.51        2977.00           1583          40.00       147.78
   87.54        2977.25           1586          48.00       182.65
   87.58        2977.50           1590          45.00       169.57
   87.61        2977.75           1593          47.00       178.29
   87.64        2978.00           1596          48.00       182.65
   87.67        2978.25           1600          48.00       182.65
   87.70        2978.50           1603          44.00       165.21
   87.73        2978.75           1606          42.00       156.50
   87.76        2979.00           1610          46.00       173.93
   87.79        2979.25           1613          46.00       173.93
   87.82        2979.50           1616          49.00       187.01
   87.85        2979.75           1620          43.00       160.86
   87.89        2980.00           1623          47.00       178.29
   87.92        2980.25           1626          50.00       191.37
   87.95        2980.50           1630          45.00       169.57
   87.98        2980.75           1633          50.00       191.37
   88.01        2981.00           1637          51.00       195.73
   88.04        2981.25           1640          42.00       156.50
   88.07        2981.50           1643          45.00       169.57
   88.10        2981.75           1647          37.00       134.70
   88.13        2982.00           1650          45.00       169.57
   88.16        2982.25           1653          39.00       143.42
   88.19        2982.50           1657          43.00       160.86
   88.23        2982.75           1660          42.00       156.50
   88.26        2983.00           1663          40.00       147.78
   88.29        2983.25           1667          45.00       169.57
   88.32        2983.50           1670          46.00       173.93
   88.35        2983.75           1673          52.00       200.09
   88.38        2984.00           1677          46.00       173.93
HS scan finished at 01:28:36
end
************************************************************
  HS Scan of (1) Internal mercury lamp
************************************************************
Integration time is 0.2294 seconds per sample
dh160617Manchester 53.47 2.23 3.018777pr1000
************************************************************
Dead Time -------------------------  3E-08 
Number of Cycles Used -------------  4 
Starting Wavelength (Angstroms) ---  2950 
Final Wavelength (Angstoms) -------  2984 
Wavelength Increment (Angstroms) --  .25 
Filter Wheel #1 Position ---------- (1) Ground quartz diffuser (ND=2.32)
Filter Wheel #2 Position ---------- (1) Neutral Density 0.494



************************************************************
HS scan start time = 21:42:01
Dark Count =  6 


Time (GMT)  Wavelength (Ang)  Step Number  Raw Counts  Counts/Second

 1302.39        2950.00           1222          51.00       196.17
 1302.46        2950.25           1226          39.00       143.85
 1302.49        2950.50           1229          44.00       165.65
 1302.52        2950.75           1232          52.00       200.52
 1302.55        2951.00           1236          44.00       165.65
 1302.58        2951.25           1239          39.00       143.85
 1302.61        2951.50           1242          42.00       156.93
 1302.64        2951.75           1246          33.00       117.70
 1302.67        2952.00           1249          41.00       152.57
 1302.70        2952.25           1252          47.00       178.73
 1302.73        2952.50           1256          48.00       183.09
 1302.77        2952.75           1259          38.00       139.49
 1302.80        2953.00           1262          42.00       156.93
 1302.83        2953.25           1266          38.00       139.49
 1302.86        2953.50           1269          46.00       174.37
 1302.89        2953.75           1272          45.00       170.01
 1302.92        2954.00           1276          44.00       165.65
 1302.95        2954.25           1279          36.00       130.78
 1302.98        2954.50           1282          44.00       165.65
 1303.01        2954.75           1286          47.00       178.73
 1303.04        2955.00           1289          44.00       165.65
 1303.07        2955.25           1292          56.00       217.96
 1303.11        2955.50           1296          44.00       165.65
 1303.14        2955.75           1299          43.00       161.29
 1303.17        2956.00           1302          47.00       178.73
 1303.20        2956.25           1306          44.00       165.65
 1303.23        2956.50           1309          35.00       126.42
 1303.26        2956.75           1312          48.00       183.09
 1303.29        2957.00           1316          43.00       161.29
 1303.32        2957.25           1319          49.00       187.45
 1303.35        2957.50           1322          45.00       170.01
 1303.38        2957.75           1326          46.00       174.37
 1303.41        2958.00           1329          45.00       170.01
 1303.44        2958.25           1332          49.00       187.45
 1303.48        2958.50           1336          43.00       161.29
 1303.51        2958.75           1339          45.00       170.01
 1303.54        2959.00           1342          43.00       161.29
 1303.57        2959.25           1346          51.00       196.17
 1303.60        2959.50           1349          59.00       231.04
 1303.63        2959.75           1352          72.00       287.71
 1303.66        2960.00           1356         113.00       466.44
 1303.69        2960.25           1359         157.00       658.25
 1303.72        2960.50           1362         190.00       802.11
 1303.75        2960.75           1366         266.00      1133.43
 1303.78        2961.00           1369         330.00      1412.44
 1303.81        2961.25           1372         366.00      1569.39
 1303.84        2961.50           1376         509.00      2192.82
 1303.88        2961.75           1379         902.00      3906.30
 1303.91        2962.00           1382        1872.00      8136.25
 1303.94        2962.25           1386        4102.00     17864.85
 1303.97        2962.50           1389        6031.00     26284.89
 1304.00        2962.75           1392        7859.00     34267.99
 1304.03        2963.00           1396       10352.00     45161.41
 1304.06        2963.25           1399       12167.00     53096.72
 1304.09        2963.50           1402       14063.00     61390.21
 1304.12        2963.75           1406       16696.00     72914.35
 1304.15        2964.00           1409       18566.00     81103.81
 1304.19        2964.25           1412       20400.00     89139.55
 1304.22        2964.50           1416       23033.00    100682.90
 1304.25        2964.75           1419       24893.00    108842.20
 1304.28        2965.00           1422       26891.00    117611.30
 1304.31        2965.25           1426       29445.00    128827.40
 1304.34        2965.50           1429       31308.00    137013.60
 1304.37        2965.75           1432       33343.00    145960.30
 1304.40        2966.00           1436       35887.00    157151.60
 1304.43        2966.25           1439       37707.00    165162.50
 1304.46        2966.50           1442       39537.00    173221.30
 1304.50        2966.75           1446       41294.00    180962.30
 1304.53        2967.00           1449       41660.00    182575.30
 1304.56        2967.25           1452       41553.00    182103.70
 1304.59        2967.50           1456       41512.00    181923.10
 1304.62        2967.75           1459       41533.00    182015.60
 1304.65        2968.00           1462       41219.00    180631.80
 1304.68        2968.25           1466       39607.00    173529.60
 1304.71        2968.50           1469       38056.00    166699.10
 1304.74        2968.75           1472       36335.00    159123.10
 1304.78        2969.00           1476       33852.00    148198.90
 1304.81        2969.25           1479       32304.00    141391.90
 1304.84        2969.50           1482       30317.00    132658.60
 1304.87        2969.75           1486       27589.00    120675.90
 1304.90        2970.00           1489       25610.00    111988.50
 1304.93        2970.25           1492       23816.00    104117.20
 1304.96        2970.50           1496       21450.00     93741.89
 1304.99        2970.75           1499       19315.00     84385.11
 1305.02        2971.00           1502       17534.00     76583.78
 1305.06        2971.25           1506       14813.00     64672.00
 1305.09        2971.50           1509       12987.00     56683.06
 1305.12        2971.75           1513       10431.00     45506.73
 1305.15        2972.00           1516        8476.00     36963.37
 1305.18        2972.25           1519        6414.00     27957.18
 1305.21        2972.50           1523        3999.00     17415.38
 1305.24        2972.75           1526        2385.00     10373.76
 1305.27        2973.00           1529        1067.00      4625.75
 1305.30        2973.25           1533         496.00      2136.14
 1305.34        2973.50           1536         377.00      1617.34
 1305.37        2973.75           1539         316.00      1351.41
 1305.40        2974.00           1543         259.00      1102.91
 1305.43        2974.25           1546         182.00       767.24
 1305.46        2974.50           1549         125.00       518.75
 1305.49        2974.75           1553          81.00       326.94
 1305.52        2975.00           1556          65.00       257.19
 1305.55        2975.25           1559          50.00       191.81
 1305.58        2975.50           1563          40.00       148.21
 1305.61        2975.75           1566          43.00       161.29
 1305.64        2976.00           1569          45.00       170.01
 1305.67        2976.25           1573          53.00       204.88
 1305.71        2976.50           1576          53.00       204.88
 1305.74        2976.75           1579          47.00       178.73
 1305.77        2977.00           1583          49.00       187.45
 1305.80        2977.25           1586          46.00       174.37
 1305.83        2977.50           1590          42.00       156.93
 1305.86        2977.75           1593          38.00       139.49
 1305.89        2978.00           1596          47.00       178.73
 1305.92        2978.25           1600          51.00       196.17
 1305.95        2978.50           1603          45.00       170.01
 1305.98        2978.75           1606          46.00       174.37
 1306.01        2979.00           1610          42.00       156.93
 1306.04        2979.25           1613          38.00       139.49
 1306.08        2979.50           1616          44.00       165.65
 1306.11        2979.75           1620          40.00       148.21
 1306.14        2980.00           1623          47.00       178.73
 1306.17        2980.25           1626          41.00       152.57
 1306.20        2980.50           1630          45.00       170.01
 1306.23        2980.75           1633          45.00       170.01
 1306.26        2981.00           1637          44.00       165.65
 1306.29        2981.25           1640          45.00       170.01
 1306.32        2981.50           1643          37.00       135.14
 1306.35        2981.75           1647          45.00       170.01
 1306.38        2982.00           1650          44.00       165.65
 1306.41        2982.25           1653          40.00       148.21
 1306.44        2982.50           1657          36.00       130.78
 1306.48        2982.75           1660          44.00       165.65
 1306.51        2983.00           1663          43.00       161.29
 1306.54        2983.25           1667          45.00       170.01
 1306.57        2983.50           1670          44.00       165.65
 1306.60        2983.75           1673          48.00       183.09
 1306.63        2984.00           1677          42.00       156.93
HS scan finished at 21:46:51
end
