************************************************************
  HS Scan of (1) Internal mercury lamp
************************************************************
Integration time is 0.2294 seconds per sample
dh250619El Arenosillo 37.1 6.73 3.072425pr1000
************************************************************
Dead Time -------------------------  3E-08 
Number of Cycles Used -------------  4 
Starting Wavelength (Angstroms) ---  2950 
Final Wavelength (Angstoms) -------  2984 
Wavelength Increment (Angstroms) --  .25 
Filter Wheel #1 Position ---------- (1) Ground quartz diffuser (ND=2.32)
Filter Wheel #2 Position ---------- (1) Neutral Density 0.494



************************************************************
HS scan start time = 02:10:58
Dark Count =  7.7 


Time (GMT)  Wavelength (Ang)  Step Number  Raw Counts  Counts/Second

  131.34        2950.00           1222          51.00       188.75
  131.41        2950.25           1226          53.00       197.47
  131.44        2950.50           1229          49.00       180.04
  131.47        2950.75           1232          57.00       214.91
  131.50        2951.00           1236          54.00       201.83
  131.53        2951.25           1239          56.00       210.55
  131.56        2951.50           1242          53.00       197.47
  131.59        2951.75           1246          44.00       158.24
  131.62        2952.00           1249          48.00       175.68
  131.66        2952.25           1252          47.00       171.32
  131.69        2952.50           1256          52.00       193.11
  131.72        2952.75           1259          52.00       193.11
  131.75        2953.00           1262          55.00       206.19
  131.78        2953.25           1266          46.00       166.96
  131.81        2953.50           1269          52.00       193.11
  131.84        2953.75           1272          53.00       197.47
  131.87        2954.00           1276          55.00       206.19
  131.90        2954.25           1279          60.00       227.99
  131.93        2954.50           1282          58.00       219.27
  131.96        2954.75           1286          53.00       197.47
  131.99        2955.00           1289          51.00       188.75
  132.02        2955.25           1292          56.00       210.55
  132.06        2955.50           1296          55.00       206.19
  132.09        2955.75           1299          46.00       166.96
  132.12        2956.00           1302          52.00       193.11
  132.15        2956.25           1306          48.00       175.68
  132.18        2956.50           1309          51.00       188.75
  132.21        2956.75           1312          53.00       197.47
  132.24        2957.00           1316          62.00       236.71
  132.27        2957.25           1319          52.00       193.11
  132.30        2957.50           1322          53.00       197.47
  132.33        2957.75           1326          60.00       227.99
  132.36        2958.00           1329          59.00       223.63
  132.39        2958.25           1332          57.00       214.91
  132.42        2958.50           1336          55.00       206.19
  132.46        2958.75           1339          54.00       201.83
  132.49        2959.00           1342          54.00       201.83
  132.52        2959.25           1346          60.00       227.99
  132.55        2959.50           1349          67.00       258.50
  132.58        2959.75           1352          74.00       289.02
  132.61        2960.00           1356          97.00       389.28
  132.64        2960.25           1359         124.00       506.98
  132.67        2960.50           1362         159.00       659.56
  132.70        2960.75           1366         199.00       833.94
  132.73        2961.00           1369         243.00      1025.75
  132.76        2961.25           1372         287.00      1217.57
  132.79        2961.50           1376         362.00      1544.54
  132.83        2961.75           1379         524.00      2250.81
  132.86        2962.00           1382        1151.00      4984.62
  132.89        2962.25           1386        2787.00     12119.93
  132.92        2962.50           1389        4113.00     17905.43
  132.95        2962.75           1392        5370.00     23391.74
  132.98        2963.00           1396        7313.00     31875.72
  133.01        2963.25           1399        8837.00     38533.19
  133.04        2963.50           1402       10351.00     45149.61
  133.07        2963.75           1406       12213.00     53290.45
  133.11        2964.00           1409       13445.00     58679.06
  133.14        2964.25           1412       14982.00     65404.15
  133.17        2964.50           1416       16910.00     73843.88
  133.20        2964.75           1419       18332.00     80071.38
  133.23        2965.00           1422       19907.00     86971.62
  133.26        2965.25           1426       21609.00     94431.49
  133.29        2965.50           1429       23117.00    101043.80
  133.32        2965.75           1432       24664.00    107830.00
  133.35        2966.00           1436       26696.00    116747.80
  133.38        2966.25           1439       28092.00    122877.20
  133.41        2966.50           1442       29400.00    128622.20
  133.45        2966.75           1446       30360.00    132840.00
  133.48        2967.00           1449       30497.00    133442.00
  133.51        2967.25           1452       30781.00    134690.10
  133.54        2967.50           1456       30724.00    134439.60
  133.57        2967.75           1459       30773.00    134654.90
  133.60        2968.00           1462       30547.00    133661.80
  133.63        2968.25           1466       29627.00    129619.50
  133.66        2968.50           1469       28342.00    123975.10
  133.69        2968.75           1472       26851.00    117428.20
  133.73        2969.00           1476       25066.00    109593.80
  133.76        2969.25           1479       23602.00    103171.10
  133.79        2969.50           1482       22249.00     97237.47
  133.82        2969.75           1486       20372.00     89009.39
  133.85        2970.00           1489       18922.00     82655.90
  133.88        2970.25           1492       17612.00     76917.91
  133.91        2970.50           1496       15697.00     68533.53
  133.94        2970.75           1499       14355.00     62660.40
  133.97        2971.00           1502       13028.00     56854.96
  134.00        2971.25           1506       11076.00     48318.90
  134.03        2971.50           1509        9628.00     41989.66
  134.06        2971.75           1513        7827.00     34120.78
  134.09        2972.00           1516        6297.00     27438.88
  134.13        2972.25           1519        4903.00     21353.26
  134.16        2972.50           1523        3058.00     13302.17
  134.19        2972.75           1526        1804.00      7832.27
  134.22        2973.00           1529         773.00      3336.43
  134.25        2973.25           1533         388.00      1657.89
  134.28        2973.50           1536         307.00      1304.76
  134.31        2973.75           1539         266.00      1126.02
  134.34        2974.00           1543         222.00       934.20
  134.37        2974.25           1546         174.00       724.95
  134.40        2974.50           1549         119.00       485.19
  134.43        2974.75           1553          91.00       363.13
  134.46        2975.00           1556          68.00       262.86
  134.49        2975.25           1559          59.00       223.63
  134.52        2975.50           1563          62.00       236.71
  134.55        2975.75           1566          58.00       219.27
  134.58        2976.00           1569          54.00       201.83
  134.61        2976.25           1573          51.00       188.75
  134.64        2976.50           1576          52.00       193.11
  134.68        2976.75           1579          60.00       227.99
  134.71        2977.00           1583          53.00       197.47
  134.74        2977.25           1586          49.00       180.04
  134.77        2977.50           1590          46.00       166.96
  134.80        2977.75           1593          54.00       201.83
  134.83        2978.00           1596          53.00       197.47
  134.86        2978.25           1600          54.00       201.83
  134.89        2978.50           1603          52.00       193.11
  134.92        2978.75           1606          52.00       193.11
  134.95        2979.00           1610          52.00       193.11
  134.98        2979.25           1613          46.00       166.96
  135.01        2979.50           1616          53.00       197.47
  135.04        2979.75           1620          45.00       162.60
  135.07        2980.00           1623          51.00       188.75
  135.10        2980.25           1626          43.00       153.88
  135.13        2980.50           1630          55.00       206.19
  135.16        2980.75           1633          54.00       201.83
  135.19        2981.00           1637          47.00       171.32
  135.23        2981.25           1640          50.00       184.40
  135.26        2981.50           1643          47.00       171.32
  135.29        2981.75           1647          53.00       197.47
  135.32        2982.00           1650          48.00       175.68
  135.35        2982.25           1653          43.00       153.88
  135.38        2982.50           1657          48.00       175.68
  135.41        2982.75           1660          49.00       180.04
  135.44        2983.00           1663          52.00       193.11
  135.47        2983.25           1667          49.00       180.04
  135.50        2983.50           1670          51.00       188.75
  135.53        2983.75           1673          53.00       197.47
  135.56        2984.00           1677          51.00       188.75
HS scan finished at 02:15:47
end
