************************************************************
  HS Scan of (1) Internal mercury lamp
************************************************************
Integration time is 0.2294 seconds per sample
dh240619El Arenosillo 37.1 6.73 3.018777pr1000
************************************************************
Dead Time -------------------------  3E-08 
Number of Cycles Used -------------  4 
Starting Wavelength (Angstroms) ---  2950 
Final Wavelength (Angstoms) -------  2984 
Wavelength Increment (Angstroms) --  .25 
Filter Wheel #1 Position ---------- (1) Ground quartz diffuser (ND=2.32)
Filter Wheel #2 Position ---------- (1) Neutral Density 0.494



************************************************************
HS scan start time = 02:00:20
Dark Count =  6.6 


Time (GMT)  Wavelength (Ang)  Step Number  Raw Counts  Counts/Second

  120.71        2950.00           1222          55.00       210.99
  120.78        2950.25           1226          59.00       228.42
  120.81        2950.50           1229          56.00       215.35
  120.84        2950.75           1232          55.00       210.99
  120.87        2951.00           1236          52.00       197.91
  120.90        2951.25           1239          56.00       215.35
  120.93        2951.50           1242          63.00       245.86
  120.96        2951.75           1246          54.00       206.63
  120.99        2952.00           1249          56.00       215.35
  121.02        2952.25           1252          60.00       232.78
  121.05        2952.50           1256          56.00       215.35
  121.08        2952.75           1259          57.00       219.71
  121.11        2953.00           1262          55.00       210.99
  121.15        2953.25           1266          51.00       193.55
  121.18        2953.50           1269          54.00       206.63
  121.21        2953.75           1272          57.00       219.71
  121.24        2954.00           1276          50.00       189.19
  121.27        2954.25           1279          56.00       215.35
  121.30        2954.50           1282          59.00       228.42
  121.33        2954.75           1286          51.00       193.55
  121.36        2955.00           1289          61.00       237.14
  121.39        2955.25           1292          50.00       189.19
  121.42        2955.50           1296          57.00       219.71
  121.45        2955.75           1299          57.00       219.71
  121.48        2956.00           1302          57.00       219.71
  121.51        2956.25           1306          69.00       272.02
  121.55        2956.50           1309          61.00       237.14
  121.58        2956.75           1312          64.00       250.22
  121.61        2957.00           1316          56.00       215.35
  121.64        2957.25           1319          54.00       206.63
  121.67        2957.50           1322          65.00       254.58
  121.70        2957.75           1326          56.00       215.35
  121.73        2958.00           1329          61.00       237.14
  121.76        2958.25           1332          65.00       254.58
  121.79        2958.50           1336          56.00       215.35
  121.82        2958.75           1339          64.00       250.22
  121.85        2959.00           1342          64.00       250.22
  121.89        2959.25           1346          56.00       215.35
  121.92        2959.50           1349          62.00       241.50
  121.95        2959.75           1352          73.00       289.45
  121.98        2960.00           1356          93.00       376.64
  122.01        2960.25           1359         125.00       516.14
  122.04        2960.50           1362         154.00       642.56
  122.07        2960.75           1366         208.00       877.97
  122.10        2961.00           1369         232.00       982.59
  122.13        2961.25           1372         282.00      1200.57
  122.16        2961.50           1376         360.00      1540.61
  122.19        2961.75           1379         536.00      2307.92
  122.22        2962.00           1382        1237.00      5364.42
  122.26        2962.25           1386        2806.00     12207.61
  122.29        2962.50           1389        4069.00     17718.22
  122.32        2962.75           1392        5414.00     23588.61
  122.35        2963.00           1396        7142.00     31133.69
  122.38        2963.25           1399        8477.00     36965.13
  122.41        2963.50           1402        9921.00     43274.99
  122.44        2963.75           1406       11852.00     51716.62
  122.47        2964.00           1409       13327.00     58167.68
  122.50        2964.25           1412       14718.00     64253.65
  122.53        2964.50           1416       16547.00     72259.35
  122.57        2964.75           1419       17957.00     78433.70
  122.60        2965.00           1422       19196.00     83861.12
  122.63        2965.25           1426       21100.00     92205.01
  122.66        2965.50           1429       22387.00     97847.39
  122.69        2965.75           1432       24058.00    105176.20
  122.72        2966.00           1436       25772.00    112696.90
  122.75        2966.25           1439       27046.00    118289.10
  122.78        2966.50           1442       28161.00    123185.00
  122.81        2966.75           1446       29337.00    128350.30
  122.85        2967.00           1449       29602.00    129514.50
  122.88        2967.25           1452       29667.00    129800.00
  122.91        2967.50           1456       29599.00    129501.30
  122.94        2967.75           1459       29522.00    129163.00
  122.97        2968.00           1462       29406.00    128653.40
  123.00        2968.25           1466       28204.00    123373.90
  123.03        2968.50           1469       27154.00    118763.30
  123.06        2968.75           1472       25584.00    111871.80
  123.09        2969.00           1476       23949.00    104698.00
  123.13        2969.25           1479       22445.00     98101.72
  123.16        2969.50           1482       20931.00     91464.22
  123.19        2969.75           1486       19355.00     84557.74
  123.22        2970.00           1489       17987.00     78565.08
  123.25        2970.25           1492       16729.00     73056.20
  123.28        2970.50           1496       14875.00     64940.70
  123.31        2970.75           1499       13549.00     59138.83
  123.34        2971.00           1502       12174.00     53124.71
  123.37        2971.25           1506       10274.00     44817.85
  123.41        2971.50           1509        8965.00     39097.27
  123.44        2971.75           1513        7322.00     31919.83
  123.47        2972.00           1516        5860.00     25535.68
  123.50        2972.25           1519        4445.00     19359.10
  123.53        2972.50           1523        2721.00     11836.81
  123.56        2972.75           1526        1454.00      6310.70
  123.59        2973.00           1529         662.00      2857.26
  123.62        2973.25           1533         372.00      1592.93
  123.65        2973.50           1536         307.00      1309.55
  123.68        2973.75           1539         253.00      1074.14
  123.71        2974.00           1543         217.00       917.20
  123.74        2974.25           1546         177.00       742.82
  123.77        2974.50           1549         142.00       590.25
  123.81        2974.75           1553          86.00       346.12
  123.84        2975.00           1556          75.00       298.17
  123.87        2975.25           1559          55.00       210.99
  123.90        2975.50           1563          53.00       202.27
  123.93        2975.75           1566          63.00       245.86
  123.96        2976.00           1569          56.00       215.35
  123.99        2976.25           1573          57.00       219.71
  124.02        2976.50           1576          49.00       184.83
  124.05        2976.75           1579          52.00       197.91
  124.08        2977.00           1583          53.00       202.27
  124.11        2977.25           1586          47.00       176.11
  124.14        2977.50           1590          55.00       210.99
  124.17        2977.75           1593          52.00       197.91
  124.20        2978.00           1596          42.00       154.32
  124.24        2978.25           1600          61.00       237.14
  124.27        2978.50           1603          51.00       193.55
  124.30        2978.75           1606          51.00       193.55
  124.33        2979.00           1610          52.00       197.91
  124.36        2979.25           1613          60.00       232.78
  124.39        2979.50           1616          46.00       171.75
  124.42        2979.75           1620          52.00       197.91
  124.45        2980.00           1623          46.00       171.75
  124.48        2980.25           1626          53.00       202.27
  124.51        2980.50           1630          46.00       171.75
  124.54        2980.75           1633          48.00       180.47
  124.57        2981.00           1637          47.00       176.11
  124.60        2981.25           1640          56.00       215.35
  124.64        2981.50           1643          44.00       163.03
  124.67        2981.75           1647          41.00       149.96
  124.70        2982.00           1650          44.00       163.03
  124.73        2982.25           1653          52.00       197.91
  124.76        2982.50           1657          49.00       184.83
  124.79        2982.75           1660          46.00       171.75
  124.82        2983.00           1663          47.00       176.11
  124.85        2983.25           1667          51.00       193.55
  124.88        2983.50           1670          50.00       189.19
  124.91        2983.75           1673          49.00       184.83
  124.94        2984.00           1677          56.00       215.35
HS scan finished at 02:05:10
end
************************************************************
  HS Scan of (1) Internal mercury lamp
************************************************************
Integration time is 0.2294 seconds per sample
dh240619El Arenosillo 37.1 6.73 3.072425pr1000
************************************************************
Dead Time -------------------------  3E-08 
Number of Cycles Used -------------  4 
Starting Wavelength (Angstroms) ---  2950 
Final Wavelength (Angstoms) -------  2984 
Wavelength Increment (Angstroms) --  .25 
Filter Wheel #1 Position ---------- (1) Ground quartz diffuser (ND=2.32)
Filter Wheel #2 Position ---------- (1) Neutral Density 0.494



************************************************************
HS scan start time = 21:39:43
Dark Count =  6.8 


Time (GMT)  Wavelength (Ang)  Step Number  Raw Counts  Counts/Second

 1300.08        2950.00           1222          51.00       192.68
 1300.15        2950.25           1226          48.00       179.60
 1300.18        2950.50           1229          52.00       197.04
 1300.21        2950.75           1232          50.00       188.32
 1300.24        2951.00           1236          54.00       205.76
 1300.27        2951.25           1239          48.00       179.60
 1300.30        2951.50           1242          53.00       201.40
 1300.33        2951.75           1246          61.00       236.27
 1300.37        2952.00           1249          46.00       170.88
 1300.40        2952.25           1252          54.00       205.76
 1300.43        2952.50           1256          62.00       240.63
 1300.46        2952.75           1259          60.00       231.91
 1300.49        2953.00           1262          55.00       210.11
 1300.52        2953.25           1266          60.00       231.91
 1300.55        2953.50           1269          51.00       192.68
 1300.58        2953.75           1272          55.00       210.11
 1300.61        2954.00           1276          53.00       201.40
 1300.64        2954.25           1279          55.00       210.11
 1300.67        2954.50           1282          54.00       205.76
 1300.71        2954.75           1286          62.00       240.63
 1300.74        2955.00           1289          54.00       205.76
 1300.77        2955.25           1292          60.00       231.91
 1300.80        2955.50           1296          55.00       210.11
 1300.83        2955.75           1299          57.00       218.83
 1300.86        2956.00           1302          54.00       205.76
 1300.89        2956.25           1306          54.00       205.76
 1300.92        2956.50           1309          59.00       227.55
 1300.95        2956.75           1312          48.00       179.60
 1300.98        2957.00           1316          61.00       236.27
 1301.01        2957.25           1319          54.00       205.76
 1301.04        2957.50           1322          48.00       179.60
 1301.08        2957.75           1326          59.00       227.55
 1301.11        2958.00           1329          62.00       240.63
 1301.14        2958.25           1332          59.00       227.55
 1301.17        2958.50           1336          59.00       227.55
 1301.20        2958.75           1339          50.00       188.32
 1301.23        2959.00           1342          56.00       214.47
 1301.26        2959.25           1346          60.00       231.91
 1301.29        2959.50           1349          56.00       214.47
 1301.32        2959.75           1352          67.00       262.43
 1301.35        2960.00           1356          95.00       384.49
 1301.38        2960.25           1359         118.00       484.75
 1301.41        2960.50           1362         169.00       707.08
 1301.44        2960.75           1366         196.00       824.78
 1301.47        2961.00           1369         236.00       999.16
 1301.50        2961.25           1372         286.00      1217.13
 1301.54        2961.50           1376         357.00      1526.66
 1301.57        2961.75           1379         508.00      2184.97
 1301.60        2962.00           1382        1152.00      4992.90
 1301.63        2962.25           1386        2888.00     12564.46
 1301.66        2962.50           1389        4300.00     18725.43
 1301.69        2962.75           1392        5640.00     24574.35
 1301.72        2963.00           1396        7467.00     32552.26
 1301.75        2963.25           1399        8866.00     38663.83
 1301.78        2963.50           1402       10032.00     43759.24
 1301.81        2963.75           1406       11979.00     52271.10
 1301.85        2964.00           1409       13406.00     58512.39
 1301.88        2964.25           1412       14725.00     64283.40
 1301.91        2964.50           1416       16858.00     73620.13
 1301.94        2964.75           1419       18147.00     79264.98
 1301.97        2965.00           1422       19508.00     85227.22
 1302.00        2965.25           1426       21600.00     94395.97
 1302.03        2965.50           1429       22892.00    100061.00
 1302.06        2965.75           1432       24443.00    106864.30
 1302.09        2966.00           1436       26330.00    115145.10
 1302.13        2966.25           1439       27626.00    120834.80
 1302.16        2966.50           1442       28974.00    126754.90
 1302.19        2966.75           1446       30394.00    132993.40
 1302.22        2967.00           1449       30577.00    133797.50
 1302.25        2967.25           1452       30725.00    134447.90
 1302.28        2967.50           1456       30643.00    134087.60
 1302.31        2967.75           1459       30716.00    134408.40
 1302.34        2968.00           1462       30440.00    133195.50
 1302.37        2968.25           1466       29530.00    129197.30
 1302.41        2968.50           1469       28252.00    123583.80
 1302.44        2968.75           1472       26831.00    117344.40
 1302.47        2969.00           1476       25048.00    109518.80
 1302.50        2969.25           1479       23644.00    103359.20
 1302.53        2969.50           1482       22525.00     98451.64
 1302.56        2969.75           1486       20420.00     89223.69
 1302.59        2970.00           1489       19166.00     83728.80
 1302.62        2970.25           1492       17673.00     77189.00
 1302.65        2970.50           1496       15862.00     69259.72
 1302.69        2970.75           1499       14500.00     63298.82
 1302.72        2971.00           1502       13048.00     56946.38
 1302.75        2971.25           1506       11176.00     48760.03
 1302.78        2971.50           1509        9686.00     42247.07
 1302.81        2971.75           1513        7846.00     34207.71
 1302.84        2972.00           1516        6483.00     28254.98
 1302.87        2972.25           1519        4912.00     21396.47
 1302.90        2972.50           1523        3071.00     13362.81
 1302.93        2972.75           1526        1815.00      7884.17
 1302.97        2973.00           1529         763.00      3296.75
 1303.00        2973.25           1533         386.00      1653.09
 1303.03        2973.50           1536         307.00      1308.68
 1303.06        2973.75           1539         246.00      1042.75
 1303.09        2974.00           1543         205.00       864.02
 1303.12        2974.25           1546         167.00       698.36
 1303.15        2974.50           1549         118.00       484.75
 1303.18        2974.75           1553          76.00       301.66
 1303.21        2975.00           1556          70.00       275.50
 1303.24        2975.25           1559          57.00       218.83
 1303.27        2975.50           1563          59.00       227.55
 1303.30        2975.75           1566          53.00       201.40
 1303.33        2976.00           1569          47.00       175.24
 1303.36        2976.25           1573          50.00       188.32
 1303.39        2976.50           1576          55.00       210.11
 1303.42        2976.75           1579          52.00       197.04
 1303.45        2977.00           1583          52.00       197.04
 1303.48        2977.25           1586          47.00       175.24
 1303.52        2977.50           1590          49.00       183.96
 1303.55        2977.75           1593          57.00       218.83
 1303.58        2978.00           1596          52.00       197.04
 1303.61        2978.25           1600          54.00       205.76
 1303.64        2978.50           1603          55.00       210.11
 1303.67        2978.75           1606          52.00       197.04
 1303.70        2979.00           1610          54.00       205.76
 1303.73        2979.25           1613          48.00       179.60
 1303.77        2979.50           1616          53.00       201.40
 1303.80        2979.75           1620          47.00       175.24
 1303.83        2980.00           1623          55.00       210.11
 1303.86        2980.25           1626          55.00       210.11
 1303.89        2980.50           1630          48.00       179.60
 1303.92        2980.75           1633          43.00       157.80
 1303.95        2981.00           1637          53.00       201.40
 1303.98        2981.25           1640          54.00       205.76
 1304.01        2981.50           1643          52.00       197.04
 1304.04        2981.75           1647          51.00       192.68
 1304.07        2982.00           1650          52.00       197.04
 1304.10        2982.25           1653          49.00       183.96
 1304.13        2982.50           1657          45.00       166.52
 1304.17        2982.75           1660          55.00       210.11
 1304.20        2983.00           1663          54.00       205.76
 1304.23        2983.25           1667          57.00       218.83
 1304.26        2983.50           1670          48.00       179.60
 1304.29        2983.75           1673          48.00       179.60
 1304.32        2984.00           1677          47.00       175.24
HS scan finished at 21:44:32
end
