************************************************************
  HS Scan of (1) Internal mercury lamp
************************************************************
Integration time is 0.2294 seconds per sample
dh200618Manchester 53.47 2.23 2.965129pr1000
************************************************************
Dead Time -------------------------  3E-08 
Number of Cycles Used -------------  4 
Starting Wavelength (Angstroms) ---  2950 
Final Wavelength (Angstoms) -------  2984 
Wavelength Increment (Angstroms) --  .25 
Filter Wheel #1 Position ---------- (1) Ground quartz diffuser (ND=2.32)
Filter Wheel #2 Position ---------- (1) Neutral Density 0.494



************************************************************
HS scan start time = 01:38:21
Dark Count =  5.6 


Time (GMT)  Wavelength (Ang)  Step Number  Raw Counts  Counts/Second

   98.73        2950.00           1222          57.00       224.06
   98.79        2950.25           1226          61.00       241.50
   98.82        2950.50           1229          56.00       219.71
   98.85        2950.75           1232          63.00       250.22
   98.89        2951.00           1236          58.00       228.42
   98.92        2951.25           1239          58.00       228.42
   98.95        2951.50           1242          49.00       189.19
   98.98        2951.75           1246          62.00       245.86
   99.01        2952.00           1249          57.00       224.06
   99.04        2952.25           1252          55.00       215.35
   99.07        2952.50           1256          49.00       189.19
   99.10        2952.75           1259          60.00       237.14
   99.13        2953.00           1262          46.00       176.11
   99.16        2953.25           1266          56.00       219.71
   99.20        2953.50           1269          57.00       224.06
   99.23        2953.75           1272          55.00       215.35
   99.26        2954.00           1276          57.00       224.06
   99.29        2954.25           1279          60.00       237.14
   99.32        2954.50           1282          57.00       224.06
   99.35        2954.75           1286          45.00       171.75
   99.38        2955.00           1289          48.00       184.83
   99.41        2955.25           1292          53.00       206.63
   99.44        2955.50           1296          55.00       215.35
   99.47        2955.75           1299          57.00       224.06
   99.50        2956.00           1302          54.00       210.99
   99.54        2956.25           1306          59.00       232.78
   99.57        2956.50           1309          62.00       245.86
   99.60        2956.75           1312          59.00       232.78
   99.63        2957.00           1316          57.00       224.06
   99.66        2957.25           1319          54.00       210.99
   99.69        2957.50           1322          51.00       197.91
   99.72        2957.75           1326          54.00       210.99
   99.75        2958.00           1329          49.00       189.19
   99.78        2958.25           1332          47.00       180.47
   99.81        2958.50           1336          53.00       206.63
   99.84        2958.75           1339          52.00       202.27
   99.87        2959.00           1342          57.00       224.06
   99.90        2959.25           1346          55.00       215.35
   99.93        2959.50           1349          73.00       293.81
   99.97        2959.75           1352          80.00       324.33
  100.00        2960.00           1356         103.00       424.59
  100.03        2960.25           1359         144.00       603.32
  100.06        2960.50           1362         187.00       790.78
  100.09        2960.75           1366         222.00       943.36
  100.12        2961.00           1369         259.00      1104.66
  100.15        2961.25           1372         296.00      1265.96
  100.18        2961.50           1376         379.00      1627.80
  100.21        2961.75           1379         607.00      2621.83
  100.24        2962.00           1382        1348.00      5852.82
  100.27        2962.25           1386        3099.00     13490.20
  100.30        2962.50           1389        4645.00     20236.34
  100.34        2962.75           1392        6074.00     26474.38
  100.37        2963.00           1396        8132.00     35462.29
  100.40        2963.25           1399        9464.00     41282.13
  100.43        2963.50           1402       11080.00     48345.57
  100.46        2963.75           1406       13052.00     56969.13
  100.49        2964.00           1409       14455.00     63107.16
  100.52        2964.25           1412       16042.00     70052.91
  100.55        2964.50           1416       18075.00     78954.90
  100.58        2964.75           1419       19616.00     85705.69
  100.62        2965.00           1422       21207.00     92678.42
  100.65        2965.25           1426       23472.00    102610.10
  100.68        2965.50           1429       25008.00    109348.60
  100.71        2965.75           1432       26465.00    115743.00
  100.74        2966.00           1436       28370.00    124107.30
  100.77        2966.25           1439       30129.00    131834.30
  100.80        2966.50           1442       31536.00    138017.60
  100.83        2966.75           1446       32696.00    143117.10
  100.86        2967.00           1449       33091.00    144853.90
  100.89        2967.25           1452       33187.00    145276.10
  100.93        2967.50           1456       33160.00    145157.40
  100.96        2967.75           1459       32903.00    144027.30
  100.99        2968.00           1462       32913.00    144071.20
  101.02        2968.25           1466       31764.00    139019.80
  101.05        2968.50           1469       30408.00    133060.20
  101.08        2968.75           1472       28906.00    126461.50
  101.11        2969.00           1476       26936.00    117810.60
  101.14        2969.25           1479       25638.00    112113.20
  101.18        2969.50           1482       24111.00    105413.00
  101.21        2969.75           1486       22155.00     96834.53
  101.24        2970.00           1489       20682.00     90377.24
  101.27        2970.25           1492       19141.00     83624.53
  101.30        2970.50           1496       16940.00     73984.43
  101.33        2970.75           1499       15446.00     67444.09
  101.36        2971.00           1502       13917.00     60753.18
  101.39        2971.25           1506       11812.00     51546.09
  101.42        2971.50           1509       10232.00     44638.65
  101.45        2971.75           1513        8289.00     36148.17
  101.48        2972.00           1516        6654.00     29006.92
  101.51        2972.25           1519        5272.00     22973.11
  101.54        2972.50           1523        3242.00     14114.08
  101.57        2972.75           1526        1802.00      7832.70
  101.60        2973.00           1529         797.00      3450.23
  101.64        2973.25           1533         371.00      1592.93
  101.67        2973.50           1536         302.00      1292.12
  101.70        2973.75           1539         248.00      1056.70
  101.73        2974.00           1543         209.00       886.68
  101.76        2974.25           1546         161.00       677.43
  101.79        2974.50           1549         124.00       516.14
  101.82        2974.75           1553          79.00       319.97
  101.85        2975.00           1556          72.00       289.45
  101.88        2975.25           1559          58.00       228.42
  101.91        2975.50           1563          56.00       219.71
  101.94        2975.75           1566          56.00       219.71
  101.97        2976.00           1569          44.00       167.39
  102.01        2976.25           1573          58.00       228.42
  102.04        2976.50           1576          48.00       184.83
  102.07        2976.75           1579          49.00       189.19
  102.10        2977.00           1583          46.00       176.11
  102.13        2977.25           1586          49.00       189.19
  102.16        2977.50           1590          50.00       193.55
  102.19        2977.75           1593          55.00       215.35
  102.22        2978.00           1596          51.00       197.91
  102.25        2978.25           1600          45.00       171.75
  102.28        2978.50           1603          55.00       215.35
  102.31        2978.75           1606          53.00       206.63
  102.34        2979.00           1610          62.00       245.86
  102.37        2979.25           1613          53.00       206.63
  102.41        2979.50           1616          50.00       193.55
  102.44        2979.75           1620          51.00       197.91
  102.47        2980.00           1623          59.00       232.78
  102.50        2980.25           1626          59.00       232.78
  102.53        2980.50           1630          45.00       171.75
  102.56        2980.75           1633          50.00       193.55
  102.59        2981.00           1637          51.00       197.91
  102.62        2981.25           1640          47.00       180.47
  102.65        2981.50           1643          47.00       180.47
  102.68        2981.75           1647          50.00       193.55
  102.71        2982.00           1650          54.00       210.99
  102.74        2982.25           1653          53.00       206.63
  102.77        2982.50           1657          57.00       224.06
  102.80        2982.75           1660          45.00       171.75
  102.84        2983.00           1663          48.00       184.83
  102.87        2983.25           1667          56.00       219.71
  102.90        2983.50           1670          50.00       193.55
  102.93        2983.75           1673          40.00       149.96
  102.96        2984.00           1677          51.00       197.91
HS scan finished at 01:43:10
end
************************************************************
  HS Scan of (1) Internal mercury lamp
************************************************************
Integration time is 0.2294 seconds per sample
dh200618Manchester 53.47 2.23 2.804185pr1000
************************************************************
Dead Time -------------------------  3E-08 
Number of Cycles Used -------------  4 
Starting Wavelength (Angstroms) ---  2950 
Final Wavelength (Angstoms) -------  2984 
Wavelength Increment (Angstroms) --  .25 
Filter Wheel #1 Position ---------- (1) Ground quartz diffuser (ND=2.32)
Filter Wheel #2 Position ---------- (1) Neutral Density 0.494



************************************************************
HS scan start time = 21:42:05
Dark Count =  7.1 


Time (GMT)  Wavelength (Ang)  Step Number  Raw Counts  Counts/Second

 1302.45        2950.00           1222          61.00       234.96
 1302.52        2950.25           1226          52.00       195.73
 1302.55        2950.50           1229          61.00       234.96
 1302.58        2950.75           1232          54.00       204.45
 1302.61        2951.00           1236          55.00       208.81
 1302.64        2951.25           1239          53.00       200.09
 1302.68        2951.50           1242          61.00       234.96
 1302.71        2951.75           1246          52.00       195.73
 1302.74        2952.00           1249          57.00       217.53
 1302.77        2952.25           1252          60.00       230.60
 1302.80        2952.50           1256          64.00       248.04
 1302.83        2952.75           1259          54.00       204.45
 1302.86        2953.00           1262          62.00       239.32
 1302.89        2953.25           1266          56.00       213.17
 1302.92        2953.50           1269          58.00       221.88
 1302.96        2953.75           1272          59.00       226.24
 1302.99        2954.00           1276          53.00       200.09
 1303.02        2954.25           1279          55.00       208.81
 1303.05        2954.50           1282          64.00       248.04
 1303.08        2954.75           1286          61.00       234.96
 1303.11        2955.00           1289          49.00       182.65
 1303.14        2955.25           1292          54.00       204.45
 1303.17        2955.50           1296          54.00       204.45
 1303.20        2955.75           1299          56.00       213.17
 1303.23        2956.00           1302          70.00       274.20
 1303.26        2956.25           1306          53.00       200.09
 1303.30        2956.50           1309          63.00       243.68
 1303.33        2956.75           1312          58.00       221.88
 1303.36        2957.00           1316          54.00       204.45
 1303.39        2957.25           1319          58.00       221.88
 1303.42        2957.50           1322          60.00       230.60
 1303.45        2957.75           1326          53.00       200.09
 1303.48        2958.00           1329          50.00       187.01
 1303.51        2958.25           1332          57.00       217.53
 1303.54        2958.50           1336          53.00       200.09
 1303.57        2958.75           1339          59.00       226.24
 1303.60        2959.00           1342          56.00       213.17
 1303.64        2959.25           1346          52.00       195.73
 1303.67        2959.50           1349          71.00       278.56
 1303.70        2959.75           1352          76.00       300.35
 1303.73        2960.00           1356          96.00       387.54
 1303.76        2960.25           1359         124.00       509.60
 1303.79        2960.50           1362         146.00       605.50
 1303.82        2960.75           1366         209.00       880.15
 1303.85        2961.00           1369         251.00      1063.24
 1303.88        2961.25           1372         288.00      1224.54
 1303.91        2961.50           1376         352.00      1503.56
 1303.94        2961.75           1379         481.00      2065.95
 1303.97        2962.00           1382        1066.00      4616.59
 1304.00        2962.25           1386        2543.00     11058.16
 1304.04        2962.50           1389        4068.00     17711.68
 1304.07        2962.75           1392        5392.00     23490.40
 1304.10        2963.00           1396        7096.00     30930.61
 1304.13        2963.25           1399        8504.00     37080.90
 1304.16        2963.50           1402        9825.00     42853.23
 1304.19        2963.75           1406       11789.00     51438.96
 1304.22        2964.00           1409       13042.00     56918.82
 1304.25        2964.25           1412       14717.00     64247.08
 1304.28        2964.50           1416       16581.00     72406.02
 1304.31        2964.75           1419       17937.00     78343.90
 1304.35        2965.00           1422       19389.00     84704.52
 1304.38        2965.25           1426       21151.00     92426.37
 1304.41        2965.50           1429       22583.00     98704.68
 1304.44        2965.75           1432       23878.00    104384.40
 1304.47        2966.00           1436       26002.00    113704.10
 1304.50        2966.25           1439       27135.00    118677.70
 1304.53        2966.50           1442       28473.00    124553.00
 1304.56        2966.75           1446       29880.00    130733.60
 1304.59        2967.00           1449       30131.00    131836.40
 1304.63        2967.25           1452       30420.00    133106.30
 1304.66        2967.50           1456       30482.00    133378.80
 1304.69        2967.75           1459       30496.00    133440.30
 1304.72        2968.00           1462       30210.00    132183.60
 1304.75        2968.25           1466       29412.00    128677.60
 1304.78        2968.50           1469       28406.00    124258.80
 1304.81        2968.75           1472       27171.00    118835.70
 1304.84        2969.00           1476       25178.00    110087.90
 1304.87        2969.25           1479       23874.00    104366.80
 1304.90        2969.50           1482       22640.00     98954.62
 1304.94        2969.75           1486       20751.00     90673.09
 1304.97        2970.00           1489       19249.00     84091.13
 1305.00        2970.25           1492       17751.00     77529.29
 1305.03        2970.50           1496       16008.00     69897.52
 1305.06        2970.75           1499       14513.00     63354.40
 1305.09        2971.00           1502       13195.00     57588.08
 1305.12        2971.25           1506       11349.00     49515.09
 1305.15        2971.50           1509        9929.00     43307.76
 1305.18        2971.75           1513        8236.00     35910.07
 1305.21        2972.00           1516        6711.00     29249.28
 1305.25        2972.25           1519        5338.00     23254.67
 1305.28        2972.50           1523        3439.00     14967.05
 1305.31        2972.75           1526        2097.00      9112.78
 1305.34        2973.00           1529         989.00      4280.85
 1305.37        2973.25           1533         398.00      1704.10
 1305.40        2973.50           1536         306.00      1303.02
 1305.43        2973.75           1539         249.00      1054.52
 1305.46        2974.00           1543         194.00       814.75
 1305.49        2974.25           1546         146.00       605.50
 1305.52        2974.50           1549         112.00       457.29
 1305.55        2974.75           1553          87.00       348.30
 1305.58        2975.00           1556          69.00       269.84
 1305.61        2975.25           1559          60.00       230.60
 1305.65        2975.50           1563          61.00       234.96
 1305.68        2975.75           1566          59.00       226.24
 1305.71        2976.00           1569          52.00       195.73
 1305.74        2976.25           1573          52.00       195.73
 1305.77        2976.50           1576          59.00       226.24
 1305.80        2976.75           1579          52.00       195.73
 1305.83        2977.00           1583          48.00       178.29
 1305.86        2977.25           1586          51.00       191.37
 1305.89        2977.50           1590          52.00       195.73
 1305.92        2977.75           1593          51.00       191.37
 1305.95        2978.00           1596          46.00       169.57
 1305.98        2978.25           1600          49.00       182.65
 1306.01        2978.50           1603          49.00       182.65
 1306.04        2978.75           1606          55.00       208.81
 1306.07        2979.00           1610          57.00       217.53
 1306.10        2979.25           1613          52.00       195.73
 1306.13        2979.50           1616          54.00       204.45
 1306.16        2979.75           1620          48.00       178.29
 1306.20        2980.00           1623          53.00       200.09
 1306.23        2980.25           1626          43.00       156.50
 1306.26        2980.50           1630          62.00       239.32
 1306.29        2980.75           1633          52.00       195.73
 1306.32        2981.00           1637          47.00       173.93
 1306.35        2981.25           1640          55.00       208.81
 1306.38        2981.50           1643          47.00       173.93
 1306.41        2981.75           1647          59.00       226.24
 1306.44        2982.00           1650          50.00       187.01
 1306.47        2982.25           1653          56.00       213.17
 1306.50        2982.50           1657          46.00       169.57
 1306.53        2982.75           1660          51.00       191.37
 1306.57        2983.00           1663          49.00       182.65
 1306.60        2983.25           1667          54.00       204.45
 1306.63        2983.50           1670          44.00       160.86
 1306.66        2983.75           1673          48.00       178.29
 1306.69        2984.00           1677          48.00       178.29
HS scan finished at 21:46:54
end
