************************************************************
  HS Scan of (1) Internal mercury lamp
************************************************************
Integration time is 0.2294 seconds per sample
dh230617Manchester 53.47 2.23 2.857833pr1000
************************************************************
Dead Time -------------------------  3E-08 
Number of Cycles Used -------------  4 
Starting Wavelength (Angstroms) ---  2950 
Final Wavelength (Angstoms) -------  2984 
Wavelength Increment (Angstroms) --  .25 
Filter Wheel #1 Position ---------- (1) Ground quartz diffuser (ND=2.32)
Filter Wheel #2 Position ---------- (1) Neutral Density 0.494



************************************************************
HS scan start time = 01:25:26
Dark Count =  8.2 


Time (GMT)  Wavelength (Ang)  Step Number  Raw Counts  Counts/Second

   85.81        2950.00           1222          46.00       164.78
   85.88        2950.25           1226          50.00       182.22
   85.91        2950.50           1229          51.00       186.57
   85.94        2950.75           1232          42.00       147.34
   85.97        2951.00           1236          42.00       147.34
   86.00        2951.25           1239          55.00       204.01
   86.03        2951.50           1242          42.00       147.34
   86.06        2951.75           1246          54.00       199.65
   86.09        2952.00           1249          45.00       160.42
   86.12        2952.25           1252          41.00       142.98
   86.15        2952.50           1256          44.00       156.06
   86.18        2952.75           1259          43.00       151.70
   86.22        2953.00           1262          42.00       147.34
   86.25        2953.25           1266          43.00       151.70
   86.28        2953.50           1269          44.00       156.06
   86.31        2953.75           1272          40.00       138.62
   86.34        2954.00           1276          48.00       173.50
   86.37        2954.25           1279          41.00       142.98
   86.40        2954.50           1282          36.00       121.19
   86.43        2954.75           1286          45.00       160.42
   86.46        2955.00           1289          45.00       160.42
   86.49        2955.25           1292          35.00       116.83
   86.52        2955.50           1296          40.00       138.62
   86.55        2955.75           1299          45.00       160.42
   86.58        2956.00           1302          39.00       134.26
   86.62        2956.25           1306          53.00       195.29
   86.65        2956.50           1309          37.00       125.55
   86.68        2956.75           1312          39.00       134.26
   86.71        2957.00           1316          43.00       151.70
   86.74        2957.25           1319          45.00       160.42
   86.77        2957.50           1322          45.00       160.42
   86.80        2957.75           1326          41.00       142.98
   86.83        2958.00           1329          42.00       147.34
   86.86        2958.25           1332          52.00       190.93
   86.89        2958.50           1336          41.00       142.98
   86.92        2958.75           1339          48.00       173.50
   86.95        2959.00           1342          43.00       151.70
   86.98        2959.25           1346          53.00       195.29
   87.01        2959.50           1349          57.00       212.73
   87.04        2959.75           1352          80.00       312.99
   87.07        2960.00           1356         107.00       430.69
   87.11        2960.25           1359         150.00       618.15
   87.14        2960.50           1362         203.00       849.19
   87.17        2960.75           1366         259.00      1093.32
   87.20        2961.00           1369         311.00      1320.02
   87.23        2961.25           1372         359.00      1529.28
   87.26        2961.50           1376         478.00      2048.08
   87.29        2961.75           1379         833.00      3595.85
   87.32        2962.00           1382        1808.00      7847.53
   87.35        2962.25           1386        3860.00     16799.23
   87.38        2962.50           1389        5587.00     24336.86
   87.41        2962.75           1392        7260.00     31642.06
   87.44        2963.00           1396        9488.00     41375.65
   87.47        2963.25           1399       10998.00     47975.72
   87.50        2963.50           1402       12927.00     56410.99
   87.54        2963.75           1406       15363.00     67069.43
   87.57        2964.00           1409       17031.00     74371.51
   87.60        2964.25           1412       19011.00     83043.60
   87.63        2964.50           1416       21260.00     92899.34
   87.66        2964.75           1419       23115.00    101032.90
   87.69        2965.00           1422       24982.00    109223.10
   87.72        2965.25           1426       27354.00    119634.40
   87.75        2965.50           1429       28940.00    126599.40
   87.78        2965.75           1432       31024.00    135755.80
   87.81        2966.00           1436       33196.00    145304.20
   87.84        2966.25           1439       34862.00    152631.90
   87.87        2966.50           1442       36358.00    159214.70
   87.91        2966.75           1446       37809.00    165601.90
   87.94        2967.00           1449       38001.00    166447.20
   87.97        2967.25           1452       37895.00    165980.50
   88.00        2967.50           1456       37962.00    166275.50
   88.03        2967.75           1459       37741.00    165302.50
   88.06        2968.00           1462       37571.00    164554.00
   88.09        2968.25           1466       36438.00    159566.80
   88.12        2968.50           1469       34772.00    152236.00
   88.15        2968.75           1472       33142.00    145066.80
   88.18        2969.00           1476       30874.00    135096.60
   88.22        2969.25           1479       29146.00    127504.20
   88.25        2969.50           1482       27302.00    119406.10
   88.28        2969.75           1486       25030.00    109433.70
   88.31        2970.00           1489       23249.00    101620.60
   88.34        2970.25           1492       21719.00     94911.54
   88.37        2970.50           1496       19158.00     83687.62
   88.40        2970.75           1499       17522.00     76521.59
   88.43        2971.00           1502       15683.00     68470.06
   88.46        2971.25           1506       13364.00     58322.53
   88.50        2971.50           1509       11345.00     49492.79
   88.53        2971.75           1513        9091.00     39640.84
   88.56        2972.00           1516        7454.00     32489.37
   88.59        2972.25           1519        5806.00     25292.94
   88.62        2972.50           1523        3550.00     15446.57
   88.65        2972.75           1526        2077.00      9020.75
   88.68        2973.00           1529         979.00      4232.45
   88.71        2973.25           1533         451.00      1930.36
   88.74        2973.50           1536         348.00      1481.32
   88.77        2973.75           1539         298.00      1263.34
   88.80        2974.00           1543         226.00       949.46
   88.83        2974.25           1546         200.00       836.12
   88.86        2974.50           1549         152.00       626.86
   88.90        2974.75           1553          92.00       365.30
   88.93        2975.00           1556          72.00       278.12
   88.96        2975.25           1559          51.00       186.57
   88.99        2975.50           1563          49.00       177.86
   89.02        2975.75           1566          47.00       169.14
   89.05        2976.00           1569          43.00       151.70
   89.08        2976.25           1573          44.00       156.06
   89.11        2976.50           1576          49.00       177.86
   89.14        2976.75           1579          47.00       169.14
   89.17        2977.00           1583          44.00       156.06
   89.20        2977.25           1586          47.00       169.14
   89.23        2977.50           1590          42.00       147.34
   89.27        2977.75           1593          47.00       169.14
   89.30        2978.00           1596          41.00       142.98
   89.33        2978.25           1600          44.00       156.06
   89.36        2978.50           1603          45.00       160.42
   89.39        2978.75           1606          40.00       138.62
   89.42        2979.00           1610          40.00       138.62
   89.45        2979.25           1613          43.00       151.70
   89.48        2979.50           1616          38.00       129.90
   89.51        2979.75           1620          46.00       164.78
   89.54        2980.00           1623          46.00       164.78
   89.57        2980.25           1626          47.00       169.14
   89.60        2980.50           1630          42.00       147.34
   89.63        2980.75           1633          40.00       138.62
   89.66        2981.00           1637          41.00       142.98
   89.69        2981.25           1640          42.00       147.34
   89.72        2981.50           1643          41.00       142.98
   89.76        2981.75           1647          41.00       142.98
   89.79        2982.00           1650          36.00       121.19
   89.82        2982.25           1653          44.00       156.06
   89.85        2982.50           1657          44.00       156.06
   89.88        2982.75           1660          42.00       147.34
   89.91        2983.00           1663          46.00       164.78
   89.94        2983.25           1667          48.00       173.50
   89.97        2983.50           1670          43.00       151.70
   90.00        2983.75           1673          46.00       164.78
   90.03        2984.00           1677          42.00       147.34
HS scan finished at 01:30:15
end
************************************************************
  HS Scan of (1) Internal mercury lamp
************************************************************
Integration time is 0.2294 seconds per sample
dh230617Manchester 53.47 2.23 2.911481pr1000
************************************************************
Dead Time -------------------------  3E-08 
Number of Cycles Used -------------  4 
Starting Wavelength (Angstroms) ---  2950 
Final Wavelength (Angstoms) -------  2984 
Wavelength Increment (Angstroms) --  .25 
Filter Wheel #1 Position ---------- (1) Ground quartz diffuser (ND=2.32)
Filter Wheel #2 Position ---------- (1) Neutral Density 0.494



************************************************************
HS scan start time = 21:42:00
Dark Count =  6.2 


Time (GMT)  Wavelength (Ang)  Step Number  Raw Counts  Counts/Second

 1302.37        2950.00           1222          37.00       134.26
 1302.43        2950.25           1226          41.00       151.70
 1302.46        2950.50           1229          43.00       160.42
 1302.50        2950.75           1232          42.00       156.06
 1302.53        2951.00           1236          45.00       169.14
 1302.56        2951.25           1239          48.00       182.22
 1302.59        2951.50           1242          44.00       164.78
 1302.62        2951.75           1246          40.00       147.34
 1302.65        2952.00           1249          36.00       129.90
 1302.68        2952.25           1252          44.00       164.78
 1302.71        2952.50           1256          38.00       138.62
 1302.74        2952.75           1259          45.00       169.14
 1302.77        2953.00           1262          50.00       190.93
 1302.80        2953.25           1266          45.00       169.14
 1302.83        2953.50           1269          44.00       164.78
 1302.87        2953.75           1272          51.00       195.29
 1302.90        2954.00           1276          46.00       173.50
 1302.93        2954.25           1279          45.00       169.14
 1302.96        2954.50           1282          41.00       151.70
 1302.99        2954.75           1286          47.00       177.86
 1303.02        2955.00           1289          39.00       142.98
 1303.05        2955.25           1292          37.00       134.26
 1303.08        2955.50           1296          42.00       156.06
 1303.11        2955.75           1299          45.00       169.14
 1303.14        2956.00           1302          49.00       186.57
 1303.17        2956.25           1306          51.00       195.29
 1303.20        2956.50           1309          75.00       299.92
 1303.23        2956.75           1312          44.00       164.78
 1303.26        2957.00           1316          41.00       151.70
 1303.30        2957.25           1319          45.00       169.14
 1303.33        2957.50           1322          48.00       182.22
 1303.36        2957.75           1326          42.00       156.06
 1303.39        2958.00           1329          45.00       169.14
 1303.42        2958.25           1332          42.00       156.06
 1303.45        2958.50           1336          41.00       151.70
 1303.48        2958.75           1339          45.00       169.14
 1303.51        2959.00           1342          43.00       160.42
 1303.54        2959.25           1346          43.00       160.42
 1303.58        2959.50           1349          52.00       199.65
 1303.61        2959.75           1352          63.00       247.60
 1303.64        2960.00           1356          86.00       347.87
 1303.67        2960.25           1359         124.00       513.52
 1303.70        2960.50           1362         165.00       692.26
 1303.73        2960.75           1366         211.00       892.79
 1303.76        2961.00           1369         272.00      1158.72
 1303.79        2961.25           1372         313.00      1337.46
 1303.82        2961.50           1376         409.00      1755.98
 1303.85        2961.75           1379         568.00      2449.18
 1303.88        2962.00           1382        1173.00      5087.09
 1303.92        2962.25           1386        2966.00     12907.35
 1303.95        2962.50           1389        4638.00     20203.17
 1303.98        2962.75           1392        6411.00     27943.21
 1304.01        2963.00           1396        8667.00     37796.97
 1304.04        2963.25           1399       10419.00     45453.40
 1304.07        2963.50           1402       12206.00     53266.40
 1304.10        2963.75           1406       14552.00     63528.99
 1304.13        2964.00           1409       16585.00     72427.48
 1304.16        2964.25           1412       18479.00     80721.84
 1304.19        2964.50           1416       20883.00     91255.59
 1304.23        2964.75           1419       22647.00     98989.26
 1304.26        2965.00           1422       24439.00    106849.40
 1304.29        2965.25           1426       26692.00    116736.80
 1304.32        2965.50           1429       28448.00    124447.20
 1304.35        2965.75           1432       30283.00    132508.30
 1304.38        2966.00           1436       32596.00    142674.80
 1304.41        2966.25           1439       34449.00    150823.90
 1304.44        2966.50           1442       35996.00    157630.30
 1304.47        2966.75           1446       38019.00    166535.30
 1304.50        2967.00           1449       38629.00    169221.30
 1304.54        2967.25           1452       38889.00    170366.40
 1304.57        2967.50           1456       38976.00    170749.50
 1304.60        2967.75           1459       38879.00    170322.30
 1304.63        2968.00           1462       38704.00    169551.60
 1304.66        2968.25           1466       37940.00    166187.40
 1304.69        2968.50           1469       36469.00    159712.00
 1304.72        2968.75           1472       34707.00    151958.80
 1304.75        2969.00           1476       32633.00    142837.50
 1304.78        2969.25           1479       30780.00    134692.30
 1304.81        2969.50           1482       28980.00    126783.90
 1304.84        2969.75           1486       26599.00    116328.50
 1304.88        2970.00           1489       24773.00    108314.80
 1304.91        2970.25           1492       23025.00    100646.90
 1304.94        2970.50           1496       20682.00     90374.59
 1304.97        2970.75           1499       18788.00     82075.43
 1305.00        2971.00           1502       17129.00     74809.40
 1305.03        2971.25           1506       14702.00     64185.38
 1305.06        2971.50           1509       12890.00     56257.91
 1305.09        2971.75           1513       10642.00     46428.18
 1305.12        2972.00           1516        8842.00     38561.59
 1305.15        2972.25           1519        6818.00     29720.47
 1305.19        2972.50           1523        4628.00     20159.53
 1305.22        2972.75           1526        2879.00     12527.81
 1305.25        2973.00           1529        1404.00      6094.40
 1305.28        2973.25           1533         526.00      2266.07
 1305.31        2973.50           1536         385.00      1651.35
 1305.34        2973.75           1539         310.00      1324.38
 1305.37        2974.00           1543         271.00      1154.36
 1305.40        2974.25           1546         196.00       827.40
 1305.43        2974.50           1549         142.00       591.99
 1305.46        2974.75           1553         111.00       456.85
 1305.49        2975.00           1556          78.00       312.99
 1305.53        2975.25           1559          67.00       265.04
 1305.56        2975.50           1563          46.00       173.50
 1305.59        2975.75           1566          50.00       190.93
 1305.62        2976.00           1569          46.00       173.50
 1305.65        2976.25           1573          46.00       173.50
 1305.68        2976.50           1576          46.00       173.50
 1305.71        2976.75           1579          43.00       160.42
 1305.74        2977.00           1583          41.00       151.70
 1305.78        2977.25           1586          45.00       169.14
 1305.81        2977.50           1590          41.00       151.70
 1305.84        2977.75           1593          44.00       164.78
 1305.87        2978.00           1596          45.00       169.14
 1305.90        2978.25           1600          53.00       204.01
 1305.93        2978.50           1603          38.00       138.62
 1305.96        2978.75           1606          43.00       160.42
 1305.99        2979.00           1610          42.00       156.06
 1306.02        2979.25           1613          48.00       182.22
 1306.05        2979.50           1616          47.00       177.86
 1306.09        2979.75           1620          43.00       160.42
 1306.12        2980.00           1623          45.00       169.14
 1306.15        2980.25           1626          42.00       156.06
 1306.18        2980.50           1630          39.00       142.98
 1306.21        2980.75           1633          50.00       190.93
 1306.24        2981.00           1637          43.00       160.42
 1306.27        2981.25           1640          46.00       173.50
 1306.30        2981.50           1643          46.00       173.50
 1306.33        2981.75           1647          42.00       156.06
 1306.36        2982.00           1650          42.00       156.06
 1306.39        2982.25           1653          41.00       151.70
 1306.43        2982.50           1657          56.00       217.09
 1306.46        2982.75           1660          43.00       160.42
 1306.49        2983.00           1663          40.00       147.34
 1306.52        2983.25           1667          45.00       169.14
 1306.55        2983.50           1670          45.00       169.14
 1306.58        2983.75           1673          48.00       182.22
 1306.61        2984.00           1677          44.00       164.78
HS scan finished at 21:46:49
end
