************************************************************
  HS Scan of (1) Internal mercury lamp
************************************************************
Integration time is 0.2294 seconds per sample
dh250618Manchester 53.47 2.23 2.857833pr1000
************************************************************
Dead Time -------------------------  3E-08 
Number of Cycles Used -------------  4 
Starting Wavelength (Angstroms) ---  2950 
Final Wavelength (Angstoms) -------  2984 
Wavelength Increment (Angstroms) --  .25 
Filter Wheel #1 Position ---------- (1) Ground quartz diffuser (ND=2.32)
Filter Wheel #2 Position ---------- (1) Neutral Density 0.494



************************************************************
HS scan start time = 01:39:55
Dark Count =  4.2 


Time (GMT)  Wavelength (Ang)  Step Number  Raw Counts  Counts/Second

  100.28        2950.00           1222          58.00       234.53
  100.35        2950.25           1226          56.00       225.81
  100.38        2950.50           1229          54.00       217.09
  100.41        2950.75           1232          51.00       204.01
  100.44        2951.00           1236          57.00       230.17
  100.47        2951.25           1239          62.00       251.96
  100.50        2951.50           1242          57.00       230.17
  100.53        2951.75           1246          56.00       225.81
  100.57        2952.00           1249          65.00       265.04
  100.60        2952.25           1252          49.00       195.29
  100.63        2952.50           1256          49.00       195.29
  100.66        2952.75           1259          51.00       204.01
  100.69        2953.00           1262          58.00       234.53
  100.72        2953.25           1266          52.00       208.37
  100.75        2953.50           1269          59.00       238.89
  100.78        2953.75           1272          53.00       212.73
  100.81        2954.00           1276          49.00       195.29
  100.84        2954.25           1279          55.00       221.45
  100.88        2954.50           1282          60.00       243.25
  100.91        2954.75           1286          51.00       204.01
  100.94        2955.00           1289          45.00       177.86
  100.97        2955.25           1292          61.00       247.60
  101.00        2955.50           1296          59.00       238.89
  101.03        2955.75           1299          62.00       251.96
  101.06        2956.00           1302          56.00       225.81
  101.09        2956.25           1306          58.00       234.53
  101.13        2956.50           1309          52.00       208.37
  101.16        2956.75           1312          49.00       195.29
  101.19        2957.00           1316          63.00       256.32
  101.22        2957.25           1319          47.00       186.57
  101.25        2957.50           1322          58.00       234.53
  101.28        2957.75           1326          52.00       208.37
  101.31        2958.00           1329          48.00       190.93
  101.34        2958.25           1332          53.00       212.73
  101.37        2958.50           1336          49.00       195.29
  101.40        2958.75           1339          50.00       199.65
  101.43        2959.00           1342          58.00       234.53
  101.47        2959.25           1346          57.00       230.17
  101.50        2959.50           1349          54.00       217.09
  101.53        2959.75           1352          65.00       265.04
  101.56        2960.00           1356          82.00       339.15
  101.59        2960.25           1359         108.00       452.49
  101.62        2960.50           1362         148.00       626.86
  101.65        2960.75           1366         197.00       840.47
  101.68        2961.00           1369         238.00      1019.21
  101.71        2961.25           1372         263.00      1128.20
  101.75        2961.50           1376         368.00      1585.95
  101.78        2961.75           1379         726.00      3146.77
  101.81        2962.00           1382        1625.00      7066.89
  101.84        2962.25           1386        3382.00     14731.01
  101.87        2962.50           1389        4757.00     20731.29
  101.90        2962.75           1392        6155.00     26834.15
  101.93        2963.00           1396        7922.00     34551.06
  101.96        2963.25           1399        9321.00     40663.35
  101.99        2963.50           1402       10676.00     46585.55
  102.02        2963.75           1406       12625.00     55107.60
  102.06        2964.00           1409       14073.00     61441.84
  102.09        2964.25           1412       15452.00     67476.47
  102.12        2964.50           1416       17465.00     76289.50
  102.15        2964.75           1419       18774.00     82022.86
  102.18        2965.00           1422       20280.00     88621.53
  102.21        2965.25           1426       22334.00     97625.52
  102.24        2965.50           1429       23575.00    103068.00
  102.27        2965.75           1432       25116.00    109828.60
  102.31        2966.00           1436       26916.00    117728.90
  102.34        2966.25           1439       28125.00    123037.50
  102.37        2966.50           1442       29502.00    129085.70
  102.40        2966.75           1446       30311.00    132640.10
  102.43        2967.00           1449       30516.00    133540.90
  102.46        2967.25           1452       30443.00    133220.10
  102.49        2967.50           1456       30238.00    132319.30
  102.52        2967.75           1459       30266.00    132442.40
  102.55        2968.00           1462       30006.00    131300.00
  102.58        2968.25           1466       28616.00    125193.80
  102.62        2968.50           1469       27191.00    118936.30
  102.65        2968.75           1472       26070.00    114015.30
  102.68        2969.00           1476       24356.00    106494.00
  102.71        2969.25           1479       22786.00     99607.59
  102.74        2969.50           1482       21663.00     94683.57
  102.77        2969.75           1486       19737.00     86242.03
  102.80        2970.00           1489       18408.00     80419.60
  102.83        2970.25           1492       17037.00     74415.30
  102.86        2970.50           1496       15066.00     65787.08
  102.90        2970.75           1499       13439.00     58668.12
  102.93        2971.00           1502       12230.00     53380.10
  102.96        2971.25           1506       10270.00     44810.86
  102.99        2971.50           1509        8819.00     38469.83
  103.02        2971.75           1513        7005.00     30545.85
  103.05        2972.00           1516        5549.00     24188.43
  103.08        2972.25           1519        4195.00     18278.55
  103.11        2972.50           1523        2438.00     10612.79
  103.14        2972.75           1526        1247.00      5418.49
  103.17        2973.00           1529         613.00      2654.09
  103.21        2973.25           1533         360.00      1551.07
  103.24        2973.50           1536         304.00      1306.94
  103.27        2973.75           1539         262.00      1123.84
  103.30        2974.00           1543         214.00       914.58
  103.33        2974.25           1546         168.00       714.05
  103.36        2974.50           1549         118.00       496.08
  103.39        2974.75           1553          97.00       404.54
  103.42        2975.00           1556          75.00       308.63
  103.45        2975.25           1559          55.00       221.45
  103.49        2975.50           1563          55.00       221.45
  103.52        2975.75           1566          56.00       225.81
  103.55        2976.00           1569          49.00       195.29
  103.58        2976.25           1573          51.00       204.01
  103.61        2976.50           1576          53.00       212.73
  103.64        2976.75           1579          47.00       186.57
  103.67        2977.00           1583          45.00       177.86
  103.70        2977.25           1586          53.00       212.73
  103.73        2977.50           1590          53.00       212.73
  103.76        2977.75           1593          48.00       190.93
  103.79        2978.00           1596          57.00       230.17
  103.83        2978.25           1600          46.00       182.22
  103.86        2978.50           1603          55.00       221.45
  103.89        2978.75           1606          52.00       208.37
  103.92        2979.00           1610          48.00       190.93
  103.95        2979.25           1613          49.00       195.29
  103.98        2979.50           1616          45.00       177.86
  104.01        2979.75           1620          52.00       208.37
  104.04        2980.00           1623          51.00       204.01
  104.07        2980.25           1626          59.00       238.89
  104.10        2980.50           1630          47.00       186.57
  104.13        2980.75           1633          50.00       199.65
  104.16        2981.00           1637          49.00       195.29
  104.20        2981.25           1640          44.00       173.50
  104.23        2981.50           1643          50.00       199.65
  104.26        2981.75           1647          54.00       217.09
  104.29        2982.00           1650          44.00       173.50
  104.32        2982.25           1653          44.00       173.50
  104.35        2982.50           1657          49.00       195.29
  104.38        2982.75           1660          60.00       243.25
  104.41        2983.00           1663          50.00       199.65
  104.44        2983.25           1667          49.00       195.29
  104.47        2983.50           1670          47.00       186.57
  104.50        2983.75           1673          43.00       169.14
  104.54        2984.00           1677          55.00       221.45
HS scan finished at 01:44:45
end
************************************************************
  HS Scan of (1) Internal mercury lamp
************************************************************
Integration time is 0.2294 seconds per sample
dh250618Manchester 53.47 2.23 3.179721pr1000
************************************************************
Dead Time -------------------------  3E-08 
Number of Cycles Used -------------  4 
Starting Wavelength (Angstroms) ---  2950 
Final Wavelength (Angstoms) -------  2984 
Wavelength Increment (Angstroms) --  .25 
Filter Wheel #1 Position ---------- (1) Ground quartz diffuser (ND=2.32)
Filter Wheel #2 Position ---------- (1) Neutral Density 0.494



************************************************************
HS scan start time = 21:42:03
Dark Count =  4.9 


Time (GMT)  Wavelength (Ang)  Step Number  Raw Counts  Counts/Second

 1302.43        2950.00           1222          61.00       244.55
 1302.49        2950.25           1226          58.00       231.48
 1302.53        2950.50           1229          55.00       218.40
 1302.56        2950.75           1232          50.00       196.60
 1302.59        2951.00           1236          48.00       187.88
 1302.62        2951.25           1239          47.00       183.52
 1302.65        2951.50           1242          51.00       200.96
 1302.68        2951.75           1246          59.00       235.83
 1302.71        2952.00           1249          60.00       240.19
 1302.74        2952.25           1252          57.00       227.12
 1302.77        2952.50           1256          63.00       253.27
 1302.81        2952.75           1259          49.00       192.24
 1302.84        2953.00           1262          60.00       240.19
 1302.87        2953.25           1266          61.00       244.55
 1302.90        2953.50           1269          63.00       253.27
 1302.93        2953.75           1272          52.00       205.32
 1302.96        2954.00           1276          47.00       183.52
 1302.99        2954.25           1279          57.00       227.12
 1303.02        2954.50           1282          47.00       183.52
 1303.05        2954.75           1286          53.00       209.68
 1303.08        2955.00           1289          56.00       222.76
 1303.12        2955.25           1292          56.00       222.76
 1303.15        2955.50           1296          46.00       179.16
 1303.18        2955.75           1299          55.00       218.40
 1303.21        2956.00           1302          56.00       222.76
 1303.24        2956.25           1306          57.00       227.12
 1303.27        2956.50           1309          54.00       214.04
 1303.30        2956.75           1312          51.00       200.96
 1303.33        2957.00           1316          46.00       179.16
 1303.36        2957.25           1319          52.00       205.32
 1303.39        2957.50           1322          54.00       214.04
 1303.42        2957.75           1326          51.00       200.96
 1303.45        2958.00           1329          58.00       231.48
 1303.49        2958.25           1332          52.00       205.32
 1303.52        2958.50           1336          56.00       222.76
 1303.55        2958.75           1339          52.00       205.32
 1303.58        2959.00           1342          57.00       227.12
 1303.61        2959.25           1346          64.00       257.63
 1303.64        2959.50           1349          75.00       305.58
 1303.67        2959.75           1352          79.00       323.02
 1303.70        2960.00           1356         116.00       484.31
 1303.73        2960.25           1359         154.00       649.97
 1303.77        2960.50           1362         198.00       841.78
 1303.80        2960.75           1366         253.00      1081.55
 1303.83        2961.00           1369         305.00      1308.25
 1303.86        2961.25           1372         318.00      1364.92
 1303.89        2961.50           1376         421.00      1813.96
 1303.92        2961.75           1379         550.00      2376.37
 1303.95        2962.00           1382        1018.00      4416.89
 1303.98        2962.25           1386        2710.00     11796.24
 1304.01        2962.50           1389        4309.00     18772.99
 1304.05        2962.75           1392        5890.00     25674.09
 1304.08        2963.00           1396        7895.00     34430.05
 1304.11        2963.25           1399        9475.00     41333.26
 1304.14        2963.50           1402       10973.00     47880.85
 1304.17        2963.75           1406       13288.00     58004.51
 1304.20        2964.00           1409       14838.00     64786.22
 1304.23        2964.25           1412       16454.00     71859.63
 1304.26        2964.50           1416       18678.00     81599.25
 1304.29        2964.75           1419       20478.00     89486.21
 1304.33        2965.00           1422       21938.00     95886.15
 1304.36        2965.25           1426       24131.00    105503.90
 1304.39        2965.50           1429       25817.00    112901.80
 1304.42        2965.75           1432       27196.00    118955.20
 1304.45        2966.00           1436       29532.00    129214.40
 1304.48        2966.25           1439       30779.00    134693.60
 1304.51        2966.50           1442       32199.00    140935.10
 1304.54        2966.75           1446       34253.00    149967.50
 1304.57        2967.00           1449       34666.00    151784.20
 1304.61        2967.25           1452       34854.00    152611.30
 1304.64        2967.50           1456       34800.00    152373.70
 1304.67        2967.75           1459       34897.00    152800.40
 1304.70        2968.00           1462       34746.00    152136.10
 1304.73        2968.25           1466       33873.00    148296.10
 1304.76        2968.50           1469       32590.00    142654.10
 1304.79        2968.75           1472       31132.00    136244.90
 1304.82        2969.00           1476       29277.00    128094.20
 1304.85        2969.25           1479       27594.00    120702.60
 1304.89        2969.50           1482       26112.00    114196.60
 1304.92        2969.75           1486       24054.00    105166.10
 1304.95        2970.00           1489       22276.00     97368.13
 1304.98        2970.25           1492       20555.00     89823.68
 1305.01        2970.50           1496       18441.00     80561.07
 1305.04        2970.75           1499       16772.00     73251.91
 1305.07        2971.00           1502       15155.00     66173.53
 1305.10        2971.25           1506       13052.00     56972.19
 1305.13        2971.50           1509       11451.00     49970.67
 1305.17        2971.75           1513        9347.00     40773.91
 1305.20        2972.00           1516        7823.00     34115.54
 1305.23        2972.25           1519        6384.00     27830.99
 1305.26        2972.50           1523        4168.00     18157.67
 1305.29        2972.75           1526        2539.00     11050.31
 1305.32        2973.00           1529        1191.00      5171.25
 1305.35        2973.25           1533         471.00      2031.95
 1305.38        2973.50           1536         341.00      1465.19
 1305.41        2973.75           1539         278.00      1190.54
 1305.44        2974.00           1543         231.00       985.64
 1305.48        2974.25           1546         171.00       724.08
 1305.51        2974.50           1549         130.00       545.34
 1305.54        2974.75           1553          91.00       375.33
 1305.57        2975.00           1556          65.00       261.99
 1305.60        2975.25           1559          58.00       231.48
 1305.63        2975.50           1563          48.00       187.88
 1305.66        2975.75           1566          49.00       192.24
 1305.69        2976.00           1569          59.00       235.83
 1305.72        2976.25           1573          52.00       205.32
 1305.76        2976.50           1576          58.00       231.48
 1305.79        2976.75           1579          52.00       205.32
 1305.82        2977.00           1583          54.00       214.04
 1305.85        2977.25           1586          52.00       205.32
 1305.88        2977.50           1590          54.00       214.04
 1305.91        2977.75           1593          51.00       200.96
 1305.94        2978.00           1596          45.00       174.80
 1305.97        2978.25           1600          52.00       205.32
 1306.00        2978.50           1603          46.00       179.16
 1306.03        2978.75           1606          47.00       183.52
 1306.06        2979.00           1610          55.00       218.40
 1306.10        2979.25           1613          53.00       209.68
 1306.13        2979.50           1616          52.00       205.32
 1306.16        2979.75           1620          45.00       174.80
 1306.19        2980.00           1623          54.00       214.04
 1306.22        2980.25           1626          58.00       231.48
 1306.25        2980.50           1630          65.00       261.99
 1306.28        2980.75           1633          53.00       209.68
 1306.31        2981.00           1637          49.00       192.24
 1306.34        2981.25           1640          49.00       192.24
 1306.37        2981.50           1643          53.00       209.68
 1306.41        2981.75           1647          47.00       183.52
 1306.44        2982.00           1650          52.00       205.32
 1306.47        2982.25           1653          51.00       200.96
 1306.50        2982.50           1657          57.00       227.12
 1306.53        2982.75           1660          55.00       218.40
 1306.56        2983.00           1663          54.00       214.04
 1306.59        2983.25           1667          46.00       179.16
 1306.62        2983.50           1670          46.00       179.16
 1306.65        2983.75           1673          49.00       192.24
 1306.68        2984.00           1677          56.00       222.76
HS scan finished at 21:46:54
end
