************************************************************
  HS Scan of (1) Internal mercury lamp
************************************************************
Integration time is 0.2294 seconds per sample
dh220617Manchester 53.47 2.23 3.126073pr1000
************************************************************
Dead Time -------------------------  3E-08 
Number of Cycles Used -------------  4 
Starting Wavelength (Angstroms) ---  2950 
Final Wavelength (Angstoms) -------  2984 
Wavelength Increment (Angstroms) --  .25 
Filter Wheel #1 Position ---------- (1) Ground quartz diffuser (ND=2.32)
Filter Wheel #2 Position ---------- (1) Neutral Density 0.494



************************************************************
HS scan start time = 01:35:13
Dark Count =  7.3 


Time (GMT)  Wavelength (Ang)  Step Number  Raw Counts  Counts/Second

   95.58        2950.00           1222          41.00       146.91
   95.64        2950.25           1226          42.00       151.26
   95.68        2950.50           1229          42.00       151.26
   95.71        2950.75           1232          37.00       129.47
   95.74        2951.00           1236          39.00       138.19
   95.77        2951.25           1239          43.00       155.62
   95.80        2951.50           1242          47.00       173.06
   95.83        2951.75           1246          40.00       142.55
   95.86        2952.00           1249          48.00       177.42
   95.89        2952.25           1252          36.00       125.11
   95.92        2952.50           1256          42.00       151.26
   95.95        2952.75           1259          45.00       164.34
   95.98        2953.00           1262          38.00       133.83
   96.01        2953.25           1266          51.00       190.50
   96.04        2953.50           1269          38.00       133.83
   96.07        2953.75           1272          38.00       133.83
   96.11        2954.00           1276          41.00       146.91
   96.14        2954.25           1279          48.00       177.42
   96.17        2954.50           1282          40.00       142.55
   96.20        2954.75           1286          49.00       181.78
   96.23        2955.00           1289          52.00       194.86
   96.26        2955.25           1292          42.00       151.26
   96.29        2955.50           1296          36.00       125.11
   96.32        2955.75           1299          43.00       155.62
   96.35        2956.00           1302          45.00       164.34
   96.38        2956.25           1306          42.00       151.26
   96.41        2956.50           1309          39.00       138.19
   96.44        2956.75           1312          43.00       155.62
   96.48        2957.00           1316          54.00       203.58
   96.51        2957.25           1319          49.00       181.78
   96.54        2957.50           1322          43.00       155.62
   96.57        2957.75           1326          40.00       142.55
   96.60        2958.00           1329          42.00       151.26
   96.63        2958.25           1332          44.00       159.98
   96.66        2958.50           1336          45.00       164.34
   96.69        2958.75           1339          44.00       159.98
   96.72        2959.00           1342          42.00       151.26
   96.75        2959.25           1346          58.00       221.01
   96.79        2959.50           1349          58.00       221.01
   96.82        2959.75           1352         101.00       408.46
   96.85        2960.00           1356         148.00       613.35
   96.88        2960.25           1359         190.00       796.44
   96.91        2960.50           1362         239.00      1010.06
   96.94        2960.75           1366         292.00      1241.11
   96.97        2961.00           1369         375.00      1602.95
   97.00        2961.25           1372         405.00      1733.74
   97.03        2961.50           1376         548.00      2357.18
   97.06        2961.75           1379         858.00      3708.78
   97.09        2962.00           1382        1768.00      7677.01
   97.12        2962.25           1386        4005.00     17435.88
   97.15        2962.50           1389        6075.00     26471.32
   97.18        2962.75           1392        8017.00     34952.51
   97.21        2963.00           1396       10724.00     46781.83
   97.25        2963.25           1399       12812.00     55911.93
   97.28        2963.50           1402       14711.00     64219.95
   97.31        2963.75           1406       17497.00     76416.05
   97.34        2964.00           1409       19315.00     84379.41
   97.37        2964.25           1412       21308.00     93113.72
   97.40        2964.50           1416       24010.00    104962.50
   97.43        2964.75           1419       25960.00    113518.90
   97.46        2965.00           1422       27887.00    121978.70
   97.49        2965.25           1426       30476.00    133351.50
   97.53        2965.50           1429       32539.00    142419.30
   97.56        2965.75           1432       34583.00    151408.50
   97.59        2966.00           1436       37273.00    163246.10
   97.62        2966.25           1439       39408.00    172647.40
   97.65        2966.50           1442       41017.00    179735.90
   97.68        2966.75           1446       42862.00    187868.00
   97.71        2967.00           1449       43395.00    190218.00
   97.74        2967.25           1452       43460.00    190504.60
   97.77        2967.50           1456       43275.00    189688.90
   97.80        2967.75           1459       43205.00    189380.20
   97.84        2968.00           1462       43140.00    189093.60
   97.87        2968.25           1466       41675.00    182635.70
   97.90        2968.50           1469       39967.00    175109.70
   97.93        2968.75           1472       38124.00    166992.80
   97.96        2969.00           1476       35566.00    155733.30
   97.99        2969.25           1479       33391.00    146165.70
   98.02        2969.50           1482       31392.00    137377.10
   98.05        2969.75           1486       28484.00    124600.50
   98.08        2970.00           1489       26576.00    116222.70
   98.12        2970.25           1492       24747.00    108195.90
   98.15        2970.50           1496       22041.00     96327.22
   98.18        2970.75           1499       20120.00     87906.77
   98.21        2971.00           1502       18145.00     79254.03
   98.24        2971.25           1506       15640.00     68285.78
   98.27        2971.50           1509       13435.00     58637.06
   98.30        2971.75           1513       10908.00     47586.20
   98.33        2972.00           1516        8785.00     38307.74
   98.36        2972.25           1519        6744.00     29392.52
   98.40        2972.50           1523        4112.00     17902.82
   98.43        2972.75           1526        2267.00      9853.39
   98.46        2973.00           1529         978.00      4232.01
   98.49        2973.25           1533         466.00      1999.68
   98.52        2973.50           1536         347.00      1480.89
   98.55        2973.75           1539         293.00      1245.47
   98.58        2974.00           1543         233.00       983.90
   98.61        2974.25           1546         142.00       587.19
   98.64        2974.50           1549         106.00       430.26
   98.67        2974.75           1553          74.00       290.76
   98.71        2975.00           1556          62.00       238.45
   98.74        2975.25           1559          47.00       173.06
   98.77        2975.50           1563          45.00       164.34
   98.80        2975.75           1566          48.00       177.42
   98.83        2976.00           1569          52.00       194.86
   98.86        2976.25           1573          39.00       138.19
   98.89        2976.50           1576          43.00       155.62
   98.92        2976.75           1579          48.00       177.42
   98.95        2977.00           1583          55.00       207.94
   98.98        2977.25           1586          45.00       164.34
   99.02        2977.50           1590          44.00       159.98
   99.05        2977.75           1593          45.00       164.34
   99.08        2978.00           1596          60.00       229.73
   99.11        2978.25           1600          43.00       155.62
   99.14        2978.50           1603          44.00       159.98
   99.17        2978.75           1606          41.00       146.91
   99.20        2979.00           1610          40.00       142.55
   99.23        2979.25           1613          42.00       151.26
   99.26        2979.50           1616          44.00       159.98
   99.29        2979.75           1620          41.00       146.91
   99.32        2980.00           1623          49.00       181.78
   99.36        2980.25           1626          38.00       133.83
   99.39        2980.50           1630          43.00       155.62
   99.42        2980.75           1633          40.00       142.55
   99.45        2981.00           1637          40.00       142.55
   99.48        2981.25           1640          48.00       177.42
   99.51        2981.50           1643          37.00       129.47
   99.54        2981.75           1647          43.00       155.62
   99.57        2982.00           1650          38.00       133.83
   99.60        2982.25           1653          40.00       142.55
   99.64        2982.50           1657          45.00       164.34
   99.67        2982.75           1660          46.00       168.70
   99.70        2983.00           1663          46.00       168.70
   99.73        2983.25           1667          47.00       173.06
   99.76        2983.50           1670          48.00       177.42
   99.79        2983.75           1673          47.00       173.06
   99.82        2984.00           1677          39.00       138.19
HS scan finished at 01:40:02
end
************************************************************
  HS Scan of (1) Internal mercury lamp
************************************************************
Integration time is 0.2294 seconds per sample
dh220617Manchester 53.47 2.23 2.857833pr1000
************************************************************
Dead Time -------------------------  3E-08 
Number of Cycles Used -------------  4 
Starting Wavelength (Angstroms) ---  2950 
Final Wavelength (Angstoms) -------  2984 
Wavelength Increment (Angstroms) --  .25 
Filter Wheel #1 Position ---------- (1) Ground quartz diffuser (ND=2.32)
Filter Wheel #2 Position ---------- (1) Neutral Density 0.494



************************************************************
HS scan start time = 21:42:02
Dark Count =  6.4 


Time (GMT)  Wavelength (Ang)  Step Number  Raw Counts  Counts/Second

 1302.41        2950.00           1222          37.00       133.39
 1302.47        2950.25           1226          40.00       146.47
 1302.50        2950.50           1229          45.00       168.27
 1302.53        2950.75           1232          44.00       163.91
 1302.57        2951.00           1236          40.00       146.47
 1302.60        2951.25           1239          42.00       155.19
 1302.63        2951.50           1242          49.00       185.70
 1302.66        2951.75           1246          41.00       150.83
 1302.69        2952.00           1249          44.00       163.91
 1302.72        2952.25           1252          33.00       115.96
 1302.75        2952.50           1256          49.00       185.70
 1302.78        2952.75           1259          43.00       159.55
 1302.81        2953.00           1262          39.00       142.11
 1302.84        2953.25           1266          41.00       150.83
 1302.87        2953.50           1269          44.00       163.91
 1302.90        2953.75           1272          46.00       172.63
 1302.93        2954.00           1276          45.00       168.27
 1302.96        2954.25           1279          47.00       176.98
 1303.00        2954.50           1282          43.00       159.55
 1303.03        2954.75           1286          43.00       159.55
 1303.06        2955.00           1289          43.00       159.55
 1303.09        2955.25           1292          52.00       198.78
 1303.12        2955.50           1296          49.00       185.70
 1303.15        2955.75           1299          45.00       168.27
 1303.18        2956.00           1302          45.00       168.27
 1303.21        2956.25           1306          41.00       150.83
 1303.24        2956.50           1309          42.00       155.19
 1303.27        2956.75           1312          42.00       155.19
 1303.30        2957.00           1316          42.00       155.19
 1303.33        2957.25           1319          46.00       172.63
 1303.36        2957.50           1322          45.00       168.27
 1303.39        2957.75           1326          43.00       159.55
 1303.42        2958.00           1329          44.00       163.91
 1303.45        2958.25           1332          45.00       168.27
 1303.48        2958.50           1336          45.00       168.27
 1303.52        2958.75           1339          48.00       181.34
 1303.55        2959.00           1342          44.00       163.91
 1303.58        2959.25           1346          52.00       198.78
 1303.61        2959.50           1349          63.00       246.73
 1303.64        2959.75           1352          73.00       290.33
 1303.67        2960.00           1356         131.00       543.16
 1303.70        2960.25           1359         154.00       643.43
 1303.73        2960.50           1362         193.00       813.45
 1303.76        2960.75           1366         266.00      1131.69
 1303.79        2961.00           1369         308.00      1314.79
 1303.83        2961.25           1372         343.00      1467.37
 1303.86        2961.50           1376         436.00      1872.82
 1303.89        2961.75           1379         619.00      2670.66
 1303.92        2962.00           1382        1222.00      5299.88
 1303.95        2962.25           1386        2882.00     12540.03
 1303.98        2962.50           1389        4414.00     19224.69
 1304.01        2962.75           1392        6164.00     26863.84
 1304.04        2963.00           1396        8342.00     36376.20
 1304.07        2963.25           1399       10001.00     43625.50
 1304.11        2963.50           1402       11795.00     51468.25
 1304.14        2963.75           1406       14069.00     61414.71
 1304.17        2964.00           1409       15855.00     69230.83
 1304.20        2964.25           1412       17855.00     77987.83
 1304.23        2964.50           1416       20192.00     88226.22
 1304.26        2964.75           1419       21961.00     95980.41
 1304.29        2965.00           1422       23822.00    104141.80
 1304.32        2965.25           1426       26176.00    114470.90
 1304.35        2965.50           1429       27882.00    121960.70
 1304.38        2965.75           1432       29510.00    129111.20
 1304.42        2966.00           1436       31758.00    138989.90
 1304.45        2966.25           1439       33234.00    145479.20
 1304.48        2966.50           1442       34868.00    152666.20
 1304.51        2966.75           1446       36503.00    159860.70
 1304.54        2967.00           1449       37100.00    162488.50
 1304.57        2967.25           1452       37369.00    163672.70
 1304.60        2967.50           1456       37217.00    163003.50
 1304.63        2967.75           1459       37153.00    162721.80
 1304.66        2968.00           1462       37231.00    163065.20
 1304.69        2968.25           1466       36355.00    159209.40
 1304.73        2968.50           1469       35038.00    153414.10
 1304.76        2968.75           1472       33472.00    146525.90
 1304.79        2969.00           1476       31449.00    137631.60
 1304.82        2969.25           1479       29515.00    129133.10
 1304.85        2969.50           1482       27698.00    121152.70
 1304.88        2969.75           1486       25471.00    111376.80
 1304.91        2970.00           1489       23789.00    103997.00
 1304.94        2970.25           1492       22147.00     96795.94
 1304.97        2970.50           1496       19833.00     86653.04
 1305.00        2970.75           1499       18139.00     79231.71
 1305.03        2971.00           1502       16464.00     71896.85
 1305.07        2971.25           1506       14209.00     62027.26
 1305.10        2971.50           1509       12590.00     54944.90
 1305.13        2971.75           1513       10389.00     45321.39
 1305.16        2972.00           1516        8581.00     37420.36
 1305.19        2972.25           1519        6992.00     30479.47
 1305.22        2972.50           1523        4715.00     20538.37
 1305.25        2972.75           1526        3149.00     13704.85
 1305.28        2973.00           1529        1645.00      7144.51
 1305.31        2973.25           1533         543.00      2339.31
 1305.34        2973.50           1536         347.00      1484.81
 1305.37        2973.75           1539         263.00      1118.61
 1305.41        2974.00           1543         217.00       918.07
 1305.44        2974.25           1546         154.00       643.43
 1305.47        2974.50           1549         122.00       503.93
 1305.50        2974.75           1553          72.00       285.97
 1305.53        2975.00           1556          54.00       207.50
 1305.56        2975.25           1559          46.00       172.63
 1305.59        2975.50           1563          55.00       211.86
 1305.62        2975.75           1566          49.00       185.70
 1305.65        2976.00           1569          44.00       163.91
 1305.68        2976.25           1573          38.00       137.75
 1305.71        2976.50           1576          50.00       190.06
 1305.75        2976.75           1579          46.00       172.63
 1305.78        2977.00           1583          49.00       185.70
 1305.81        2977.25           1586          47.00       176.98
 1305.84        2977.50           1590          44.00       163.91
 1305.87        2977.75           1593          51.00       194.42
 1305.90        2978.00           1596          53.00       203.14
 1305.93        2978.25           1600          44.00       163.91
 1305.96        2978.50           1603          52.00       198.78
 1305.99        2978.75           1606          43.00       159.55
 1306.02        2979.00           1610          47.00       176.98
 1306.05        2979.25           1613          41.00       150.83
 1306.08        2979.50           1616          49.00       185.70
 1306.11        2979.75           1620          44.00       163.91
 1306.15        2980.00           1623          50.00       190.06
 1306.18        2980.25           1626          44.00       163.91
 1306.21        2980.50           1630          44.00       163.91
 1306.24        2980.75           1633          46.00       172.63
 1306.27        2981.00           1637          47.00       176.98
 1306.30        2981.25           1640          50.00       190.06
 1306.33        2981.50           1643          43.00       159.55
 1306.36        2981.75           1647          41.00       150.83
 1306.39        2982.00           1650          45.00       168.27
 1306.42        2982.25           1653          47.00       176.98
 1306.45        2982.50           1657          43.00       159.55
 1306.48        2982.75           1660          35.00       124.67
 1306.51        2983.00           1663          51.00       194.42
 1306.55        2983.25           1667          44.00       163.91
 1306.58        2983.50           1670          43.00       159.55
 1306.61        2983.75           1673          42.00       155.19
 1306.64        2984.00           1677          52.00       198.78
HS scan finished at 21:46:51
end
