************************************************************
  HS Scan of (1) Internal mercury lamp
************************************************************
Integration time is 0.2294 seconds per sample
dh240619El Arenosillo 37.1 6.73 3.018777pr1000
************************************************************
Dead Time -------------------------  3E-08 
Number of Cycles Used -------------  4 
Starting Wavelength (Angstroms) ---  2950 
Final Wavelength (Angstoms) -------  2984 
Wavelength Increment (Angstroms) --  .25 
Filter Wheel #1 Position ---------- (1) Ground quartz diffuser (ND=2.32)
Filter Wheel #2 Position ---------- (1) Neutral Density 0.494



************************************************************
HS scan start time = 02:00:20
Dark Count =  6.6 


Time (GMT)  Wavelength (Ang)  Step Number  Raw Counts  Counts/Second

  120.71        2950.00           1222          55.00       210.99
  120.78        2950.25           1226          59.00       228.42
  120.81        2950.50           1229          56.00       215.35
  120.84        2950.75           1232          55.00       210.99
  120.87        2951.00           1236          52.00       197.91
  120.90        2951.25           1239          56.00       215.35
  120.93        2951.50           1242          63.00       245.86
  120.96        2951.75           1246          54.00       206.63
  120.99        2952.00           1249          56.00       215.35
  121.02        2952.25           1252          60.00       232.78
  121.05        2952.50           1256          56.00       215.35
  121.08        2952.75           1259          57.00       219.71
  121.11        2953.00           1262          55.00       210.99
  121.15        2953.25           1266          51.00       193.55
  121.18        2953.50           1269          54.00       206.63
  121.21        2953.75           1272          57.00       219.71
  121.24        2954.00           1276          50.00       189.19
  121.27        2954.25           1279          56.00       215.35
  121.30        2954.50           1282          59.00       228.42
  121.33        2954.75           1286          51.00       193.55
  121.36        2955.00           1289          61.00       237.14
  121.39        2955.25           1292          50.00       189.19
  121.42        2955.50           1296          57.00       219.71
  121.45        2955.75           1299          57.00       219.71
  121.48        2956.00           1302          57.00       219.71
  121.51        2956.25           1306          69.00       272.02
  121.55        2956.50           1309          61.00       237.14
  121.58        2956.75           1312          64.00       250.22
  121.61        2957.00           1316          56.00       215.35
  121.64        2957.25           1319          54.00       206.63
  121.67        2957.50           1322          65.00       254.58
  121.70        2957.75           1326          56.00       215.35
  121.73        2958.00           1329          61.00       237.14
  121.76        2958.25           1332          65.00       254.58
  121.79        2958.50           1336          56.00       215.35
  121.82        2958.75           1339          64.00       250.22
  121.85        2959.00           1342          64.00       250.22
  121.89        2959.25           1346          56.00       215.35
  121.92        2959.50           1349          62.00       241.50
  121.95        2959.75           1352          73.00       289.45
  121.98        2960.00           1356          93.00       376.64
  122.01        2960.25           1359         125.00       516.14
  122.04        2960.50           1362         154.00       642.56
  122.07        2960.75           1366         208.00       877.97
  122.10        2961.00           1369         232.00       982.59
  122.13        2961.25           1372         282.00      1200.57
  122.16        2961.50           1376         360.00      1540.61
  122.19        2961.75           1379         536.00      2307.92
  122.22        2962.00           1382        1237.00      5364.42
  122.26        2962.25           1386        2806.00     12207.61
  122.29        2962.50           1389        4069.00     17718.22
  122.32        2962.75           1392        5414.00     23588.61
  122.35        2963.00           1396        7142.00     31133.69
  122.38        2963.25           1399        8477.00     36965.13
  122.41        2963.50           1402        9921.00     43274.99
  122.44        2963.75           1406       11852.00     51716.62
  122.47        2964.00           1409       13327.00     58167.68
  122.50        2964.25           1412       14718.00     64253.65
  122.53        2964.50           1416       16547.00     72259.35
  122.57        2964.75           1419       17957.00     78433.70
  122.60        2965.00           1422       19196.00     83861.12
  122.63        2965.25           1426       21100.00     92205.01
  122.66        2965.50           1429       22387.00     97847.39
  122.69        2965.75           1432       24058.00    105176.20
  122.72        2966.00           1436       25772.00    112696.90
  122.75        2966.25           1439       27046.00    118289.10
  122.78        2966.50           1442       28161.00    123185.00
  122.81        2966.75           1446       29337.00    128350.30
  122.85        2967.00           1449       29602.00    129514.50
  122.88        2967.25           1452       29667.00    129800.00
  122.91        2967.50           1456       29599.00    129501.30
  122.94        2967.75           1459       29522.00    129163.00
  122.97        2968.00           1462       29406.00    128653.40
  123.00        2968.25           1466       28204.00    123373.90
  123.03        2968.50           1469       27154.00    118763.30
  123.06        2968.75           1472       25584.00    111871.80
  123.09        2969.00           1476       23949.00    104698.00
  123.13        2969.25           1479       22445.00     98101.72
  123.16        2969.50           1482       20931.00     91464.22
  123.19        2969.75           1486       19355.00     84557.74
  123.22        2970.00           1489       17987.00     78565.08
  123.25        2970.25           1492       16729.00     73056.20
  123.28        2970.50           1496       14875.00     64940.70
  123.31        2970.75           1499       13549.00     59138.83
  123.34        2971.00           1502       12174.00     53124.71
  123.37        2971.25           1506       10274.00     44817.85
  123.41        2971.50           1509        8965.00     39097.27
  123.44        2971.75           1513        7322.00     31919.83
  123.47        2972.00           1516        5860.00     25535.68
  123.50        2972.25           1519        4445.00     19359.10
  123.53        2972.50           1523        2721.00     11836.81
  123.56        2972.75           1526        1454.00      6310.70
  123.59        2973.00           1529         662.00      2857.26
  123.62        2973.25           1533         372.00      1592.93
  123.65        2973.50           1536         307.00      1309.55
  123.68        2973.75           1539         253.00      1074.14
  123.71        2974.00           1543         217.00       917.20
  123.74        2974.25           1546         177.00       742.82
  123.77        2974.50           1549         142.00       590.25
  123.81        2974.75           1553          86.00       346.12
  123.84        2975.00           1556          75.00       298.17
  123.87        2975.25           1559          55.00       210.99
  123.90        2975.50           1563          53.00       202.27
  123.93        2975.75           1566          63.00       245.86
  123.96        2976.00           1569          56.00       215.35
  123.99        2976.25           1573          57.00       219.71
  124.02        2976.50           1576          49.00       184.83
  124.05        2976.75           1579          52.00       197.91
  124.08        2977.00           1583          53.00       202.27
  124.11        2977.25           1586          47.00       176.11
  124.14        2977.50           1590          55.00       210.99
  124.17        2977.75           1593          52.00       197.91
  124.20        2978.00           1596          42.00       154.32
  124.24        2978.25           1600          61.00       237.14
  124.27        2978.50           1603          51.00       193.55
  124.30        2978.75           1606          51.00       193.55
  124.33        2979.00           1610          52.00       197.91
  124.36        2979.25           1613          60.00       232.78
  124.39        2979.50           1616          46.00       171.75
  124.42        2979.75           1620          52.00       197.91
  124.45        2980.00           1623          46.00       171.75
  124.48        2980.25           1626          53.00       202.27
  124.51        2980.50           1630          46.00       171.75
  124.54        2980.75           1633          48.00       180.47
  124.57        2981.00           1637          47.00       176.11
  124.60        2981.25           1640          56.00       215.35
  124.64        2981.50           1643          44.00       163.03
  124.67        2981.75           1647          41.00       149.96
  124.70        2982.00           1650          44.00       163.03
  124.73        2982.25           1653          52.00       197.91
  124.76        2982.50           1657          49.00       184.83
  124.79        2982.75           1660          46.00       171.75
  124.82        2983.00           1663          47.00       176.11
  124.85        2983.25           1667          51.00       193.55
  124.88        2983.50           1670          50.00       189.19
  124.91        2983.75           1673          49.00       184.83
  124.94        2984.00           1677          56.00       215.35
HS scan finished at 02:05:10
end
