************************************************************
  HS Scan of (1) Internal mercury lamp
************************************************************
Integration time is 0.2294 seconds per sample
dh210618Manchester 53.47 2.23 2.804185pr1000
************************************************************
Dead Time -------------------------  3E-08 
Number of Cycles Used -------------  4 
Starting Wavelength (Angstroms) ---  2950 
Final Wavelength (Angstoms) -------  2984 
Wavelength Increment (Angstroms) --  .25 
Filter Wheel #1 Position ---------- (1) Ground quartz diffuser (ND=2.32)
Filter Wheel #2 Position ---------- (1) Neutral Density 0.494



************************************************************
HS scan start time = 02:16:25
Dark Count =  5.7 


Time (GMT)  Wavelength (Ang)  Step Number  Raw Counts  Counts/Second

  136.79        2950.00           1222          52.00       201.83
  136.86        2950.25           1226          50.00       193.11
  136.89        2950.50           1229          48.00       184.40
  136.92        2950.75           1232          61.00       241.07
  136.95        2951.00           1236          54.00       210.55
  136.98        2951.25           1239          60.00       236.71
  137.01        2951.50           1242          50.00       193.11
  137.04        2951.75           1246          63.00       249.78
  137.08        2952.00           1249          52.00       201.83
  137.11        2952.25           1252          52.00       201.83
  137.14        2952.50           1256          60.00       236.71
  137.17        2952.75           1259          53.00       206.19
  137.20        2953.00           1262          68.00       271.58
  137.23        2953.25           1266          52.00       201.83
  137.26        2953.50           1269          51.00       197.47
  137.29        2953.75           1272          50.00       193.11
  137.32        2954.00           1276          60.00       236.71
  137.35        2954.25           1279          56.00       219.27
  137.38        2954.50           1282          53.00       206.19
  137.41        2954.75           1286          64.00       254.14
  137.45        2955.00           1289          56.00       219.27
  137.48        2955.25           1292          48.00       184.40
  137.51        2955.50           1296          55.00       214.91
  137.54        2955.75           1299          61.00       241.07
  137.57        2956.00           1302          55.00       214.91
  137.60        2956.25           1306          55.00       214.91
  137.63        2956.50           1309          62.00       245.42
  137.66        2956.75           1312          53.00       206.19
  137.69        2957.00           1316          55.00       214.91
  137.72        2957.25           1319          60.00       236.71
  137.75        2957.50           1322          54.00       210.55
  137.79        2957.75           1326          61.00       241.07
  137.82        2958.00           1329          57.00       223.63
  137.85        2958.25           1332          62.00       245.42
  137.88        2958.50           1336          52.00       201.83
  137.91        2958.75           1339          48.00       184.40
  137.94        2959.00           1342          60.00       236.71
  137.97        2959.25           1346          51.00       197.47
  138.00        2959.50           1349          60.00       236.71
  138.03        2959.75           1352          78.00       315.17
  138.06        2960.00           1356         103.00       424.16
  138.09        2960.25           1359         131.00       546.22
  138.13        2960.50           1362         158.00       663.92
  138.16        2960.75           1366         213.00       903.69
  138.19        2961.00           1369         261.00      1112.94
  138.22        2961.25           1372         279.00      1191.41
  138.25        2961.50           1376         443.00      1906.39
  138.28        2961.75           1379         891.00      3859.64
  138.31        2962.00           1382        1866.00      8111.39
  138.34        2962.25           1386        3541.00     15418.20
  138.37        2962.50           1389        4971.00     21658.79
  138.41        2962.75           1392        6366.00     27748.90
  138.44        2963.00           1396        8096.00     35304.59
  138.47        2963.25           1399        9346.00     40766.04
  138.50        2963.50           1402       10764.00     46963.68
  138.53        2963.75           1406       12770.00     55735.23
  138.56        2964.00           1409       14153.00     61785.30
  138.59        2964.25           1412       15612.00     68170.23
  138.62        2964.50           1416       17560.00     76698.96
  138.65        2964.75           1419       19069.00     83308.66
  138.68        2965.00           1422       20465.00     89425.72
  138.72        2965.25           1426       22438.00     98074.99
  138.75        2965.50           1429       23606.00    103197.40
  138.78        2965.75           1432       25120.00    109839.60
  138.81        2966.00           1436       26967.00    117946.30
  138.84        2966.25           1439       28226.00    123474.40
  138.87        2966.50           1442       29440.00    128806.70
  138.90        2966.75           1446       30384.00    132954.30
  138.93        2967.00           1449       30503.00    133477.20
  138.97        2967.25           1452       30482.00    133384.90
  139.00        2967.50           1456       30522.00    133560.70
  139.03        2967.75           1459       30447.00    133231.10
  139.06        2968.00           1462       30053.00    131499.90
  139.09        2968.25           1466       28678.00    125459.60
  139.12        2968.50           1469       27599.00    120721.10
  139.15        2968.75           1472       26331.00    115154.30
  139.18        2969.00           1476       24480.00    107031.50
  139.21        2969.25           1479       23156.00    101223.70
  139.24        2969.50           1482       21623.00     94501.63
  139.28        2969.75           1486       19924.00     87054.88
  139.31        2970.00           1489       18503.00     80829.16
  139.34        2970.25           1492       17050.00     74465.66
  139.37        2970.50           1496       15108.00     65964.33
  139.40        2970.75           1499       13666.00     59654.62
  139.43        2971.00           1502       12280.00     53592.20
  139.46        2971.25           1506       10104.00     44078.74
  139.49        2971.50           1509        8889.00     38769.13
  139.52        2971.75           1513        7128.00     31076.47
  139.56        2972.00           1516        5619.00     24487.47
  139.59        2972.25           1519        4264.00     18573.12
  139.62        2972.50           1523        2504.00     10894.15
  139.65        2972.75           1526        1290.00      5599.46
  139.68        2973.00           1529         597.00      2577.79
  139.71        2973.25           1533         342.00      1466.06
  139.74        2973.50           1536         286.00      1221.93
  139.77        2973.75           1539         250.00      1064.99
  139.80        2974.00           1543         203.00       860.09
  139.83        2974.25           1546         156.00       655.20
  139.86        2974.50           1549         126.00       524.42
  139.89        2974.75           1553          86.00       350.05
  139.93        2975.00           1556          72.00       289.02
  139.96        2975.25           1559          58.00       227.99
  139.99        2975.50           1563          50.00       193.11
  140.02        2975.75           1566          61.00       241.07
  140.05        2976.00           1569          57.00       223.63
  140.08        2976.25           1573          51.00       197.47
  140.11        2976.50           1576          53.00       206.19
  140.14        2976.75           1579          51.00       197.47
  140.17        2977.00           1583          55.00       214.91
  140.20        2977.25           1586          77.00       310.81
  140.23        2977.50           1590          53.00       206.19
  140.26        2977.75           1593          50.00       193.11
  140.29        2978.00           1596          51.00       197.47
  140.32        2978.25           1600          52.00       201.83
  140.36        2978.50           1603          57.00       223.63
  140.39        2978.75           1606          47.00       180.04
  140.42        2979.00           1610          66.00       262.86
  140.45        2979.25           1613          51.00       197.47
  140.48        2979.50           1616          53.00       206.19
  140.51        2979.75           1620          49.00       188.75
  140.54        2980.00           1623          54.00       210.55
  140.57        2980.25           1626          58.00       227.99
  140.60        2980.50           1630          54.00       210.55
  140.63        2980.75           1633          52.00       201.83
  140.66        2981.00           1637          50.00       193.11
  140.69        2981.25           1640          47.00       180.04
  140.73        2981.50           1643          49.00       188.75
  140.76        2981.75           1647          53.00       206.19
  140.79        2982.00           1650          58.00       227.99
  140.82        2982.25           1653          53.00       206.19
  140.85        2982.50           1657          50.00       193.11
  140.88        2982.75           1660          53.00       206.19
  140.91        2983.00           1663          51.00       197.47
  140.94        2983.25           1667          51.00       197.47
  140.97        2983.50           1670          40.00       149.52
  141.00        2983.75           1673          43.00       162.60
  141.03        2984.00           1677          44.00       166.96
HS scan finished at 02:21:15
end
************************************************************
  HS Scan of (1) Internal mercury lamp
************************************************************
Integration time is 0.2294 seconds per sample
dh210618Manchester 53.47 2.23 2.804185pr1000
************************************************************
Dead Time -------------------------  3E-08 
Number of Cycles Used -------------  4 
Starting Wavelength (Angstroms) ---  2950 
Final Wavelength (Angstoms) -------  2984 
Wavelength Increment (Angstroms) --  .25 
Filter Wheel #1 Position ---------- (1) Ground quartz diffuser (ND=2.32)
Filter Wheel #2 Position ---------- (1) Neutral Density 0.494



************************************************************
HS scan start time = 21:42:01
Dark Count =  6.5 


Time (GMT)  Wavelength (Ang)  Step Number  Raw Counts  Counts/Second

 1302.39        2950.00           1222          59.00       228.86
 1302.46        2950.25           1226          54.00       207.06
 1302.49        2950.50           1229          57.00       220.14
 1302.52        2950.75           1232          64.00       250.66
 1302.55        2951.00           1236          54.00       207.06
 1302.58        2951.25           1239          52.00       198.34
 1302.61        2951.50           1242          58.00       224.50
 1302.64        2951.75           1246          56.00       215.78
 1302.67        2952.00           1249          54.00       207.06
 1302.70        2952.25           1252          58.00       224.50
 1302.73        2952.50           1256          64.00       250.66
 1302.76        2952.75           1259          53.00       202.70
 1302.79        2953.00           1262          54.00       207.06
 1302.82        2953.25           1266          56.00       215.78
 1302.86        2953.50           1269          54.00       207.06
 1302.89        2953.75           1272          60.00       233.22
 1302.92        2954.00           1276          52.00       198.34
 1302.95        2954.25           1279          52.00       198.34
 1302.98        2954.50           1282          51.00       193.99
 1303.01        2954.75           1286          56.00       215.78
 1303.04        2955.00           1289          58.00       224.50
 1303.07        2955.25           1292          50.00       189.63
 1303.10        2955.50           1296          52.00       198.34
 1303.13        2955.75           1299          56.00       215.78
 1303.16        2956.00           1302          52.00       198.34
 1303.19        2956.25           1306          56.00       215.78
 1303.22        2956.50           1309          53.00       202.70
 1303.25        2956.75           1312          49.00       185.27
 1303.28        2957.00           1316          50.00       189.63
 1303.31        2957.25           1319          54.00       207.06
 1303.34        2957.50           1322          61.00       237.58
 1303.38        2957.75           1326          51.00       193.99
 1303.41        2958.00           1329          57.00       220.14
 1303.44        2958.25           1332          54.00       207.06
 1303.47        2958.50           1336          56.00       215.78
 1303.50        2958.75           1339          56.00       215.78
 1303.53        2959.00           1342          51.00       193.99
 1303.56        2959.25           1346          59.00       228.86
 1303.59        2959.50           1349          65.00       255.02
 1303.62        2959.75           1352          77.00       307.33
 1303.65        2960.00           1356         104.00       425.03
 1303.68        2960.25           1359         121.00       499.14
 1303.71        2960.50           1362         163.00       682.23
 1303.74        2960.75           1366         196.00       826.09
 1303.77        2961.00           1369         235.00       996.11
 1303.80        2961.25           1372         270.00      1148.69
 1303.83        2961.50           1376         361.00      1545.41
 1303.86        2961.75           1379         597.00      2574.31
 1303.90        2962.00           1382        1389.00      6027.68
 1303.93        2962.25           1386        3022.00     13150.35
 1303.96        2962.50           1389        4454.00     19398.82
 1303.99        2962.75           1392        5746.00     25038.42
 1304.02        2963.00           1396        7400.00     32260.94
 1304.05        2963.25           1399        8795.00     38354.92
 1304.08        2963.50           1402       10210.00     44538.55
 1304.11        2963.75           1406       11897.00     51913.83
 1304.14        2964.00           1409       13453.00     58719.31
 1304.17        2964.25           1412       14881.00     64967.40
 1304.20        2964.50           1416       16681.00     72846.47
 1304.23        2964.75           1419       18025.00     78731.96
 1304.26        2965.00           1422       19572.00     85508.97
 1304.30        2965.25           1426       21570.00     94265.78
 1304.33        2965.50           1429       23135.00    101128.10
 1304.36        2965.75           1432       24384.00    106606.80
 1304.39        2966.00           1436       26254.00    114812.80
 1304.42        2966.25           1439       27672.00    121038.10
 1304.45        2966.50           1442       28788.00    125939.20
 1304.48        2966.75           1446       30170.00    132010.40
 1304.51        2967.00           1449       30502.00    133469.30
 1304.54        2967.25           1452       30746.00    134541.50
 1304.57        2967.50           1456       30562.00    133732.90
 1304.60        2967.75           1459       30718.00    134418.50
 1304.63        2968.00           1462       30561.00    133728.50
 1304.66        2968.25           1466       29651.00    129730.20
 1304.70        2968.50           1469       28274.00    123681.70
 1304.73        2968.75           1472       27052.00    118315.90
 1304.76        2969.00           1476       25108.00    109783.40
 1304.79        2969.25           1479       23915.00    104549.30
 1304.82        2969.50           1482       22539.00     98514.36
 1304.85        2969.75           1486       20654.00     90250.56
 1304.88        2970.00           1489       19335.00     84470.55
 1304.91        2970.25           1492       17959.00     78442.88
 1304.94        2970.50           1496       16099.00     70298.50
 1304.97        2970.75           1499       14687.00     64118.42
 1305.00        2971.00           1502       13254.00     57848.79
 1305.03        2971.25           1506       11291.00     49264.13
 1305.06        2971.50           1509        9874.00     43070.00
 1305.10        2971.75           1513        7756.00     33815.89
 1305.13        2972.00           1516        6357.00     27706.11
 1305.16        2972.25           1519        5077.00     22117.99
 1305.19        2972.50           1523        3207.00     13957.46
 1305.22        2972.75           1526        2019.00      8775.20
 1305.25        2973.00           1529         926.00      4008.76
 1305.28        2973.25           1533         419.00      1798.27
 1305.31        2973.50           1536         305.00      1301.27
 1305.34        2973.75           1539         258.00      1096.37
 1305.37        2974.00           1543         220.00       930.71
 1305.40        2974.25           1546         171.00       717.10
 1305.43        2974.50           1549         134.00       555.81
 1305.46        2974.75           1553          91.00       368.36
 1305.49        2975.00           1556          73.00       289.89
 1305.53        2975.25           1559          60.00       233.22
 1305.56        2975.50           1563          55.00       211.42
 1305.59        2975.75           1566          53.00       202.70
 1305.62        2976.00           1569          47.00       176.55
 1305.65        2976.25           1573          51.00       193.99
 1305.68        2976.50           1576          54.00       207.06
 1305.71        2976.75           1579          53.00       202.70
 1305.74        2977.00           1583          55.00       211.42
 1305.77        2977.25           1586          59.00       228.86
 1305.80        2977.50           1590          55.00       211.42
 1305.83        2977.75           1593          56.00       215.78
 1305.86        2978.00           1596          54.00       207.06
 1305.89        2978.25           1600          58.00       224.50
 1305.92        2978.50           1603          47.00       176.55
 1305.95        2978.75           1606          45.00       167.83
 1305.98        2979.00           1610          54.00       207.06
 1306.02        2979.25           1613          61.00       237.58
 1306.05        2979.50           1616          51.00       193.99
 1306.08        2979.75           1620          48.00       180.91
 1306.11        2980.00           1623          52.00       198.34
 1306.14        2980.25           1626          55.00       211.42
 1306.17        2980.50           1630          59.00       228.86
 1306.20        2980.75           1633          51.00       193.99
 1306.23        2981.00           1637          52.00       198.34
 1306.26        2981.25           1640          52.00       198.34
 1306.29        2981.50           1643          54.00       207.06
 1306.33        2981.75           1647          54.00       207.06
 1306.36        2982.00           1650          55.00       211.42
 1306.39        2982.25           1653          50.00       189.63
 1306.42        2982.50           1657          53.00       202.70
 1306.45        2982.75           1660          51.00       193.99
 1306.48        2983.00           1663          54.00       207.06
 1306.51        2983.25           1667          50.00       189.63
 1306.54        2983.50           1670          52.00       198.34
 1306.57        2983.75           1673          48.00       180.91
 1306.60        2984.00           1677          54.00       207.06
HS scan finished at 21:46:49
end
