************************************************************
  HS Scan of (1) Internal mercury lamp
************************************************************
Integration time is 0.2294 seconds per sample
dh210617Manchester 53.47 2.23 3.018777pr1000
************************************************************
Dead Time -------------------------  3E-08 
Number of Cycles Used -------------  4 
Starting Wavelength (Angstroms) ---  2950 
Final Wavelength (Angstoms) -------  2984 
Wavelength Increment (Angstroms) --  .25 
Filter Wheel #1 Position ---------- (1) Ground quartz diffuser (ND=2.32)
Filter Wheel #2 Position ---------- (1) Neutral Density 0.494



************************************************************
HS scan start time = 02:16:36
Dark Count =  4.8 


Time (GMT)  Wavelength (Ang)  Step Number  Raw Counts  Counts/Second

  136.96        2950.00           1222          49.00       192.68
  137.03        2950.25           1226          42.00       162.16
  137.06        2950.50           1229          48.00       188.32
  137.09        2950.75           1232          53.00       210.11
  137.12        2951.00           1236          40.00       153.44
  137.16        2951.25           1239          40.00       153.44
  137.19        2951.50           1242          41.00       157.80
  137.22        2951.75           1246          46.00       179.60
  137.25        2952.00           1249          52.00       205.76
  137.28        2952.25           1252          48.00       188.32
  137.31        2952.50           1256          46.00       179.60
  137.34        2952.75           1259          45.00       175.24
  137.37        2953.00           1262          40.00       153.44
  137.41        2953.25           1266          46.00       179.60
  137.44        2953.50           1269          42.00       162.16
  137.47        2953.75           1272          47.00       183.96
  137.50        2954.00           1276          40.00       153.44
  137.53        2954.25           1279          42.00       162.16
  137.56        2954.50           1282          44.00       170.88
  137.59        2954.75           1286          45.00       175.24
  137.62        2955.00           1289          48.00       188.32
  137.65        2955.25           1292          42.00       162.16
  137.68        2955.50           1296          43.00       166.52
  137.71        2955.75           1299          41.00       157.80
  137.74        2956.00           1302          51.00       201.40
  137.78        2956.25           1306          41.00       157.80
  137.81        2956.50           1309          39.00       149.09
  137.84        2956.75           1312          39.00       149.09
  137.87        2957.00           1316          44.00       170.88
  137.90        2957.25           1319          40.00       153.44
  137.93        2957.50           1322          49.00       192.68
  137.96        2957.75           1326          45.00       175.24
  137.99        2958.00           1329          44.00       170.88
  138.02        2958.25           1332          41.00       157.80
  138.05        2958.50           1336          37.00       140.37
  138.09        2958.75           1339          44.00       170.88
  138.12        2959.00           1342          45.00       175.24
  138.15        2959.25           1346          51.00       201.40
  138.18        2959.50           1349          56.00       223.19
  138.21        2959.75           1352          83.00       340.89
  138.24        2960.00           1356         121.00       506.55
  138.27        2960.25           1359         156.00       659.12
  138.30        2960.50           1362         207.00       881.45
  138.33        2960.75           1366         280.00      1199.69
  138.36        2961.00           1369         335.00      1439.47
  138.39        2961.25           1372         360.00      1548.46
  138.43        2961.50           1376         459.00      1980.07
  138.46        2961.75           1379         719.00      3113.63
  138.49        2962.00           1382        1486.00      6458.09
  138.52        2962.25           1386        3491.00     15203.97
  138.55        2962.50           1389        5311.00     23146.85
  138.58        2962.75           1392        7203.00     31407.96
  138.61        2963.00           1396        9603.00     41893.08
  138.64        2963.25           1399       11298.00     49302.16
  138.67        2963.50           1402       13152.00     57410.04
  138.71        2963.75           1406       15733.00     68703.80
  138.74        2964.00           1409       17833.00     77898.49
  138.77        2964.25           1412       19903.00     86966.78
  138.80        2964.50           1416       22452.00     98140.31
  138.83        2964.75           1419       24409.00    106723.90
  138.86        2965.00           1422       26610.00    116383.00
  138.89        2965.25           1426       28957.00    126689.00
  138.92        2965.50           1429       30963.00    135502.60
  138.95        2965.75           1432       32976.00    144351.80
  138.99        2966.00           1436       35367.00    154868.70
  139.02        2966.25           1439       36913.00    161672.40
  139.05        2966.50           1442       38560.00    168923.60
  139.08        2966.75           1446       40270.00    176455.60
  139.11        2967.00           1449       40891.00    179191.70
  139.14        2967.25           1452       41044.00    179865.90
  139.17        2967.50           1456       41065.00    179958.50
  139.20        2967.75           1459       40913.00    179288.70
  139.23        2968.00           1462       40703.00    178363.40
  139.27        2968.25           1466       39444.00    172816.90
  139.30        2968.50           1469       38134.00    167047.80
  139.33        2968.75           1472       36256.00    158780.70
  139.36        2969.00           1476       33769.00    147839.10
  139.39        2969.25           1479       31875.00    139511.20
  139.42        2969.50           1482       29953.00    131064.50
  139.45        2969.75           1486       27372.00    119728.30
  139.48        2970.00           1489       25556.00    111756.80
  139.51        2970.25           1492       23759.00    103872.40
  139.55        2970.50           1496       21188.00     92598.64
  139.58        2970.75           1499       19297.00     84311.50
  139.61        2971.00           1502       17416.00     76072.28
  139.64        2971.25           1506       14930.00     65189.26
  139.67        2971.50           1509       13186.00     57558.77
  139.70        2971.75           1513       10898.00     47553.41
  139.73        2972.00           1516        8949.00     39035.22
  139.76        2972.25           1519        7273.00     31713.68
  139.79        2972.50           1523        4758.00     20733.03
  139.82        2972.75           1526        2857.00     12437.95
  139.86        2973.00           1529        1384.00      6013.29
  139.89        2973.25           1533         492.00      2123.94
  139.92        2973.50           1536         345.00      1483.07
  139.95        2973.75           1539         280.00      1199.69
  139.98        2974.00           1543         224.00       955.56
  140.01        2974.25           1546         158.00       667.84
  140.04        2974.50           1549         112.00       467.31
  140.07        2974.75           1553          69.00       279.86
  140.10        2975.00           1556          54.00       214.47
  140.13        2975.25           1559          48.00       188.32
  140.16        2975.50           1563          48.00       188.32
  140.19        2975.75           1566          46.00       179.60
  140.22        2976.00           1569          52.00       205.76
  140.26        2976.25           1573          45.00       175.24
  140.29        2976.50           1576          49.00       192.68
  140.32        2976.75           1579          47.00       183.96
  140.35        2977.00           1583          44.00       170.88
  140.38        2977.25           1586          52.00       205.76
  140.41        2977.50           1590          46.00       179.60
  140.44        2977.75           1593          45.00       175.24
  140.47        2978.00           1596          44.00       170.88
  140.50        2978.25           1600          45.00       175.24
  140.53        2978.50           1603          48.00       188.32
  140.56        2978.75           1606          47.00       183.96
  140.59        2979.00           1610          53.00       210.11
  140.63        2979.25           1613          41.00       157.80
  140.66        2979.50           1616          47.00       183.96
  140.69        2979.75           1620          41.00       157.80
  140.72        2980.00           1623          41.00       157.80
  140.75        2980.25           1626          39.00       149.09
  140.78        2980.50           1630          48.00       188.32
  140.81        2980.75           1633          41.00       157.80
  140.84        2981.00           1637          45.00       175.24
  140.87        2981.25           1640          37.00       140.37
  140.90        2981.50           1643          42.00       162.16
  140.94        2981.75           1647          42.00       162.16
  140.97        2982.00           1650          43.00       166.52
  141.00        2982.25           1653          37.00       140.37
  141.03        2982.50           1657          42.00       162.16
  141.06        2982.75           1660          43.00       166.52
  141.09        2983.00           1663          47.00       183.96
  141.12        2983.25           1667          45.00       175.24
  141.15        2983.50           1670          42.00       162.16
  141.18        2983.75           1673          49.00       192.68
  141.21        2984.00           1677          47.00       183.96
HS scan finished at 02:21:26
end
************************************************************
  HS Scan of (1) Internal mercury lamp
************************************************************
Integration time is 0.2294 seconds per sample
dh210617Manchester 53.47 2.23 3.340665pr1000
************************************************************
Dead Time -------------------------  3E-08 
Number of Cycles Used -------------  4 
Starting Wavelength (Angstroms) ---  2950 
Final Wavelength (Angstoms) -------  2984 
Wavelength Increment (Angstroms) --  .25 
Filter Wheel #1 Position ---------- (1) Ground quartz diffuser (ND=2.32)
Filter Wheel #2 Position ---------- (1) Neutral Density 0.494



************************************************************
HS scan start time = 21:42:04
Dark Count =  5.9 


Time (GMT)  Wavelength (Ang)  Step Number  Raw Counts  Counts/Second

 1302.44        2950.00           1222          37.00       135.57
 1302.51        2950.25           1226          35.00       126.85
 1302.54        2950.50           1229          35.00       126.85
 1302.57        2950.75           1232          35.00       126.85
 1302.60        2951.00           1236          44.00       166.09
 1302.63        2951.25           1239          41.00       153.01
 1302.66        2951.50           1242          39.00       144.29
 1302.69        2951.75           1246          41.00       153.01
 1302.72        2952.00           1249          41.00       153.01
 1302.75        2952.25           1252          39.00       144.29
 1302.79        2952.50           1256          43.00       161.73
 1302.82        2952.75           1259          36.00       131.21
 1302.85        2953.00           1262          37.00       135.57
 1302.88        2953.25           1266          46.00       174.80
 1302.91        2953.50           1269          45.00       170.45
 1302.94        2953.75           1272          39.00       144.29
 1302.97        2954.00           1276          38.00       139.93
 1303.00        2954.25           1279          40.00       148.65
 1303.03        2954.50           1282          45.00       170.45
 1303.07        2954.75           1286          41.00       153.01
 1303.10        2955.00           1289          41.00       153.01
 1303.13        2955.25           1292          38.00       139.93
 1303.16        2955.50           1296          48.00       183.52
 1303.19        2955.75           1299          36.00       131.21
 1303.22        2956.00           1302          40.00       148.65
 1303.25        2956.25           1306          44.00       166.09
 1303.28        2956.50           1309          36.00       131.21
 1303.31        2956.75           1312          43.00       161.73
 1303.34        2957.00           1316          38.00       139.93
 1303.38        2957.25           1319          38.00       139.93
 1303.41        2957.50           1322          42.00       157.37
 1303.44        2957.75           1326          41.00       153.01
 1303.47        2958.00           1329          42.00       157.37
 1303.50        2958.25           1332          40.00       148.65
 1303.53        2958.50           1336          40.00       148.65
 1303.56        2958.75           1339          47.00       179.16
 1303.59        2959.00           1342          41.00       153.01
 1303.62        2959.25           1346          56.00       218.40
 1303.65        2959.50           1349          69.00       275.07
 1303.68        2959.75           1352         107.00       440.72
 1303.72        2960.00           1356         160.00       671.77
 1303.75        2960.25           1359         227.00       963.85
 1303.78        2960.50           1362         266.00      1133.87
 1303.81        2960.75           1366         341.00      1460.83
 1303.84        2961.00           1369         398.00      1709.33
 1303.87        2961.25           1372         454.00      1953.47
 1303.90        2961.50           1376         595.00      2568.20
 1303.93        2961.75           1379         908.00      3932.90
 1303.96        2962.00           1382        1869.00      8123.60
 1303.99        2962.25           1386        4201.00     18297.31
 1304.02        2962.50           1389        6240.00     27197.86
 1304.05        2962.75           1392        8273.00     36076.95
 1304.08        2963.00           1396       11029.00     48121.30
 1304.11        2963.25           1399       12983.00     56666.00
 1304.15        2963.50           1402       15025.00     65600.21
 1304.18        2963.75           1406       18112.00     79115.63
 1304.21        2964.00           1409       20356.00     88947.15
 1304.24        2964.25           1412       22708.00     99258.06
 1304.27        2964.50           1416       25413.00    111124.40
 1304.30        2964.75           1419       27604.00    120742.20
 1304.33        2965.00           1422       29845.00    130585.10
 1304.36        2965.25           1426       32533.00    142399.10
 1304.39        2965.50           1429       35058.00    153504.30
 1304.43        2965.75           1432       36859.00    161429.90
 1304.46        2966.00           1436       39579.00    173406.70
 1304.49        2966.25           1439       41719.00    182835.80
 1304.52        2966.50           1442       43641.00    191308.90
 1304.55        2966.75           1446       45517.00    199583.30
 1304.58        2967.00           1449       45671.00    200262.80
 1304.61        2967.25           1452       45723.00    200492.20
 1304.64        2967.50           1456       45704.00    200408.40
 1304.67        2967.75           1459       45763.00    200668.70
 1304.71        2968.00           1462       45506.00    199534.80
 1304.74        2968.25           1466       44037.00    193055.20
 1304.77        2968.50           1469       42356.00    185643.50
 1304.80        2968.75           1472       39997.00    175248.10
 1304.83        2969.00           1476       37598.00    164683.00
 1304.86        2969.25           1479       35463.00    155286.30
 1304.89        2969.50           1482       33089.00    144843.80
 1304.92        2969.75           1486       30326.00    132698.50
 1304.96        2970.00           1489       28103.00    122933.40
 1304.99        2970.25           1492       25791.00    112783.30
 1305.02        2970.50           1496       23138.00    101143.80
 1305.05        2970.75           1499       21172.00     92523.69
 1305.08        2971.00           1502       19119.00     83526.84
 1305.11        2971.25           1506       16373.00     71500.63
 1305.14        2971.50           1509       14290.00     62383.86
 1305.17        2971.75           1513       11618.00     50696.49
 1305.20        2972.00           1516        9625.00     41984.40
 1305.24        2972.25           1519        7525.00     32809.52
 1305.27        2972.50           1523        4689.00     20427.07
 1305.30        2972.75           1526        2485.00     10810.40
 1305.33        2973.00           1529        1036.00      4491.01
 1305.36        2973.25           1533         440.00      1892.44
 1305.39        2973.50           1536         320.00      1369.28
 1305.42        2973.75           1539         254.00      1081.55
 1305.45        2974.00           1543         191.00       806.91
 1305.48        2974.25           1546         127.00       527.91
 1305.51        2974.50           1549          85.00       344.82
 1305.55        2974.75           1553          57.00       222.76
 1305.58        2975.00           1556          48.00       183.52
 1305.61        2975.25           1559          42.00       157.37
 1305.64        2975.50           1563          48.00       183.52
 1305.67        2975.75           1566          51.00       196.60
 1305.70        2976.00           1569          37.00       135.57
 1305.73        2976.25           1573          44.00       166.09
 1305.76        2976.50           1576          44.00       166.09
 1305.79        2976.75           1579          43.00       161.73
 1305.82        2977.00           1583          46.00       174.80
 1305.86        2977.25           1586          48.00       183.52
 1305.89        2977.50           1590          47.00       179.16
 1305.92        2977.75           1593          37.00       135.57
 1305.95        2978.00           1596          48.00       183.52
 1305.98        2978.25           1600          46.00       174.80
 1306.01        2978.50           1603          41.00       153.01
 1306.04        2978.75           1606          37.00       135.57
 1306.07        2979.00           1610          52.00       200.96
 1306.10        2979.25           1613          39.00       144.29
 1306.13        2979.50           1616          49.00       187.88
 1306.16        2979.75           1620          43.00       161.73
 1306.19        2980.00           1623          39.00       144.29
 1306.22        2980.25           1626          42.00       157.37
 1306.26        2980.50           1630          41.00       153.01
 1306.29        2980.75           1633          38.00       139.93
 1306.32        2981.00           1637          48.00       183.52
 1306.35        2981.25           1640          41.00       153.01
 1306.38        2981.50           1643          40.00       148.65
 1306.41        2981.75           1647          45.00       170.45
 1306.44        2982.00           1650          40.00       148.65
 1306.47        2982.25           1653          42.00       157.37
 1306.50        2982.50           1657          37.00       135.57
 1306.54        2982.75           1660          52.00       200.96
 1306.57        2983.00           1663          33.00       118.13
 1306.60        2983.25           1667          44.00       166.09
 1306.63        2983.50           1670          39.00       144.29
 1306.66        2983.75           1673          39.00       144.29
 1306.69        2984.00           1677          49.00       187.88
HS scan finished at 21:46:54
end
