************************************************************
  HS Scan of (1) Internal mercury lamp
************************************************************
Integration time is 0.2294 seconds per sample
dh200617Manchester 53.47 2.23 3.179721pr1000
************************************************************
Dead Time -------------------------  3E-08 
Number of Cycles Used -------------  4 
Starting Wavelength (Angstroms) ---  2950 
Final Wavelength (Angstoms) -------  2984 
Wavelength Increment (Angstroms) --  .25 
Filter Wheel #1 Position ---------- (1) Ground quartz diffuser (ND=2.32)
Filter Wheel #2 Position ---------- (1) Neutral Density 0.494



************************************************************
HS scan start time = 01:38:15
Dark Count =  4.1 


Time (GMT)  Wavelength (Ang)  Step Number  Raw Counts  Counts/Second

   98.63        2950.00           1222          45.00       178.29
   98.69        2950.25           1226          39.00       152.14
   98.72        2950.50           1229          44.00       173.93
   98.76        2950.75           1232          52.00       208.81
   98.79        2951.00           1236          39.00       152.14
   98.82        2951.25           1239          42.00       165.21
   98.85        2951.50           1242          42.00       165.21
   98.88        2951.75           1246          44.00       173.93
   98.91        2952.00           1249          44.00       173.93
   98.94        2952.25           1252          45.00       178.29
   98.97        2952.50           1256          47.00       187.01
   99.00        2952.75           1259          43.00       169.57
   99.03        2953.00           1262          48.00       191.37
   99.06        2953.25           1266          43.00       169.57
   99.10        2953.50           1269          44.00       173.93
   99.13        2953.75           1272          37.00       143.42
   99.16        2954.00           1276          41.00       160.86
   99.19        2954.25           1279          40.00       156.50
   99.22        2954.50           1282          38.00       147.78
   99.25        2954.75           1286          38.00       147.78
   99.28        2955.00           1289          45.00       178.29
   99.31        2955.25           1292          51.00       204.45
   99.35        2955.50           1296          44.00       173.93
   99.38        2955.75           1299          38.00       147.78
   99.41        2956.00           1302          40.00       156.50
   99.44        2956.25           1306          39.00       152.14
   99.47        2956.50           1309          42.00       165.21
   99.50        2956.75           1312          43.00       169.57
   99.53        2957.00           1316          39.00       152.14
   99.56        2957.25           1319          66.00       269.84
   99.59        2957.50           1322          42.00       165.21
   99.62        2957.75           1326          37.00       143.42
   99.65        2958.00           1329          39.00       152.14
   99.68        2958.25           1332          45.00       178.29
   99.72        2958.50           1336          46.00       182.65
   99.75        2958.75           1339          43.00       169.57
   99.78        2959.00           1342          43.00       169.57
   99.81        2959.25           1346          51.00       204.45
   99.84        2959.50           1349          59.00       239.32
   99.87        2959.75           1352          82.00       339.59
   99.90        2960.00           1356         131.00       553.19
   99.93        2960.25           1359         172.00       731.93
   99.96        2960.50           1362         230.00       984.77
   99.99        2960.75           1366         292.00      1255.06
  100.02        2961.00           1369         347.00      1494.84
  100.06        2961.25           1372         421.00      1817.45
  100.09        2961.50           1376         543.00      2349.34
  100.12        2961.75           1379         847.00      3674.77
  100.15        2962.00           1382        1978.00      8606.84
  100.18        2962.25           1386        4402.00     19182.35
  100.21        2962.50           1389        6290.00     27424.04
  100.24        2962.75           1392        8230.00     35896.97
  100.27        2963.00           1396       10971.00     47875.60
  100.30        2963.25           1399       12883.00     56236.47
  100.34        2963.50           1402       14893.00     65030.41
  100.37        2963.75           1406       17654.00     77117.63
  100.40        2964.00           1409       19927.00     87075.03
  100.43        2964.25           1412       21942.00     95907.21
  100.46        2964.50           1416       24822.00    108539.00
  100.49        2964.75           1419       26685.00    116715.30
  100.52        2965.00           1422       28727.00    125681.80
  100.55        2965.25           1426       31416.00    137496.70
  100.58        2965.50           1429       33418.00    146298.50
  100.62        2965.75           1432       35389.00    154968.60
  100.65        2966.00           1436       37977.00    166359.60
  100.68        2966.25           1439       39988.00    175216.40
  100.71        2966.50           1442       41926.00    183756.10
  100.74        2966.75           1446       43683.00    191502.00
  100.77        2967.00           1449       44310.00    194267.10
  100.80        2967.25           1452       44115.00    193407.10
  100.83        2967.50           1456       44161.00    193610.00
  100.86        2967.75           1459       44264.00    194064.20
  100.90        2968.00           1462       43928.00    192582.40
  100.93        2968.25           1466       42343.00    185594.10
  100.96        2968.50           1469       40618.00    177991.90
  100.99        2968.75           1472       38893.00    170393.20
  101.02        2969.00           1476       36079.00    158004.80
  101.05        2969.25           1479       34127.00    149416.70
  101.08        2969.50           1482       31979.00    139971.50
  101.11        2969.75           1486       29210.00    127803.40
  101.14        2970.00           1489       27265.00    119261.60
  101.17        2970.25           1492       25120.00    109846.60
  101.21        2970.50           1496       22523.00     98454.72
  101.24        2970.75           1499       20561.00     89853.49
  101.27        2971.00           1502       18571.00     81134.04
  101.30        2971.25           1506       15834.00     69148.97
  101.33        2971.50           1509       13631.00     59508.50
  101.36        2971.75           1513       11026.00     48116.05
  101.39        2972.00           1516        9054.00     39497.08
  101.42        2972.25           1519        6856.00     29895.59
  101.46        2972.50           1523        4361.00     19003.42
  101.49        2972.75           1526        2468.00     10744.09
  101.52        2973.00           1529        1069.00      4642.76
  101.55        2973.25           1533         486.00      2100.83
  101.58        2973.50           1536         379.00      1634.34
  101.61        2973.75           1539         340.00      1464.32
  101.64        2974.00           1543         257.00      1102.48
  101.67        2974.25           1546         165.00       701.41
  101.70        2974.50           1549         121.00       509.60
  101.73        2974.75           1553          74.00       304.71
  101.77        2975.00           1556          64.00       261.12
  101.80        2975.25           1559          51.00       204.45
  101.83        2975.50           1563          49.00       195.73
  101.86        2975.75           1566          48.00       191.37
  101.89        2976.00           1569          47.00       187.01
  101.92        2976.25           1573          41.00       160.86
  101.95        2976.50           1576          40.00       156.50
  101.98        2976.75           1579          42.00       165.21
  102.01        2977.00           1583          45.00       178.29
  102.04        2977.25           1586          39.00       152.14
  102.07        2977.50           1590          43.00       169.57
  102.11        2977.75           1593          45.00       178.29
  102.14        2978.00           1596          49.00       195.73
  102.17        2978.25           1600          45.00       178.29
  102.20        2978.50           1603          41.00       160.86
  102.23        2978.75           1606          41.00       160.86
  102.26        2979.00           1610          40.00       156.50
  102.29        2979.25           1613          41.00       160.86
  102.32        2979.50           1616          45.00       178.29
  102.35        2979.75           1620          40.00       156.50
  102.38        2980.00           1623          45.00       178.29
  102.41        2980.25           1626          38.00       147.78
  102.45        2980.50           1630          39.00       152.14
  102.48        2980.75           1633          46.00       182.65
  102.51        2981.00           1637          43.00       169.57
  102.54        2981.25           1640          44.00       173.93
  102.57        2981.50           1643          49.00       195.73
  102.60        2981.75           1647          46.00       182.65
  102.63        2982.00           1650          45.00       178.29
  102.66        2982.25           1653          48.00       191.37
  102.69        2982.50           1657          52.00       208.81
  102.72        2982.75           1660          41.00       160.86
  102.75        2983.00           1663          37.00       143.42
  102.79        2983.25           1667          40.00       156.50
  102.82        2983.50           1670          33.00       125.98
  102.85        2983.75           1673          46.00       182.65
  102.88        2984.00           1677          46.00       182.65
HS scan finished at 01:43:06
end
************************************************************
  HS Scan of (1) Internal mercury lamp
************************************************************
Integration time is 0.2294 seconds per sample
dh200617Manchester 53.47 2.23 2.965129pr1000
************************************************************
Dead Time -------------------------  3E-08 
Number of Cycles Used -------------  4 
Starting Wavelength (Angstroms) ---  2950 
Final Wavelength (Angstoms) -------  2984 
Wavelength Increment (Angstroms) --  .25 
Filter Wheel #1 Position ---------- (1) Ground quartz diffuser (ND=2.32)
Filter Wheel #2 Position ---------- (1) Neutral Density 0.494



************************************************************
HS scan start time = 21:42:06
Dark Count =  7.8 


Time (GMT)  Wavelength (Ang)  Step Number  Raw Counts  Counts/Second

 1302.47        2950.00           1222          52.00       192.68
 1302.54        2950.25           1226          49.00       179.60
 1302.57        2950.50           1229          41.00       144.73
 1302.60        2950.75           1232          43.00       153.44
 1302.63        2951.00           1236          46.00       166.52
 1302.67        2951.25           1239          42.00       149.09
 1302.70        2951.50           1242          39.00       136.01
 1302.73        2951.75           1246          45.00       162.16
 1302.76        2952.00           1249          42.00       149.09
 1302.79        2952.25           1252          45.00       162.16
 1302.82        2952.50           1256          46.00       166.52
 1302.85        2952.75           1259          36.00       122.93
 1302.88        2953.00           1262          45.00       162.16
 1302.91        2953.25           1266          42.00       149.09
 1302.94        2953.50           1269          44.00       157.80
 1302.98        2953.75           1272          48.00       175.24
 1303.01        2954.00           1276          49.00       179.60
 1303.04        2954.25           1279          51.00       188.32
 1303.07        2954.50           1282          40.00       140.37
 1303.10        2954.75           1286          36.00       122.93
 1303.13        2955.00           1289          48.00       175.24
 1303.16        2955.25           1292          39.00       136.01
 1303.19        2955.50           1296          46.00       166.52
 1303.22        2955.75           1299          47.00       170.88
 1303.25        2956.00           1302          41.00       144.73
 1303.29        2956.25           1306          51.00       188.32
 1303.32        2956.50           1309          40.00       140.37
 1303.35        2956.75           1312          40.00       140.37
 1303.38        2957.00           1316          41.00       144.73
 1303.41        2957.25           1319          46.00       166.52
 1303.44        2957.50           1322          46.00       166.52
 1303.47        2957.75           1326          41.00       144.73
 1303.50        2958.00           1329          43.00       153.44
 1303.53        2958.25           1332          42.00       149.09
 1303.56        2958.50           1336          43.00       153.44
 1303.60        2958.75           1339          45.00       162.16
 1303.63        2959.00           1342          41.00       144.73
 1303.66        2959.25           1346          47.00       170.88
 1303.69        2959.50           1349          46.00       166.52
 1303.72        2959.75           1352          65.00       249.35
 1303.75        2960.00           1356          93.00       371.41
 1303.78        2960.25           1359         126.00       515.27
 1303.81        2960.50           1362         169.00       702.72
 1303.84        2960.75           1366         221.00       929.41
 1303.87        2961.00           1369         276.00      1169.18
 1303.90        2961.25           1372         319.00      1356.64
 1303.93        2961.50           1376         426.00      1823.12
 1303.97        2961.75           1379         704.00      3035.15
 1304.00        2962.00           1382        1491.00      6466.82
 1304.03        2962.25           1386        3395.00     14772.02
 1304.06        2962.50           1389        5313.00     23142.48
 1304.09        2962.75           1392        6937.00     30233.17
 1304.12        2963.00           1396        9447.00     41198.23
 1304.15        2963.25           1399       11390.00     49691.29
 1304.18        2963.50           1402       13057.00     56981.37
 1304.21        2963.75           1406       15510.00     67714.58
 1304.25        2964.00           1409       17362.00     75822.66
 1304.28        2964.25           1412       19064.00     83277.54
 1304.31        2964.50           1416       21480.00     93865.52
 1304.34        2964.75           1419       23278.00    101749.50
 1304.37        2965.00           1422       25096.00    109725.00
 1304.40        2965.25           1426       27385.00    119772.20
 1304.43        2965.50           1429       29298.00    128173.70
 1304.46        2965.75           1432       31138.00    136258.60
 1304.49        2966.00           1436       33668.00    147381.70
 1304.52        2966.25           1439       35524.00    155546.30
 1304.56        2966.50           1442       37109.00    162521.90
 1304.59        2966.75           1446       38666.00    169377.20
 1304.62        2967.00           1449       39248.00    171940.40
 1304.65        2967.25           1452       39203.00    171742.20
 1304.68        2967.50           1456       39233.00    171874.40
 1304.71        2967.75           1459       39061.00    171116.80
 1304.74        2968.00           1462       38907.00    170438.60
 1304.77        2968.25           1466       37834.00    165713.70
 1304.80        2968.50           1469       36430.00    159533.30
 1304.84        2968.75           1472       34651.00    151705.40
 1304.87        2969.00           1476       32265.00    141212.50
 1304.90        2969.25           1479       30324.00    132681.40
 1304.93        2969.50           1482       28375.00    124119.60
 1304.96        2969.75           1486       26153.00    114363.80
 1304.99        2970.00           1489       24489.00    107061.70
 1305.02        2970.25           1492       22578.00     98679.66
 1305.05        2970.50           1496       20307.00     88724.07
 1305.08        2970.75           1499       18498.00     80798.05
 1305.12        2971.00           1502       16574.00     72372.31
 1305.15        2971.25           1506       14142.00     61727.99
 1305.18        2971.50           1509       12310.00     53714.22
 1305.21        2971.75           1513        9922.00     43274.10
 1305.24        2972.00           1516        8329.00     36313.30
 1305.27        2972.25           1519        6408.00     27923.12
 1305.30        2972.50           1523        3969.00     17276.61
 1305.33        2972.75           1526        2310.00     10038.77
 1305.36        2973.00           1529         991.00      4286.51
 1305.39        2973.25           1533         488.00      2093.42
 1305.43        2973.50           1536         347.00      1478.71
 1305.46        2973.75           1539         291.00      1234.57
 1305.49        2974.00           1543         261.00      1103.79
 1305.52        2974.25           1546         183.00       763.75
 1305.55        2974.50           1549         124.00       506.55
 1305.58        2974.75           1553          87.00       345.25
 1305.61        2975.00           1556          61.00       231.91
 1305.64        2975.25           1559          49.00       179.60
 1305.67        2975.50           1563          47.00       170.88
 1305.70        2975.75           1566          50.00       183.96
 1305.74        2976.00           1569          63.00       240.63
 1305.77        2976.25           1573          37.00       127.29
 1305.80        2976.50           1576          44.00       157.80
 1305.83        2976.75           1579          49.00       179.60
 1305.86        2977.00           1583          44.00       157.80
 1305.89        2977.25           1586          43.00       153.44
 1305.92        2977.50           1590          43.00       153.44
 1305.95        2977.75           1593          43.00       153.44
 1305.98        2978.00           1596          51.00       188.32
 1306.01        2978.25           1600          50.00       183.96
 1306.04        2978.50           1603          46.00       166.52
 1306.07        2978.75           1606          54.00       201.40
 1306.10        2979.00           1610          46.00       166.52
 1306.14        2979.25           1613          42.00       149.09
 1306.17        2979.50           1616          46.00       166.52
 1306.20        2979.75           1620          46.00       166.52
 1306.23        2980.00           1623          45.00       162.16
 1306.26        2980.25           1626          43.00       153.44
 1306.29        2980.50           1630          43.00       153.44
 1306.32        2980.75           1633          45.00       162.16
 1306.35        2981.00           1637          42.00       149.09
 1306.38        2981.25           1640          44.00       157.80
 1306.41        2981.50           1643          43.00       153.44
 1306.45        2981.75           1647          43.00       153.44
 1306.48        2982.00           1650          42.00       149.09
 1306.51        2982.25           1653          46.00       166.52
 1306.54        2982.50           1657          44.00       157.80
 1306.57        2982.75           1660          48.00       175.24
 1306.60        2983.00           1663          39.00       136.01
 1306.63        2983.25           1667          39.00       136.01
 1306.66        2983.50           1670          39.00       136.01
 1306.69        2983.75           1673          40.00       140.37
 1306.72        2984.00           1677          38.00       131.65
HS scan finished at 21:46:56
end
