************************************************************
  HS Scan of (1) Internal mercury lamp
************************************************************
Integration time is 0.2294 seconds per sample
dh260618Manchester 53.47 2.23 3.018777pr1000
************************************************************
Dead Time -------------------------  3E-08 
Number of Cycles Used -------------  4 
Starting Wavelength (Angstroms) ---  2950 
Final Wavelength (Angstoms) -------  2984 
Wavelength Increment (Angstroms) --  .25 
Filter Wheel #1 Position ---------- (1) Ground quartz diffuser (ND=2.32)
Filter Wheel #2 Position ---------- (1) Neutral Density 0.494



************************************************************
HS scan start time = 01:40:43
Dark Count =  6.9 


Time (GMT)  Wavelength (Ang)  Step Number  Raw Counts  Counts/Second

  101.08        2950.00           1222          55.00       209.68
  101.15        2950.25           1226          58.00       222.76
  101.18        2950.50           1229          50.00       187.88
  101.21        2950.75           1232          58.00       222.76
  101.24        2951.00           1236          54.00       205.32
  101.27        2951.25           1239          53.00       200.96
  101.31        2951.50           1242          46.00       170.45
  101.34        2951.75           1246          54.00       205.32
  101.37        2952.00           1249          50.00       187.88
  101.40        2952.25           1252          58.00       222.76
  101.43        2952.50           1256          55.00       209.68
  101.46        2952.75           1259          52.00       196.60
  101.49        2953.00           1262          54.00       205.32
  101.52        2953.25           1266          48.00       179.16
  101.55        2953.50           1269          58.00       222.76
  101.58        2953.75           1272          55.00       209.68
  101.61        2954.00           1276          50.00       187.88
  101.65        2954.25           1279          52.00       196.60
  101.68        2954.50           1282          51.00       192.24
  101.71        2954.75           1286          53.00       200.96
  101.74        2955.00           1289          48.00       179.16
  101.77        2955.25           1292          58.00       222.76
  101.80        2955.50           1296          52.00       196.60
  101.83        2955.75           1299          63.00       244.55
  101.86        2956.00           1302          54.00       205.32
  101.89        2956.25           1306          58.00       222.76
  101.92        2956.50           1309          59.00       227.12
  101.95        2956.75           1312          63.00       244.55
  101.99        2957.00           1316          52.00       196.60
  102.02        2957.25           1319          57.00       218.40
  102.05        2957.50           1322          52.00       196.60
  102.08        2957.75           1326          50.00       187.88
  102.11        2958.00           1329          48.00       179.16
  102.14        2958.25           1332          49.00       183.52
  102.17        2958.50           1336          50.00       187.88
  102.20        2958.75           1339          54.00       205.32
  102.23        2959.00           1342          60.00       231.48
  102.26        2959.25           1346          63.00       244.55
  102.29        2959.50           1349          58.00       222.76
  102.33        2959.75           1352          72.00       283.79
  102.36        2960.00           1356         118.00       484.31
  102.39        2960.25           1359         140.00       580.22
  102.42        2960.50           1362         170.00       711.00
  102.45        2960.75           1366         237.00      1003.08
  102.48        2961.00           1369         279.00      1186.18
  102.51        2961.25           1372         323.00      1378.00
  102.54        2961.50           1376         438.00      1879.36
  102.57        2961.75           1379         771.00      3331.20
  102.61        2962.00           1382        1754.00      7617.70
  102.64        2962.25           1386        3756.00     16351.09
  102.67        2962.50           1389        5103.00     22229.73
  102.70        2962.75           1392        6579.00     28673.74
  102.73        2963.00           1396        8561.00     37330.80
  102.76        2963.25           1399       10088.00     44003.56
  102.79        2963.50           1402       11731.00     51186.21
  102.82        2963.75           1406       13903.00     60686.24
  102.85        2964.00           1409       15505.00     67696.63
  102.89        2964.25           1412       17164.00     74959.57
  102.92        2964.50           1416       19221.00     83969.32
  102.95        2964.75           1419       20788.00     90836.13
  102.98        2965.00           1422       22253.00     97258.52
  103.01        2965.25           1426       24350.00    106455.80
  103.04        2965.50           1429       26022.00    113792.80
  103.07        2965.75           1432       27456.00    120087.90
  103.10        2966.00           1436       29551.00    129289.10
  103.13        2966.25           1439       31074.00    135981.30
  103.17        2966.50           1442       32155.00    140732.90
  103.20        2966.75           1446       33175.00    145217.60
  103.23        2967.00           1449       33213.00    145384.70
  103.26        2967.25           1452       33321.00    145859.60
  103.29        2967.50           1456       33106.00    144914.20
  103.32        2967.75           1459       32953.00    144241.40
  103.35        2968.00           1462       32776.00    143463.10
  103.38        2968.25           1466       31264.00    136816.30
  103.41        2968.50           1469       29822.00    130479.70
  103.45        2968.75           1472       28653.00    125344.50
  103.48        2969.00           1476       26519.00    115974.30
  103.51        2969.25           1479       24890.00    108825.10
  103.54        2969.50           1482       23232.00    101551.70
  103.57        2969.75           1486       21252.00     92869.98
  103.60        2970.00           1489       19585.00     85564.18
  103.63        2970.25           1492       18325.00     80044.21
  103.66        2970.50           1496       16201.00     70743.27
  103.70        2970.75           1499       14777.00     64510.52
  103.73        2971.00           1502       13268.00     57908.28
  103.76        2971.25           1506       11251.00     49087.49
  103.79        2971.50           1509        9675.00     42198.55
  103.82        2971.75           1513        7681.00     33486.54
  103.85        2972.00           1516        6206.00     27045.04
  103.88        2972.25           1519        4600.00     20034.27
  103.91        2972.50           1523        2622.00     11403.64
  103.94        2972.75           1526        1252.00      5428.52
  103.97        2973.00           1529         567.00      2441.77
  104.01        2973.25           1533         369.00      1578.54
  104.04        2973.50           1536         317.00      1351.84
  104.07        2973.75           1539         264.00      1120.79
  104.10        2974.00           1543         227.00       959.49
  104.13        2974.25           1546         159.00       663.05
  104.16        2974.50           1549         122.00       501.75
  104.19        2974.75           1553          81.00       323.02
  104.22        2975.00           1556          70.00       275.07
  104.25        2975.25           1559          58.00       222.76
  104.28        2975.50           1563          57.00       218.40
  104.31        2975.75           1566          54.00       205.32
  104.35        2976.00           1569          54.00       205.32
  104.38        2976.25           1573          53.00       200.96
  104.41        2976.50           1576          50.00       187.88
  104.44        2976.75           1579          61.00       235.83
  104.47        2977.00           1583          62.00       240.19
  104.50        2977.25           1586          55.00       209.68
  104.53        2977.50           1590          46.00       170.45
  104.56        2977.75           1593          50.00       187.88
  104.59        2978.00           1596          52.00       196.60
  104.62        2978.25           1600          62.00       240.19
  104.65        2978.50           1603          54.00       205.32
  104.69        2978.75           1606          53.00       200.96
  104.72        2979.00           1610          57.00       218.40
  104.75        2979.25           1613          62.00       240.19
  104.78        2979.50           1616          47.00       174.80
  104.81        2979.75           1620          50.00       187.88
  104.84        2980.00           1623          51.00       192.24
  104.87        2980.25           1626          63.00       244.55
  104.90        2980.50           1630          48.00       179.16
  104.93        2980.75           1633          50.00       187.88
  104.96        2981.00           1637          53.00       200.96
  104.99        2981.25           1640          48.00       179.16
  105.02        2981.50           1643          50.00       187.88
  105.06        2981.75           1647          48.00       179.16
  105.09        2982.00           1650          54.00       205.32
  105.12        2982.25           1653          51.00       192.24
  105.15        2982.50           1657          56.00       214.04
  105.18        2982.75           1660          47.00       174.80
  105.21        2983.00           1663          47.00       174.80
  105.24        2983.25           1667          50.00       187.88
  105.27        2983.50           1670          55.00       209.68
  105.30        2983.75           1673          46.00       170.45
  105.33        2984.00           1677          74.00       292.50
HS scan finished at 01:45:33
end
************************************************************
  HS Scan of (1) Internal mercury lamp
************************************************************
Integration time is 0.2294 seconds per sample
dh260618Manchester 53.47 2.23 3.233369pr1000
************************************************************
Dead Time -------------------------  3E-08 
Number of Cycles Used -------------  4 
Starting Wavelength (Angstroms) ---  2950 
Final Wavelength (Angstoms) -------  2984 
Wavelength Increment (Angstroms) --  .25 
Filter Wheel #1 Position ---------- (1) Ground quartz diffuser (ND=2.32)
Filter Wheel #2 Position ---------- (1) Neutral Density 0.494



************************************************************
HS scan start time = 21:42:07
Dark Count =  4.6 


Time (GMT)  Wavelength (Ang)  Step Number  Raw Counts  Counts/Second

 1302.48        2950.00           1222          54.00       215.35
 1302.55        2950.25           1226          52.00       206.63
 1302.58        2950.50           1229          52.00       206.63
 1302.61        2950.75           1232          57.00       228.42
 1302.64        2951.00           1236          48.00       189.19
 1302.67        2951.25           1239          60.00       241.50
 1302.70        2951.50           1242          57.00       228.42
 1302.73        2951.75           1246          50.00       197.91
 1302.76        2952.00           1249          51.00       202.27
 1302.80        2952.25           1252          55.00       219.71
 1302.83        2952.50           1256          47.00       184.83
 1302.86        2952.75           1259          53.00       210.99
 1302.89        2953.00           1262          57.00       228.42
 1302.92        2953.25           1266          56.00       224.06
 1302.95        2953.50           1269          56.00       224.06
 1302.98        2953.75           1272          55.00       219.71
 1303.01        2954.00           1276          57.00       228.42
 1303.04        2954.25           1279          58.00       232.78
 1303.07        2954.50           1282          56.00       224.06
 1303.11        2954.75           1286          53.00       210.99
 1303.14        2955.00           1289          47.00       184.83
 1303.17        2955.25           1292          49.00       193.55
 1303.20        2955.50           1296          46.00       180.47
 1303.23        2955.75           1299          50.00       197.91
 1303.26        2956.00           1302          52.00       206.63
 1303.29        2956.25           1306          52.00       206.63
 1303.32        2956.50           1309          54.00       215.35
 1303.35        2956.75           1312          53.00       210.99
 1303.38        2957.00           1316          66.00       267.66
 1303.42        2957.25           1319          58.00       232.78
 1303.45        2957.50           1322          57.00       228.42
 1303.48        2957.75           1326          54.00       215.35
 1303.51        2958.00           1329          49.00       193.55
 1303.54        2958.25           1332          46.00       180.47
 1303.57        2958.50           1336          59.00       237.14
 1303.60        2958.75           1339          57.00       228.42
 1303.63        2959.00           1342          58.00       232.78
 1303.66        2959.25           1346          64.00       258.94
 1303.69        2959.50           1349          65.00       263.30
 1303.72        2959.75           1352          96.00       398.44
 1303.75        2960.00           1356         118.00       494.34
 1303.79        2960.25           1359         172.00       729.75
 1303.82        2960.50           1362         195.00       830.01
 1303.85        2960.75           1366         258.00      1104.66
 1303.88        2961.00           1369         308.00      1322.63
 1303.91        2961.25           1372         345.00      1483.94
 1303.94        2961.50           1376         429.00      1850.15
 1303.97        2961.75           1379         605.00      2617.47
 1304.00        2962.00           1382        1348.00      5857.18
 1304.04        2962.25           1386        3081.00     13416.04
 1304.07        2962.50           1389        4618.00     20122.87
 1304.10        2962.75           1392        6232.00     27168.60
 1304.13        2963.00           1396        8350.00     36419.02
 1304.16        2963.25           1399        9847.00     42960.31
 1304.19        2963.50           1402       11592.00     50588.49
 1304.22        2963.75           1406       13864.00     60525.68
 1304.25        2964.00           1409       15401.00     67251.50
 1304.28        2964.25           1412       17159.00     74947.75
 1304.32        2964.50           1416       19237.00     84049.50
 1304.35        2964.75           1419       20950.00     91556.28
 1304.38        2965.00           1422       22787.00     99610.21
 1304.41        2965.25           1426       25030.00    109449.50
 1304.44        2965.50           1429       26600.00    116340.00
 1304.47        2965.75           1432       28258.00    123619.80
 1304.50        2966.00           1436       30403.00    133042.60
 1304.53        2966.25           1439       31807.00    139213.10
 1304.57        2966.50           1442       33221.00    145430.00
 1304.60        2966.75           1446       34907.00    152845.70
 1304.63        2967.00           1449       35452.00    155243.60
 1304.66        2967.25           1452       35407.00    155045.60
 1304.69        2967.50           1456       35170.00    154002.80
 1304.72        2967.75           1459       35323.00    154676.00
 1304.75        2968.00           1462       35102.00    153703.60
 1304.78        2968.25           1466       34201.00    149740.00
 1304.81        2968.50           1469       32821.00    143671.10
 1304.85        2968.75           1472       31108.00    136140.80
 1304.88        2969.00           1476       29166.00    127607.90
 1304.91        2969.25           1479       27437.00    120014.60
 1304.94        2969.50           1482       25848.00    113039.20
 1304.97        2969.75           1486       23631.00    103311.90
 1305.00        2970.00           1489       22142.00     96781.91
 1305.03        2970.25           1492       20389.00     89097.47
 1305.06        2970.50           1496       18407.00     80413.47
 1305.09        2970.75           1499       16777.00     73275.12
 1305.13        2971.00           1502       15321.00     66901.36
 1305.16        2971.25           1506       12995.00     56724.17
 1305.19        2971.50           1509       11482.00     50107.53
 1305.22        2971.75           1513        9374.00     40893.20
 1305.25        2972.00           1516        7803.00     34029.49
 1305.28        2972.25           1519        6363.00     27740.60
 1305.31        2972.50           1523        4081.00     17779.32
 1305.34        2972.75           1526        2555.00     11121.41
 1305.38        2973.00           1529        1194.00      5185.64
 1305.41        2973.25           1533         467.00      2015.82
 1305.44        2973.50           1536         343.00      1475.22
 1305.47        2973.75           1539         268.00      1148.25
 1305.50        2974.00           1543         230.00       982.59
 1305.53        2974.25           1546         172.00       729.75
 1305.56        2974.50           1549         136.00       572.81
 1305.59        2974.75           1553          81.00       333.05
 1305.63        2975.00           1556          61.00       245.86
 1305.66        2975.25           1559          53.00       210.99
 1305.69        2975.50           1563          46.00       180.47
 1305.72        2975.75           1566          55.00       219.71
 1305.75        2976.00           1569          45.00       176.11
 1305.78        2976.25           1573          59.00       237.14
 1305.81        2976.50           1576          56.00       224.06
 1305.84        2976.75           1579          49.00       193.55
 1305.87        2977.00           1583          60.00       241.50
 1305.91        2977.25           1586          51.00       202.27
 1305.94        2977.50           1590          48.00       189.19
 1305.97        2977.75           1593          45.00       176.11
 1306.00        2978.00           1596          60.00       241.50
 1306.03        2978.25           1600          55.00       219.71
 1306.06        2978.50           1603          60.00       241.50
 1306.09        2978.75           1606          56.00       224.06
 1306.13        2979.00           1610          47.00       184.83
 1306.17        2979.25           1613          51.00       202.27
 1306.20        2979.50           1616          57.00       228.42
 1306.23        2979.75           1620          51.00       202.27
 1306.26        2980.00           1623          56.00       224.06
 1306.29        2980.25           1626          50.00       197.91
 1306.32        2980.50           1630          47.00       184.83
 1306.35        2980.75           1633          48.00       189.19
 1306.38        2981.00           1637          43.00       167.39
 1306.41        2981.25           1640          50.00       197.91
 1306.45        2981.50           1643          56.00       224.06
 1306.48        2981.75           1647          50.00       197.91
 1306.51        2982.00           1650          46.00       180.47
 1306.54        2982.25           1653          46.00       180.47
 1306.57        2982.50           1657          52.00       206.63
 1306.60        2982.75           1660          52.00       206.63
 1306.63        2983.00           1663          44.00       171.75
 1306.66        2983.25           1667          47.00       184.83
 1306.69        2983.50           1670          47.00       184.83
 1306.73        2983.75           1673          49.00       193.55
 1306.76        2984.00           1677          47.00       184.83
HS scan finished at 21:46:58
end
