************************************************************
  HS Scan of (1) Internal mercury lamp
************************************************************
Integration time is 0.2294 seconds per sample
dh250617Manchester 53.47 2.23 2.804185pr1000
************************************************************
Dead Time -------------------------  3E-08 
Number of Cycles Used -------------  4 
Starting Wavelength (Angstroms) ---  2950 
Final Wavelength (Angstoms) -------  2984 
Wavelength Increment (Angstroms) --  .25 
Filter Wheel #1 Position ---------- (1) Ground quartz diffuser (ND=2.32)
Filter Wheel #2 Position ---------- (1) Neutral Density 0.494



************************************************************
HS scan start time = 01:39:30
Dark Count =  4.7 


Time (GMT)  Wavelength (Ang)  Step Number  Raw Counts  Counts/Second

   99.87        2950.00           1222          48.00       188.75
   99.94        2950.25           1226          41.00       158.24
   99.97        2950.50           1229          46.00       180.04
  100.00        2950.75           1232          44.00       171.32
  100.03        2951.00           1236          45.00       175.68
  100.06        2951.25           1239          44.00       171.32
  100.09        2951.50           1242          46.00       180.04
  100.12        2951.75           1246          44.00       171.32
  100.15        2952.00           1249          52.00       206.19
  100.18        2952.25           1252          42.00       162.60
  100.21        2952.50           1256          43.00       166.96
  100.24        2952.75           1259          45.00       175.68
  100.28        2953.00           1262          48.00       188.75
  100.31        2953.25           1266          44.00       171.32
  100.34        2953.50           1269          37.00       140.80
  100.37        2953.75           1272          45.00       175.68
  100.40        2954.00           1276          41.00       158.24
  100.43        2954.25           1279          44.00       171.32
  100.46        2954.50           1282          42.00       162.60
  100.49        2954.75           1286          47.00       184.40
  100.52        2955.00           1289          41.00       158.24
  100.55        2955.25           1292          50.00       197.47
  100.58        2955.50           1296          41.00       158.24
  100.62        2955.75           1299          51.00       201.83
  100.65        2956.00           1302          44.00       171.32
  100.68        2956.25           1306          53.00       210.55
  100.71        2956.50           1309          38.00       145.16
  100.74        2956.75           1312          43.00       166.96
  100.77        2957.00           1316          39.00       149.52
  100.80        2957.25           1319          60.00       241.07
  100.83        2957.50           1322          60.00       241.07
  100.86        2957.75           1326          51.00       201.83
  100.89        2958.00           1329          49.00       193.11
  100.92        2958.25           1332          46.00       180.04
  100.95        2958.50           1336          42.00       162.60
  100.99        2958.75           1339          46.00       180.04
  101.02        2959.00           1342          41.00       158.24
  101.05        2959.25           1346          44.00       171.32
  101.08        2959.50           1349          55.00       219.27
  101.11        2959.75           1352          57.00       227.99
  101.14        2960.00           1356          92.00       380.56
  101.17        2960.25           1359         127.00       533.14
  101.20        2960.50           1362         170.00       720.59
  101.23        2960.75           1366         225.00       960.36
  101.26        2961.00           1369         252.00      1078.06
  101.30        2961.25           1372         297.00      1274.24
  101.33        2961.50           1376         381.00      1640.45
  101.36        2961.75           1379         531.00      2294.40
  101.39        2962.00           1382        1009.00      4378.52
  101.42        2962.25           1386        2572.00     11195.13
  101.45        2962.50           1389        4176.00     18193.45
  101.48        2962.75           1392        5733.00     24989.52
  101.51        2963.00           1396        8059.00     35147.33
  101.54        2963.25           1399        9525.00     41552.64
  101.57        2963.50           1402       11182.00     48795.44
  101.60        2963.75           1406       13641.00     59549.63
  101.63        2964.00           1409       15227.00     66489.51
  101.66        2964.25           1412       17050.00     74470.03
  101.69        2964.50           1416       19383.00     84688.75
  101.73        2964.75           1419       21045.00     91972.26
  101.76        2965.00           1422       22832.00     99807.12
  101.79        2965.25           1426       24907.00    108909.30
  101.82        2965.50           1429       26603.00    116352.70
  101.85        2965.75           1432       28587.00    125064.30
  101.88        2966.00           1436       31010.00    135709.60
  101.91        2966.25           1439       32472.00    142136.20
  101.94        2966.50           1442       34052.00    149084.20
  101.97        2966.75           1446       35667.00    156189.20
  102.00        2967.00           1449       36503.00    159868.20
  102.04        2967.25           1452       36682.00    160656.10
  102.07        2967.50           1456       36655.00    160537.20
  102.10        2967.75           1459       36507.00    159885.80
  102.13        2968.00           1462       36575.00    160185.10
  102.16        2968.25           1466       35905.00    157236.50
  102.19        2968.50           1469       34591.00    151455.10
  102.22        2968.75           1472       32842.00    143763.00
  102.25        2969.00           1476       30902.00    135235.00
  102.28        2969.25           1479       29172.00    127633.80
  102.31        2969.50           1482       27400.00    119851.70
  102.34        2969.75           1486       25266.00    110484.60
  102.38        2970.00           1489       23655.00    103416.70
  102.41        2970.25           1492       22007.00     96189.56
  102.44        2970.50           1496       19648.00     85849.86
  102.47        2970.75           1499       18167.00     79361.79
  102.50        2971.00           1502       16381.00     71540.91
  102.53        2971.25           1506       14034.00     61269.01
  102.56        2971.50           1509       12478.00     54462.49
  102.59        2971.75           1513       10182.00     44424.03
  102.63        2972.00           1516        8401.00     36641.39
  102.66        2972.25           1519        6794.00     29622.22
  102.69        2972.50           1523        4639.00     20214.09
  102.72        2972.75           1526        3038.00     13228.01
  102.75        2973.00           1529        1586.00      6894.63
  102.78        2973.25           1533         561.00      2425.20
  102.81        2973.50           1536         373.00      1605.57
  102.84        2973.75           1539         306.00      1313.48
  102.87        2974.00           1543         267.00      1143.46
  102.90        2974.25           1546         186.00       790.34
  102.93        2974.50           1549         136.00       572.37
  102.96        2974.75           1553         103.00       428.51
  102.99        2975.00           1556          84.00       345.69
  103.03        2975.25           1559          49.00       193.11
  103.06        2975.50           1563          46.00       180.04
  103.09        2975.75           1566          43.00       166.96
  103.12        2976.00           1569          46.00       180.04
  103.15        2976.25           1573          45.00       175.68
  103.18        2976.50           1576          51.00       201.83
  103.21        2976.75           1579          39.00       149.52
  103.24        2977.00           1583          43.00       166.96
  103.27        2977.25           1586          44.00       171.32
  103.30        2977.50           1590          36.00       136.44
  103.33        2977.75           1593          40.00       153.88
  103.36        2978.00           1596          49.00       193.11
  103.39        2978.25           1600          39.00       149.52
  103.42        2978.50           1603          44.00       171.32
  103.46        2978.75           1606          49.00       193.11
  103.49        2979.00           1610          49.00       193.11
  103.52        2979.25           1613          46.00       180.04
  103.55        2979.50           1616          41.00       158.24
  103.58        2979.75           1620          42.00       162.60
  103.61        2980.00           1623          41.00       158.24
  103.64        2980.25           1626          40.00       153.88
  103.67        2980.50           1630          49.00       193.11
  103.70        2980.75           1633          44.00       171.32
  103.73        2981.00           1637          40.00       153.88
  103.76        2981.25           1640          46.00       180.04
  103.80        2981.50           1643          42.00       162.60
  103.83        2981.75           1647          39.00       149.52
  103.86        2982.00           1650          42.00       162.60
  103.89        2982.25           1653          44.00       171.32
  103.92        2982.50           1657          43.00       166.96
  103.95        2982.75           1660          40.00       153.88
  103.98        2983.00           1663          42.00       162.60
  104.01        2983.25           1667          46.00       180.04
  104.04        2983.50           1670          49.00       193.11
  104.07        2983.75           1673          43.00       166.96
  104.10        2984.00           1677          51.00       201.83
HS scan finished at 01:44:19
end
************************************************************
  HS Scan of (1) Internal mercury lamp
************************************************************
Integration time is 0.2294 seconds per sample
dh250617Manchester 53.47 2.23 2.804185pr1000
************************************************************
Dead Time -------------------------  3E-08 
Number of Cycles Used -------------  4 
Starting Wavelength (Angstroms) ---  2950 
Final Wavelength (Angstoms) -------  2984 
Wavelength Increment (Angstroms) --  .25 
Filter Wheel #1 Position ---------- (1) Ground quartz diffuser (ND=2.32)
Filter Wheel #2 Position ---------- (1) Neutral Density 0.494



************************************************************
HS scan start time = 21:42:01
Dark Count =  7.5 


Time (GMT)  Wavelength (Ang)  Step Number  Raw Counts  Counts/Second

 1302.38        2950.00           1222          50.00       185.27
 1302.45        2950.25           1226          36.00       124.24
 1302.48        2950.50           1229          35.00       119.88
 1302.51        2950.75           1232          43.00       154.75
 1302.54        2951.00           1236          45.00       163.47
 1302.57        2951.25           1239          41.00       146.03
 1302.61        2951.50           1242          42.00       150.39
 1302.64        2951.75           1246          47.00       172.19
 1302.67        2952.00           1249          45.00       163.47
 1302.70        2952.25           1252          41.00       146.03
 1302.73        2952.50           1256          48.00       176.55
 1302.76        2952.75           1259          41.00       146.03
 1302.79        2953.00           1262          48.00       176.55
 1302.82        2953.25           1266          46.00       167.83
 1302.85        2953.50           1269          38.00       132.96
 1302.88        2953.75           1272          44.00       159.11
 1302.91        2954.00           1276          48.00       176.55
 1302.95        2954.25           1279          40.00       141.67
 1302.98        2954.50           1282          42.00       150.39
 1303.01        2954.75           1286          43.00       154.75
 1303.04        2955.00           1289          46.00       167.83
 1303.07        2955.25           1292          47.00       172.19
 1303.10        2955.50           1296          40.00       141.67
 1303.13        2955.75           1299          41.00       146.03
 1303.16        2956.00           1302          44.00       159.11
 1303.19        2956.25           1306          39.00       137.32
 1303.22        2956.50           1309          41.00       146.03
 1303.26        2956.75           1312          46.00       167.83
 1303.29        2957.00           1316          46.00       167.83
 1303.32        2957.25           1319          45.00       163.47
 1303.35        2957.50           1322          42.00       150.39
 1303.38        2957.75           1326          43.00       154.75
 1303.41        2958.00           1329          49.00       180.91
 1303.44        2958.25           1332          42.00       150.39
 1303.47        2958.50           1336          40.00       141.67
 1303.50        2958.75           1339          45.00       163.47
 1303.53        2959.00           1342          48.00       176.55
 1303.56        2959.25           1346          44.00       159.11
 1303.59        2959.50           1349          51.00       189.63
 1303.63        2959.75           1352          64.00       246.30
 1303.66        2960.00           1356         101.00       407.59
 1303.69        2960.25           1359         138.00       568.89
 1303.72        2960.50           1362         169.00       704.03
 1303.75        2960.75           1366         225.00       948.15
 1303.78        2961.00           1369         281.00      1192.28
 1303.81        2961.25           1372         320.00      1362.31
 1303.84        2961.50           1376         430.00      1841.86
 1303.87        2961.75           1379         615.00      2648.42
 1303.90        2962.00           1382        1257.00      5447.71
 1303.94        2962.25           1386        2931.00     12748.99
 1303.97        2962.50           1389        4491.00     19555.94
 1304.00        2962.75           1392        6076.00     26474.81
 1304.03        2963.00           1396        8391.00     36585.47
 1304.06        2963.25           1399        9947.00     43384.68
 1304.09        2963.50           1402       11740.00     51222.95
 1304.12        2963.75           1406       14090.00     61501.78
 1304.15        2964.00           1409       15486.00     67610.85
 1304.18        2964.25           1412       17369.00     75854.65
 1304.22        2964.50           1416       19816.00     86573.72
 1304.25        2964.75           1419       21346.00     93279.41
 1304.28        2965.00           1422       22948.00    100303.60
 1304.31        2965.25           1426       25245.00    110380.20
 1304.34        2965.50           1429       27117.00    118596.90
 1304.37        2965.75           1432       28891.00    126387.20
 1304.40        2966.00           1436       31051.00    135877.50
 1304.43        2966.25           1439       32629.00    142814.10
 1304.46        2966.50           1442       34269.00    150026.40
 1304.49        2966.75           1446       35660.00    156146.10
 1304.53        2967.00           1449       36141.00    158262.70
 1304.56        2967.25           1452       36217.00    158597.20
 1304.59        2967.50           1456       36156.00    158328.70
 1304.62        2967.75           1459       35974.00    157527.80
 1304.65        2968.00           1462       35936.00    157360.60
 1304.68        2968.25           1466       34800.00    152362.20
 1304.71        2968.50           1469       33421.00    146296.80
 1304.74        2968.75           1472       31706.00    138756.40
 1304.77        2969.00           1476       29662.00    129774.10
 1304.80        2969.25           1479       28063.00    122750.70
 1304.84        2969.50           1482       26180.00    114483.60
 1304.87        2969.75           1486       24066.00    105207.30
 1304.90        2970.00           1489       22275.00     97352.35
 1304.93        2970.25           1492       20710.00     90491.62
 1304.96        2970.50           1496       18547.00     81014.02
 1304.99        2970.75           1499       17136.00     74834.35
 1305.02        2971.00           1502       15466.00     67523.31
 1305.05        2971.25           1506       13305.00     58067.51
 1305.08        2971.50           1509       11683.00     50973.71
 1305.12        2971.75           1513        9541.00     41610.33
 1305.15        2972.00           1516        7632.00     33269.90
 1305.18        2972.25           1519        5962.00     25977.08
 1305.21        2972.50           1523        3852.00     16767.37
 1305.24        2972.75           1526        2413.00     10489.35
 1305.27        2973.00           1529        1200.00      5199.16
 1305.30        2973.25           1533         473.00      2029.33
 1305.33        2973.50           1536         338.00      1440.78
 1305.36        2973.75           1539         276.00      1170.49
 1305.39        2974.00           1543         225.00       948.15
 1305.43        2974.25           1546         186.00       778.14
 1305.46        2974.50           1549         135.00       555.81
 1305.49        2974.75           1553          88.00       350.92
 1305.52        2975.00           1556          64.00       246.30
 1305.55        2975.25           1559          51.00       189.63
 1305.58        2975.50           1563          41.00       146.03
 1305.61        2975.75           1566          48.00       176.55
 1305.64        2976.00           1569          39.00       137.32
 1305.67        2976.25           1573          39.00       137.32
 1305.70        2976.50           1576          45.00       163.47
 1305.73        2976.75           1579          47.00       172.19
 1305.76        2977.00           1583          47.00       172.19
 1305.79        2977.25           1586          42.00       150.39
 1305.83        2977.50           1590          49.00       180.91
 1305.86        2977.75           1593          49.00       180.91
 1305.89        2978.00           1596          44.00       159.11
 1305.92        2978.25           1600          47.00       172.19
 1305.95        2978.50           1603          45.00       163.47
 1305.98        2978.75           1606          45.00       163.47
 1306.01        2979.00           1610          44.00       159.11
 1306.04        2979.25           1613          33.00       111.16
 1306.07        2979.50           1616          47.00       172.19
 1306.10        2979.75           1620          49.00       180.91
 1306.13        2980.00           1623          52.00       193.99
 1306.16        2980.25           1626          45.00       163.47
 1306.20        2980.50           1630          41.00       146.03
 1306.23        2980.75           1633          44.00       159.11
 1306.26        2981.00           1637          38.00       132.96
 1306.29        2981.25           1640          42.00       150.39
 1306.32        2981.50           1643          44.00       159.11
 1306.35        2981.75           1647          50.00       185.27
 1306.38        2982.00           1650          44.00       159.11
 1306.41        2982.25           1653          46.00       167.83
 1306.44        2982.50           1657          40.00       141.67
 1306.47        2982.75           1660          43.00       154.75
 1306.50        2983.00           1663          41.00       146.03
 1306.53        2983.25           1667          46.00       167.83
 1306.56        2983.50           1670          38.00       132.96
 1306.59        2983.75           1673          43.00       154.75
 1306.62        2984.00           1677          43.00       154.75
HS scan finished at 21:46:50
end
