************************************************************
  HS Scan of (1) Internal mercury lamp
************************************************************
Integration time is 0.2294 seconds per sample
dh220619El Arenosillo 37.1 6.73 3.126073pr1000
************************************************************
Dead Time -------------------------  3E-08 
Number of Cycles Used -------------  4 
Starting Wavelength (Angstroms) ---  2950 
Final Wavelength (Angstoms) -------  2984 
Wavelength Increment (Angstroms) --  .25 
Filter Wheel #1 Position ---------- (1) Ground quartz diffuser (ND=2.32)
Filter Wheel #2 Position ---------- (1) Neutral Density 0.494



************************************************************
HS scan start time = 02:04:54
Dark Count =  4.9 


Time (GMT)  Wavelength (Ang)  Step Number  Raw Counts  Counts/Second

  125.27        2950.00           1222          53.00       209.68
  125.34        2950.25           1226          51.00       200.96
  125.37        2950.50           1229          55.00       218.40
  125.40        2950.75           1232          58.00       231.48
  125.43        2951.00           1236          53.00       209.68
  125.46        2951.25           1239          52.00       205.32
  125.50        2951.50           1242          59.00       235.83
  125.53        2951.75           1246          54.00       214.04
  125.56        2952.00           1249          46.00       179.16
  125.59        2952.25           1252          58.00       231.48
  125.62        2952.50           1256          52.00       205.32
  125.65        2952.75           1259          54.00       214.04
  125.68        2953.00           1262          53.00       209.68
  125.71        2953.25           1266          47.00       183.52
  125.74        2953.50           1269          54.00       214.04
  125.77        2953.75           1272          54.00       214.04
  125.80        2954.00           1276          55.00       218.40
  125.83        2954.25           1279          51.00       200.96
  125.87        2954.50           1282          58.00       231.48
  125.90        2954.75           1286          52.00       205.32
  125.93        2955.00           1289          51.00       200.96
  125.96        2955.25           1292          51.00       200.96
  125.99        2955.50           1296          58.00       231.48
  126.02        2955.75           1299          49.00       192.24
  126.05        2956.00           1302          57.00       227.12
  126.08        2956.25           1306          56.00       222.76
  126.11        2956.50           1309          59.00       235.83
  126.15        2956.75           1312          48.00       187.88
  126.18        2957.00           1316          52.00       205.32
  126.21        2957.25           1319          49.00       192.24
  126.24        2957.50           1322          69.00       279.43
  126.27        2957.75           1326          59.00       235.83
  126.30        2958.00           1329          49.00       192.24
  126.33        2958.25           1332          58.00       231.48
  126.36        2958.50           1336          53.00       209.68
  126.39        2958.75           1339          49.00       192.24
  126.42        2959.00           1342          52.00       205.32
  126.45        2959.25           1346          52.00       205.32
  126.49        2959.50           1349          68.00       275.07
  126.52        2959.75           1352          73.00       296.86
  126.55        2960.00           1356          97.00       401.49
  126.58        2960.25           1359         118.00       493.03
  126.61        2960.50           1362         162.00       684.84
  126.64        2960.75           1366         204.00       867.94
  126.67        2961.00           1369         249.00      1064.11
  126.70        2961.25           1372         286.00      1225.42
  126.73        2961.50           1376         335.00      1439.03
  126.76        2961.75           1379         480.00      2071.18
  126.79        2962.00           1382        1034.00      4486.65
  126.83        2962.25           1386        2579.00     11224.79
  126.86        2962.50           1389        3986.00     17363.45
  126.89        2962.75           1392        5324.00     23203.16
  126.92        2963.00           1396        7117.00     31031.93
  126.95        2963.25           1399        8548.00     37282.74
  126.98        2963.50           1402        9982.00     43549.01
  127.01        2963.75           1406       11915.00     51999.54
  127.04        2964.00           1409       13521.00     59023.78
  127.07        2964.25           1412       14778.00     64523.65
  127.10        2964.50           1416       16700.00     72936.66
  127.13        2964.75           1419       18385.00     80315.78
  127.17        2965.00           1422       19722.00     86173.22
  127.20        2965.25           1426       21641.00     94584.05
  127.23        2965.50           1429       23035.00    100696.50
  127.26        2965.75           1432       24414.00    106745.40
  127.29        2966.00           1436       26419.00    115544.10
  127.32        2966.25           1439       27831.00    121743.30
  127.35        2966.50           1442       29005.00    126899.40
  127.38        2966.75           1446       30441.00    133208.30
  127.41        2967.00           1449       30686.00    134284.90
  127.44        2967.25           1452       30904.00    135242.90
  127.48        2967.50           1456       30722.00    134443.10
  127.51        2967.75           1459       30881.00    135141.80
  127.54        2968.00           1462       30705.00    134368.40
  127.57        2968.25           1466       29781.00    130308.30
  127.60        2968.50           1469       28677.00    125458.70
  127.63        2968.75           1472       27038.00    118261.50
  127.66        2969.00           1476       25248.00    110404.70
  127.69        2969.25           1479       23964.00    104771.30
  127.73        2969.50           1482       22558.00     98604.68
  127.76        2969.75           1486       20737.00     90621.37
  127.79        2970.00           1489       19357.00     84573.94
  127.82        2970.25           1492       18056.00     78874.74
  127.85        2970.50           1496       15967.00     69727.66
  127.88        2970.75           1499       14658.00     63998.52
  127.91        2971.00           1502       13215.00     57685.19
  127.94        2971.25           1506       11377.00     49647.12
  127.97        2971.50           1509        9938.00     43356.71
  128.01        2971.75           1513        8310.00     36242.96
  128.04        2972.00           1516        6830.00     29778.55
  128.07        2972.25           1519        5232.00     22801.56
  128.10        2972.50           1523        3409.00     14845.76
  128.13        2972.75           1526        2044.00      8891.21
  128.16        2973.00           1529         875.00      3793.37
  128.19        2973.25           1533         401.00      1726.77
  128.22        2973.50           1536         302.00      1295.17
  128.25        2973.75           1539         247.00      1055.40
  128.28        2974.00           1543         201.00       854.86
  128.31        2974.25           1546         154.00       649.97
  128.35        2974.50           1549         122.00       510.47
  128.38        2974.75           1553          85.00       349.18
  128.41        2975.00           1556          67.00       270.71
  128.44        2975.25           1559          64.00       257.63
  128.47        2975.50           1563          51.00       200.96
  128.50        2975.75           1566          47.00       183.52
  128.53        2976.00           1569          51.00       200.96
  128.56        2976.25           1573          50.00       196.60
  128.59        2976.50           1576          51.00       200.96
  128.62        2976.75           1579          56.00       222.76
  128.65        2977.00           1583          46.00       179.16
  128.68        2977.25           1586          46.00       179.16
  128.71        2977.50           1590          49.00       192.24
  128.74        2977.75           1593          53.00       209.68
  128.78        2978.00           1596          52.00       205.32
  128.81        2978.25           1600          49.00       192.24
  128.84        2978.50           1603          52.00       205.32
  128.87        2978.75           1606          47.00       183.52
  128.90        2979.00           1610          50.00       196.60
  128.93        2979.25           1613          50.00       196.60
  128.96        2979.50           1616          52.00       205.32
  128.99        2979.75           1620          52.00       205.32
  129.02        2980.00           1623          44.00       170.45
  129.05        2980.25           1626          49.00       192.24
  129.08        2980.50           1630          47.00       183.52
  129.11        2980.75           1633          49.00       192.24
  129.14        2981.00           1637          50.00       196.60
  129.17        2981.25           1640          47.00       183.52
  129.20        2981.50           1643          53.00       209.68
  129.23        2981.75           1647          57.00       227.12
  129.27        2982.00           1650          47.00       183.52
  129.30        2982.25           1653          49.00       192.24
  129.33        2982.50           1657          51.00       200.96
  129.36        2982.75           1660          54.00       214.04
  129.39        2983.00           1663          55.00       218.40
  129.42        2983.25           1667          46.00       179.16
  129.45        2983.50           1670          52.00       205.32
  129.48        2983.75           1673          51.00       200.96
  129.51        2984.00           1677          53.00       209.68
HS scan finished at 02:09:44
end
