************************************************************
  HS Scan of (1) Internal mercury lamp
************************************************************
Integration time is 0.2294 seconds per sample
dh280617Manchester 53.47 2.23 2.804185pr1000
************************************************************
Dead Time -------------------------  3E-08 
Number of Cycles Used -------------  4 
Starting Wavelength (Angstroms) ---  2950 
Final Wavelength (Angstoms) -------  2984 
Wavelength Increment (Angstroms) --  .25 
Filter Wheel #1 Position ---------- (1) Ground quartz diffuser (ND=2.32)
Filter Wheel #2 Position ---------- (1) Neutral Density 0.494



************************************************************
HS scan start time = 02:17:58
Dark Count =  5.8 


Time (GMT)  Wavelength (Ang)  Step Number  Raw Counts  Counts/Second

  138.34        2950.00           1222          47.00       179.60
  138.41        2950.25           1226          44.00       166.52
  138.44        2950.50           1229          46.00       175.24
  138.47        2950.75           1232          45.00       170.88
  138.50        2951.00           1236          39.00       144.73
  138.53        2951.25           1239          43.00       162.16
  138.56        2951.50           1242          39.00       144.73
  138.59        2951.75           1246          42.00       157.80
  138.62        2952.00           1249          46.00       175.24
  138.65        2952.25           1252          47.00       179.60
  138.68        2952.50           1256          36.00       131.65
  138.71        2952.75           1259          50.00       192.68
  138.74        2953.00           1262          44.00       166.52
  138.78        2953.25           1266          44.00       166.52
  138.81        2953.50           1269          43.00       162.16
  138.84        2953.75           1272          45.00       170.88
  138.87        2954.00           1276          39.00       144.73
  138.90        2954.25           1279          42.00       157.80
  138.93        2954.50           1282          45.00       170.88
  138.96        2954.75           1286          46.00       175.24
  138.99        2955.00           1289          43.00       162.16
  139.02        2955.25           1292          44.00       166.52
  139.06        2955.50           1296          52.00       201.40
  139.09        2955.75           1299          49.00       188.32
  139.12        2956.00           1302          40.00       149.09
  139.15        2956.25           1306          43.00       162.16
  139.18        2956.50           1309          42.00       157.80
  139.21        2956.75           1312          51.00       197.04
  139.24        2957.00           1316          44.00       166.52
  139.27        2957.25           1319          46.00       175.24
  139.30        2957.50           1322          42.00       157.80
  139.33        2957.75           1326          40.00       149.09
  139.36        2958.00           1329          45.00       170.88
  139.39        2958.25           1332          45.00       170.88
  139.42        2958.50           1336          43.00       162.16
  139.45        2958.75           1339          50.00       192.68
  139.49        2959.00           1342          41.00       153.44
  139.52        2959.25           1346          52.00       201.40
  139.55        2959.50           1349          56.00       218.83
  139.58        2959.75           1352          73.00       292.94
  139.61        2960.00           1356         117.00       484.75
  139.64        2960.25           1359         146.00       611.17
  139.67        2960.50           1362         179.00       755.03
  139.70        2960.75           1366         248.00      1055.83
  139.73        2961.00           1369         277.00      1182.26
  139.76        2961.25           1372         336.00      1439.47
  139.79        2961.50           1376         462.00      1988.78
  139.83        2961.75           1379         795.00      3440.63
  139.86        2962.00           1382        1630.00      7081.71
  139.89        2962.25           1386        3608.00     15710.11
  139.92        2962.50           1389        5238.00     22823.82
  139.95        2962.75           1392        6796.00     29626.15
  139.98        2963.00           1396        8913.00     38873.56
  140.01        2963.25           1399       10655.00     46486.76
  140.04        2963.50           1402       12363.00     53954.75
  140.08        2963.75           1406       14548.00     63513.24
  140.11        2964.00           1409       16333.00     71325.96
  140.14        2964.25           1412       18276.00     79834.40
  140.17        2964.50           1416       20712.00     90507.84
  140.20        2964.75           1419       22440.00     98083.31
  140.23        2965.00           1422       24079.00    105271.80
  140.26        2965.25           1426       26350.00    115237.30
  140.29        2965.50           1429       28193.00    123329.00
  140.32        2965.75           1432       29767.00    130242.90
  140.35        2966.00           1436       32119.00    140579.40
  140.38        2966.25           1439       33417.00    146286.60
  140.42        2966.50           1442       35054.00    153487.20
  140.45        2966.75           1446       36387.00    159352.80
  140.48        2967.00           1449       36500.00    159850.20
  140.51        2967.25           1452       36875.00    161500.70
  140.54        2967.50           1456       36654.00    160528.00
  140.57        2967.75           1459       36531.00    159986.60
  140.60        2968.00           1462       36307.00    159000.70
  140.63        2968.25           1466       35115.00    153755.50
  140.66        2968.50           1469       33525.00    146761.60
  140.69        2968.75           1472       32097.00    140482.70
  140.72        2969.00           1476       30100.00    131705.90
  140.76        2969.25           1479       28342.00    123983.40
  140.79        2969.50           1482       26743.00    116962.40
  140.82        2969.75           1486       24437.00    106842.40
  140.85        2970.00           1489       22930.00    100232.10
  140.88        2970.25           1492       21245.00     92844.12
  140.91        2970.50           1496       18984.00     82935.81
  140.94        2970.75           1499       17097.00     74671.01
  140.97        2971.00           1502       15440.00     67416.95
  141.00        2971.25           1506       13171.00     57488.78
  141.04        2971.50           1509       11362.00     49577.61
  141.07        2971.75           1513        9295.00     40542.75
  141.10        2972.00           1516        7669.00     33438.93
  141.13        2972.25           1519        5980.00     26063.09
  141.16        2972.50           1523        3922.00     17080.24
  141.19        2972.75           1526        2395.00     10418.25
  141.22        2973.00           1529        1126.00      4883.89
  141.25        2973.25           1533         473.00      2036.74
  141.28        2973.50           1536         337.00      1443.83
  141.31        2973.75           1539         294.00      1256.37
  141.34        2974.00           1543         236.00      1003.52
  141.38        2974.25           1546         173.00       728.87
  141.41        2974.50           1549         128.00       532.70
  141.44        2974.75           1553          85.00       345.25
  141.47        2975.00           1556          75.00       301.66
  141.50        2975.25           1559          50.00       192.68
  141.53        2975.50           1563          49.00       188.32
  141.56        2975.75           1566          53.00       205.76
  141.59        2976.00           1569          46.00       175.24
  141.62        2976.25           1573          46.00       175.24
  141.65        2976.50           1576          51.00       197.04
  141.68        2976.75           1579          42.00       157.80
  141.72        2977.00           1583          50.00       192.68
  141.75        2977.25           1586          43.00       162.16
  141.78        2977.50           1590          43.00       162.16
  141.81        2977.75           1593          36.00       131.65
  141.84        2978.00           1596          46.00       175.24
  141.87        2978.25           1600          43.00       162.16
  141.90        2978.50           1603          43.00       162.16
  141.93        2978.75           1606          39.00       144.73
  141.96        2979.00           1610          39.00       144.73
  141.99        2979.25           1613          34.00       122.93
  142.02        2979.50           1616          50.00       192.68
  142.05        2979.75           1620          47.00       179.60
  142.08        2980.00           1623          36.00       131.65
  142.11        2980.25           1626          47.00       179.60
  142.15        2980.50           1630          50.00       192.68
  142.18        2980.75           1633          42.00       157.80
  142.21        2981.00           1637          51.00       197.04
  142.24        2981.25           1640          47.00       179.60
  142.27        2981.50           1643          39.00       144.73
  142.30        2981.75           1647          38.00       140.37
  142.33        2982.00           1650          35.00       127.29
  142.36        2982.25           1653          42.00       157.80
  142.39        2982.50           1657          41.00       153.44
  142.42        2982.75           1660          45.00       170.88
  142.45        2983.00           1663          42.00       157.80
  142.48        2983.25           1667          44.00       166.52
  142.52        2983.50           1670          43.00       162.16
  142.55        2983.75           1673          42.00       157.80
  142.58        2984.00           1677          47.00       179.60
HS scan finished at 02:22:48
end
************************************************************
  HS Scan of (1) Internal mercury lamp
************************************************************
Integration time is 0.2294 seconds per sample
dh280617Manchester 53.47 2.23 2.804185pr1000
************************************************************
Dead Time -------------------------  3E-08 
Number of Cycles Used -------------  4 
Starting Wavelength (Angstroms) ---  2950 
Final Wavelength (Angstoms) -------  2984 
Wavelength Increment (Angstroms) --  .25 
Filter Wheel #1 Position ---------- (1) Ground quartz diffuser (ND=2.32)
Filter Wheel #2 Position ---------- (1) Neutral Density 0.494



************************************************************
HS scan start time = 21:41:59
Dark Count =  6.1 


Time (GMT)  Wavelength (Ang)  Step Number  Raw Counts  Counts/Second

 1302.35        2950.00           1222          45.00       169.57
 1302.42        2950.25           1226          44.00       165.21
 1302.45        2950.50           1229          41.00       152.14
 1302.48        2950.75           1232          45.00       169.57
 1302.51        2951.00           1236          44.00       165.21
 1302.54        2951.25           1239          45.00       169.57
 1302.57        2951.50           1242          41.00       152.14
 1302.60        2951.75           1246          46.00       173.93
 1302.63        2952.00           1249          42.00       156.50
 1302.67        2952.25           1252          41.00       152.14
 1302.70        2952.50           1256          43.00       160.86
 1302.73        2952.75           1259          46.00       173.93
 1302.76        2953.00           1262          46.00       173.93
 1302.79        2953.25           1266          44.00       165.21
 1302.82        2953.50           1269          45.00       169.57
 1302.85        2953.75           1272          47.00       178.29
 1302.88        2954.00           1276          36.00       130.34
 1302.91        2954.25           1279          48.00       182.65
 1302.94        2954.50           1282          42.00       156.50
 1302.97        2954.75           1286          48.00       182.65
 1303.00        2955.00           1289          39.00       143.42
 1303.03        2955.25           1292          42.00       156.50
 1303.06        2955.50           1296          50.00       191.37
 1303.09        2955.75           1299          37.00       134.70
 1303.12        2956.00           1302          40.00       147.78
 1303.15        2956.25           1306          40.00       147.78
 1303.18        2956.50           1309          41.00       152.14
 1303.22        2956.75           1312          45.00       169.57
 1303.25        2957.00           1316          43.00       160.86
 1303.28        2957.25           1319          46.00       173.93
 1303.31        2957.50           1322          51.00       195.73
 1303.34        2957.75           1326          44.00       165.21
 1303.37        2958.00           1329          39.00       143.42
 1303.40        2958.25           1332          53.00       204.45
 1303.43        2958.50           1336          44.00       165.21
 1303.46        2958.75           1339          51.00       195.73
 1303.49        2959.00           1342          41.00       152.14
 1303.52        2959.25           1346          47.00       178.29
 1303.55        2959.50           1349          65.00       256.76
 1303.58        2959.75           1352          73.00       291.63
 1303.61        2960.00           1356         102.00       418.05
 1303.65        2960.25           1359         142.00       592.43
 1303.68        2960.50           1362         183.00       771.16
 1303.71        2960.75           1366         231.00       980.41
 1303.74        2961.00           1369         265.00      1128.63
 1303.77        2961.25           1372         309.00      1320.45
 1303.80        2961.50           1376         393.00      1686.66
 1303.83        2961.75           1379         514.00      2214.18
 1303.86        2962.00           1382         981.00      4250.32
 1303.89        2962.25           1386        2585.00     11245.73
 1303.93        2962.50           1389        4042.00     17602.58
 1303.96        2962.75           1392        5751.00     25061.99
 1303.99        2963.00           1396        7990.00     34839.80
 1304.02        2963.25           1399        9589.00     41826.22
 1304.05        2963.50           1402       11324.00     49410.16
 1304.08        2963.75           1406       13493.00     58896.05
 1304.11        2964.00           1409       15202.00     66373.97
 1304.14        2964.25           1412       16878.00     73710.77
 1304.18        2964.50           1416       19312.00     84371.53
 1304.21        2964.75           1419       20894.00     91304.24
 1304.24        2965.00           1422       22596.00     98766.06
 1304.27        2965.25           1426       24872.00    108749.60
 1304.30        2965.50           1429       26758.00    117027.00
 1304.33        2965.75           1432       27955.00    122282.60
 1304.36        2966.00           1436       30386.00    132961.30
 1304.39        2966.25           1439       32158.00    140749.60
 1304.42        2966.50           1442       33352.00    145999.50
 1304.45        2966.75           1446       35124.00    153793.80
 1304.48        2967.00           1449       36110.00    158132.50
 1304.51        2967.25           1452       36293.00    158937.80
 1304.54        2967.50           1456       36336.00    159127.10
 1304.57        2967.75           1459       36253.00    158761.80
 1304.60        2968.00           1462       36087.00    158031.20
 1304.64        2968.25           1466       35409.00    155047.80
 1304.67        2968.50           1469       33882.00    148330.40
 1304.70        2968.75           1472       32477.00    142152.00
 1304.73        2969.00           1476       30376.00    132917.40
 1304.76        2969.25           1479       28887.00    126375.80
 1304.79        2969.50           1482       27304.00    119424.10
 1304.82        2969.75           1486       25131.00    109886.10
 1304.85        2970.00           1489       23461.00    102559.60
 1304.88        2970.25           1492       21824.00     95381.09
 1304.92        2970.50           1496       19452.00     84984.92
 1304.95        2970.75           1499       17867.00     78041.71
 1304.98        2971.00           1502       16006.00     69893.13
 1305.01        2971.25           1506       13985.00     61048.50
 1305.04        2971.50           1509       12134.00     52951.97
 1305.07        2971.75           1513       10012.00     43674.89
 1305.10        2972.00           1516        8473.00     36949.83
 1305.13        2972.25           1519        6585.00     28703.43
 1305.16        2972.50           1523        4614.00     20098.86
 1305.20        2972.75           1526        3001.00     13060.48
 1305.23        2973.00           1529        1535.00      6666.11
 1305.26        2973.25           1533         539.00      2323.18
 1305.29        2973.50           1536         360.00      1542.79
 1305.32        2973.75           1539         324.00      1385.85
 1305.35        2974.00           1543         238.00      1010.93
 1305.38        2974.25           1546         187.00       788.60
 1305.41        2974.50           1549         133.00       553.19
 1305.44        2974.75           1553          91.00       370.10
 1305.47        2975.00           1556          71.00       282.91
 1305.50        2975.25           1559          56.00       217.53
 1305.53        2975.50           1563          45.00       169.57
 1305.56        2975.75           1566          45.00       169.57
 1305.59        2976.00           1569          44.00       165.21
 1305.63        2976.25           1573          50.00       191.37
 1305.66        2976.50           1576          44.00       165.21
 1305.69        2976.75           1579          47.00       178.29
 1305.72        2977.00           1583          46.00       173.93
 1305.75        2977.25           1586          44.00       165.21
 1305.78        2977.50           1590          43.00       160.86
 1305.81        2977.75           1593          43.00       160.86
 1305.84        2978.00           1596          47.00       178.29
 1305.87        2978.25           1600          46.00       173.93
 1305.90        2978.50           1603          52.00       200.09
 1305.93        2978.75           1606          49.00       187.01
 1305.96        2979.00           1610          46.00       173.93
 1305.99        2979.25           1613          45.00       169.57
 1306.02        2979.50           1616          38.00       139.06
 1306.06        2979.75           1620          50.00       191.37
 1306.09        2980.00           1623          43.00       160.86
 1306.12        2980.25           1626          41.00       152.14
 1306.15        2980.50           1630          47.00       178.29
 1306.18        2980.75           1633          37.00       134.70
 1306.21        2981.00           1637          43.00       160.86
 1306.24        2981.25           1640          39.00       143.42
 1306.27        2981.50           1643          45.00       169.57
 1306.30        2981.75           1647          41.00       152.14
 1306.33        2982.00           1650          42.00       156.50
 1306.36        2982.25           1653          39.00       143.42
 1306.39        2982.50           1657          36.00       130.34
 1306.43        2982.75           1660          35.00       125.98
 1306.46        2983.00           1663          46.00       173.93
 1306.49        2983.25           1667          43.00       160.86
 1306.52        2983.50           1670          42.00       156.50
 1306.55        2983.75           1673          40.00       147.78
 1306.58        2984.00           1677          44.00       165.21
HS scan finished at 21:46:48
end
