************************************************************
  HS Scan of (1) Internal mercury lamp
************************************************************
Integration time is 0.2294 seconds per sample
dh190618Manchester 53.47 2.23 2.857833pr1000
************************************************************
Dead Time -------------------------  3E-08 
Number of Cycles Used -------------  4 
Starting Wavelength (Angstroms) ---  2950 
Final Wavelength (Angstoms) -------  2984 
Wavelength Increment (Angstroms) --  .25 
Filter Wheel #1 Position ---------- (1) Ground quartz diffuser (ND=2.32)
Filter Wheel #2 Position ---------- (1) Neutral Density 0.494



************************************************************
HS scan start time = 01:38:20
Dark Count =  5.9 


Time (GMT)  Wavelength (Ang)  Step Number  Raw Counts  Counts/Second

   98.70        2950.00           1222          48.00       183.52
   98.77        2950.25           1226          53.00       205.32
   98.80        2950.50           1229          51.00       196.60
   98.83        2950.75           1232          56.00       218.40
   98.86        2951.00           1236          61.00       240.19
   98.89        2951.25           1239          60.00       235.83
   98.92        2951.50           1242          57.00       222.76
   98.95        2951.75           1246          58.00       227.12
   98.98        2952.00           1249          62.00       244.55
   99.01        2952.25           1252          58.00       227.12
   99.04        2952.50           1256          65.00       257.63
   99.08        2952.75           1259          55.00       214.04
   99.11        2953.00           1262          69.00       275.07
   99.14        2953.25           1266          48.00       183.52
   99.17        2953.50           1269          48.00       183.52
   99.20        2953.75           1272          63.00       248.91
   99.23        2954.00           1276          53.00       205.32
   99.26        2954.25           1279          54.00       209.68
   99.29        2954.50           1282          54.00       209.68
   99.32        2954.75           1286          57.00       222.76
   99.35        2955.00           1289          55.00       214.04
   99.38        2955.25           1292          54.00       209.68
   99.41        2955.50           1296          59.00       231.48
   99.45        2955.75           1299          55.00       214.04
   99.48        2956.00           1302          52.00       200.96
   99.51        2956.25           1306          54.00       209.68
   99.54        2956.50           1309          58.00       227.12
   99.57        2956.75           1312          56.00       218.40
   99.60        2957.00           1316          55.00       214.04
   99.63        2957.25           1319          49.00       187.88
   99.66        2957.50           1322          56.00       218.40
   99.69        2957.75           1326          49.00       187.88
   99.72        2958.00           1329          60.00       235.83
   99.75        2958.25           1332          53.00       205.32
   99.78        2958.50           1336          57.00       222.76
   99.81        2958.75           1339          58.00       227.12
   99.84        2959.00           1342          51.00       196.60
   99.88        2959.25           1346          62.00       244.55
   99.91        2959.50           1349          58.00       227.12
   99.94        2959.75           1352          70.00       279.43
   99.97        2960.00           1356          98.00       401.49
  100.00        2960.25           1359         122.00       506.11
  100.03        2960.50           1362         164.00       689.20
  100.06        2960.75           1366         210.00       889.74
  100.09        2961.00           1369         236.00      1003.08
  100.12        2961.25           1372         286.00      1221.06
  100.16        2961.50           1376         350.00      1500.07
  100.19        2961.75           1379         507.00      2184.54
  100.22        2962.00           1382        1110.00      4813.69
  100.25        2962.25           1386        2701.00     11752.62
  100.28        2962.50           1389        4156.00     18100.93
  100.31        2962.75           1392        5472.00     23844.86
  100.34        2963.00           1396        7293.00     31796.23
  100.37        2963.25           1399        8860.00     38641.54
  100.40        2963.50           1402       10380.00     45284.24
  100.43        2963.75           1406       12265.00     53525.73
  100.46        2964.00           1409       13829.00     60366.86
  100.49        2964.25           1412       15336.00     66961.31
  100.53        2964.50           1416       17345.00     75756.54
  100.56        2964.75           1419       18863.00     82405.30
  100.59        2965.00           1422       20258.00     88517.66
  100.62        2965.25           1426       22074.00     96478.06
  100.65        2965.50           1429       23562.00    103003.50
  100.68        2965.75           1432       25012.00    109364.80
  100.71        2966.00           1436       26859.00    117471.20
  100.74        2966.25           1439       28329.00    123925.90
  100.77        2966.50           1442       29640.00    129684.50
  100.81        2966.75           1446       30929.00    135348.40
  100.84        2967.00           1449       31172.00    136416.40
  100.87        2967.25           1452       31018.00    135739.50
  100.90        2967.50           1456       31165.00    136385.60
  100.93        2967.75           1459       31154.00    136337.20
  100.96        2968.00           1462       31099.00    136095.50
  100.99        2968.25           1466       30078.00    131608.90
  101.02        2968.50           1469       28718.00    125634.40
  101.05        2968.75           1472       27509.00    120325.00
  101.09        2969.00           1476       25545.00    111703.70
  101.12        2969.25           1479       24058.00    105179.20
  101.15        2969.50           1482       22641.00     98964.27
  101.18        2969.75           1486       20813.00     90950.09
  101.21        2970.00           1489       19253.00     84113.91
  101.24        2970.25           1492       17996.00     78607.56
  101.27        2970.50           1496       16055.00     70108.50
  101.30        2970.75           1499       14735.00     64331.10
  101.33        2971.00           1502       13347.00     58258.23
  101.36        2971.25           1506       11259.00     49126.84
  101.39        2971.50           1509        9949.00     43400.41
  101.42        2971.75           1513        8105.00     35343.04
  101.46        2972.00           1516        6714.00     29267.63
  101.49        2972.25           1519        5196.00     22640.05
  101.52        2972.50           1523        3261.00     14195.67
  101.55        2972.75           1526        1963.00      8533.57
  101.58        2973.00           1529         867.00      3754.13
  101.61        2973.25           1533         399.00      1713.69
  101.64        2973.50           1536         321.00      1373.64
  101.67        2973.75           1539         270.00      1151.30
  101.71        2974.00           1543         222.00       942.05
  101.74        2974.25           1546         176.00       741.52
  101.77        2974.50           1549         132.00       549.70
  101.80        2974.75           1553         112.00       462.52
  101.83        2975.00           1556          71.00       283.79
  101.86        2975.25           1559          64.00       253.27
  101.89        2975.50           1563          56.00       218.40
  101.92        2975.75           1566          50.00       192.24
  101.95        2976.00           1569          58.00       227.12
  101.98        2976.25           1573          53.00       205.32
  102.01        2976.50           1576          50.00       192.24
  102.04        2976.75           1579          50.00       192.24
  102.07        2977.00           1583          52.00       200.96
  102.10        2977.25           1586          50.00       192.24
  102.14        2977.50           1590          53.00       205.32
  102.17        2977.75           1593          53.00       205.32
  102.20        2978.00           1596          59.00       231.48
  102.23        2978.25           1600          53.00       205.32
  102.26        2978.50           1603          51.00       196.60
  102.29        2978.75           1606          56.00       218.40
  102.32        2979.00           1610          53.00       205.32
  102.35        2979.25           1613          55.00       214.04
  102.38        2979.50           1616          50.00       192.24
  102.41        2979.75           1620          49.00       187.88
  102.44        2980.00           1623          54.00       209.68
  102.47        2980.25           1626          65.00       257.63
  102.51        2980.50           1630          51.00       196.60
  102.54        2980.75           1633          45.00       170.45
  102.57        2981.00           1637          46.00       174.80
  102.60        2981.25           1640          50.00       192.24
  102.63        2981.50           1643          51.00       196.60
  102.66        2981.75           1647          56.00       218.40
  102.69        2982.00           1650          47.00       179.16
  102.72        2982.25           1653          54.00       209.68
  102.75        2982.50           1657          45.00       170.45
  102.78        2982.75           1660          54.00       209.68
  102.81        2983.00           1663          53.00       205.32
  102.84        2983.25           1667          45.00       170.45
  102.88        2983.50           1670          54.00       209.68
  102.91        2983.75           1673          55.00       214.04
  102.94        2984.00           1677          53.00       205.32
HS scan finished at 01:43:09
end
************************************************************
  HS Scan of (1) Internal mercury lamp
************************************************************
Integration time is 0.2294 seconds per sample
dh190618Manchester 53.47 2.23 3.018777pr1000
************************************************************
Dead Time -------------------------  3E-08 
Number of Cycles Used -------------  4 
Starting Wavelength (Angstroms) ---  2950 
Final Wavelength (Angstoms) -------  2984 
Wavelength Increment (Angstroms) --  .25 
Filter Wheel #1 Position ---------- (1) Ground quartz diffuser (ND=2.32)
Filter Wheel #2 Position ---------- (1) Neutral Density 0.494



************************************************************
HS scan start time = 21:42:04
Dark Count =  5.7 


Time (GMT)  Wavelength (Ang)  Step Number  Raw Counts  Counts/Second

 1302.44        2950.00           1222          60.00       236.71
 1302.51        2950.25           1226          50.00       193.11
 1302.54        2950.50           1229          51.00       197.47
 1302.57        2950.75           1232          53.00       206.19
 1302.60        2951.00           1236          58.00       227.99
 1302.63        2951.25           1239          51.00       197.47
 1302.66        2951.50           1242          48.00       184.40
 1302.69        2951.75           1246          58.00       227.99
 1302.72        2952.00           1249          55.00       214.91
 1302.75        2952.25           1252          56.00       219.27
 1302.79        2952.50           1256          53.00       206.19
 1302.82        2952.75           1259          63.00       249.78
 1302.85        2953.00           1262          57.00       223.63
 1302.88        2953.25           1266          59.00       232.35
 1302.91        2953.50           1269          50.00       193.11
 1302.94        2953.75           1272          50.00       193.11
 1302.97        2954.00           1276          55.00       214.91
 1303.00        2954.25           1279          59.00       232.35
 1303.03        2954.50           1282          48.00       184.40
 1303.06        2954.75           1286          59.00       232.35
 1303.09        2955.00           1289          57.00       223.63
 1303.12        2955.25           1292          56.00       219.27
 1303.15        2955.50           1296          58.00       227.99
 1303.18        2955.75           1299          51.00       197.47
 1303.22        2956.00           1302          52.00       201.83
 1303.25        2956.25           1306          53.00       206.19
 1303.28        2956.50           1309          51.00       197.47
 1303.31        2956.75           1312          57.00       223.63
 1303.34        2957.00           1316          57.00       223.63
 1303.37        2957.25           1319          56.00       219.27
 1303.40        2957.50           1322          57.00       223.63
 1303.43        2957.75           1326          57.00       223.63
 1303.46        2958.00           1329          50.00       193.11
 1303.49        2958.25           1332          54.00       210.55
 1303.52        2958.50           1336          54.00       210.55
 1303.55        2958.75           1339          63.00       249.78
 1303.59        2959.00           1342          58.00       227.99
 1303.62        2959.25           1346          63.00       249.78
 1303.65        2959.50           1349          66.00       262.86
 1303.68        2959.75           1352          78.00       315.17
 1303.71        2960.00           1356         114.00       472.11
 1303.74        2960.25           1359         144.00       602.89
 1303.77        2960.50           1362         186.00       785.98
 1303.80        2960.75           1366         246.00      1047.55
 1303.83        2961.00           1369         257.00      1095.50
 1303.87        2961.25           1372         292.00      1248.09
 1303.90        2961.50           1376         397.00      1705.84
 1303.93        2961.75           1379         533.00      2298.76
 1303.96        2962.00           1382        1157.00      5019.50
 1303.99        2962.25           1386        2977.00     12957.52
 1304.02        2962.50           1389        4482.00     19524.51
 1304.05        2962.75           1392        5891.00     25674.96
 1304.08        2963.00           1396        7934.00     34596.92
 1304.11        2963.25           1399        9382.00     40923.36
 1304.14        2963.50           1402       10938.00     47724.34
 1304.18        2963.75           1406       13059.00     56999.31
 1304.21        2964.00           1409       14552.00     63531.17
 1304.24        2964.25           1412       16286.00     71120.63
 1304.27        2964.50           1416       18432.00     80518.16
 1304.30        2964.75           1419       20127.00     87944.46
 1304.33        2965.00           1422       21523.00     94063.24
 1304.36        2965.25           1426       23663.00    103447.40
 1304.39        2965.50           1429       25103.00    109765.00
 1304.42        2965.75           1432       26642.00    116519.50
 1304.46        2966.00           1436       28714.00    125617.70
 1304.49        2966.25           1439       30033.00    131412.00
 1304.52        2966.50           1442       31489.00    137810.50
 1304.55        2966.75           1446       33078.00    144796.30
 1304.58        2967.00           1449       33392.00    146177.10
 1304.61        2967.25           1452       33320.00    145860.50
 1304.64        2967.50           1456       33464.00    146493.80
 1304.67        2967.75           1459       33428.00    146335.40
 1304.70        2968.00           1462       33124.00    144998.60
 1304.73        2968.25           1466       32127.00    140615.10
 1304.76        2968.50           1469       30694.00    134316.50
 1304.79        2968.75           1472       29308.00    128226.90
 1304.83        2969.00           1476       27351.00    119632.20
 1304.86        2969.25           1479       25852.00    113051.90
 1304.89        2969.50           1482       24311.00    106290.00
 1304.92        2969.75           1486       22332.00     97610.18
 1304.95        2970.00           1489       20804.00     90911.52
 1304.98        2970.25           1492       19380.00     84671.21
 1305.01        2970.50           1496       17246.00     75323.90
 1305.04        2970.75           1499       15707.00     68586.06
 1305.07        2971.00           1502       14288.00     62375.99
 1305.10        2971.25           1506       12042.00     52551.40
 1305.14        2971.50           1509       10355.00     45175.84
 1305.17        2971.75           1513        8429.00     36759.35
 1305.20        2972.00           1516        6934.00     30229.23
 1305.23        2972.25           1519        5518.00     24046.55
 1305.26        2972.50           1523        3454.00     15038.61
 1305.29        2972.75           1526        2080.00      9044.74
 1305.32        2973.00           1529         874.00      3785.52
 1305.35        2973.25           1533         391.00      1679.68
 1305.38        2973.50           1536         297.00      1269.88
 1305.41        2973.75           1539         259.00      1104.22
 1305.45        2974.00           1543         191.00       807.78
 1305.48        2974.25           1546         143.00       598.53
 1305.51        2974.50           1549         115.00       476.47
 1305.54        2974.75           1553          80.00       323.89
 1305.57        2975.00           1556          69.00       275.94
 1305.60        2975.25           1559          69.00       275.94
 1305.63        2975.50           1563          51.00       197.47
 1305.66        2975.75           1566          61.00       241.07
 1305.69        2976.00           1569          48.00       184.40
 1305.72        2976.25           1573          54.00       210.55
 1305.75        2976.50           1576          56.00       219.27
 1305.78        2976.75           1579          51.00       197.47
 1305.81        2977.00           1583          49.00       188.75
 1305.84        2977.25           1586          60.00       236.71
 1305.88        2977.50           1590          50.00       193.11
 1305.91        2977.75           1593          53.00       206.19
 1305.94        2978.00           1596          53.00       206.19
 1305.97        2978.25           1600          51.00       197.47
 1306.00        2978.50           1603          58.00       227.99
 1306.03        2978.75           1606          53.00       206.19
 1306.06        2979.00           1610          54.00       210.55
 1306.09        2979.25           1613          61.00       241.07
 1306.12        2979.50           1616          46.00       175.68
 1306.15        2979.75           1620          58.00       227.99
 1306.18        2980.00           1623          52.00       201.83
 1306.21        2980.25           1626          50.00       193.11
 1306.25        2980.50           1630          53.00       206.19
 1306.28        2980.75           1633          49.00       188.75
 1306.31        2981.00           1637          51.00       197.47
 1306.34        2981.25           1640          47.00       180.04
 1306.37        2981.50           1643          47.00       180.04
 1306.40        2981.75           1647          52.00       201.83
 1306.43        2982.00           1650          54.00       210.55
 1306.46        2982.25           1653          44.00       166.96
 1306.49        2982.50           1657          51.00       197.47
 1306.52        2982.75           1660          60.00       236.71
 1306.55        2983.00           1663          50.00       193.11
 1306.58        2983.25           1667          53.00       206.19
 1306.61        2983.50           1670          49.00       188.75
 1306.64        2983.75           1673          46.00       175.68
 1306.68        2984.00           1677          50.00       193.11
HS scan finished at 21:46:54
end
