************************************************************
  HS Scan of (1) Internal mercury lamp
************************************************************
Integration time is 0.2294 seconds per sample
dh190617Manchester 53.47 2.23 3.126073pr1000
************************************************************
Dead Time -------------------------  3E-08 
Number of Cycles Used -------------  4 
Starting Wavelength (Angstroms) ---  2950 
Final Wavelength (Angstoms) -------  2984 
Wavelength Increment (Angstroms) --  .25 
Filter Wheel #1 Position ---------- (1) Ground quartz diffuser (ND=2.32)
Filter Wheel #2 Position ---------- (1) Neutral Density 0.494



************************************************************
HS scan start time = 01:37:20
Dark Count =  6.4 


Time (GMT)  Wavelength (Ang)  Step Number  Raw Counts  Counts/Second

   97.70        2950.00           1222          43.00       159.55
   97.76        2950.25           1226          37.00       133.39
   97.79        2950.50           1229          37.00       133.39
   97.82        2950.75           1232          42.00       155.19
   97.86        2951.00           1236          37.00       133.39
   97.89        2951.25           1239          45.00       168.27
   97.92        2951.50           1242          46.00       172.63
   97.95        2951.75           1246          38.00       137.75
   97.98        2952.00           1249          38.00       137.75
   98.01        2952.25           1252          51.00       194.42
   98.04        2952.50           1256          35.00       124.67
   98.07        2952.75           1259          38.00       137.75
   98.10        2953.00           1262          43.00       159.55
   98.13        2953.25           1266          41.00       150.83
   98.17        2953.50           1269          44.00       163.91
   98.20        2953.75           1272          37.00       133.39
   98.23        2954.00           1276          43.00       159.55
   98.26        2954.25           1279          40.00       146.47
   98.29        2954.50           1282          40.00       146.47
   98.32        2954.75           1286          40.00       146.47
   98.35        2955.00           1289          40.00       146.47
   98.38        2955.25           1292          41.00       150.83
   98.42        2955.50           1296          37.00       133.39
   98.45        2955.75           1299          49.00       185.70
   98.48        2956.00           1302          36.00       129.03
   98.51        2956.25           1306          42.00       155.19
   98.54        2956.50           1309          41.00       150.83
   98.57        2956.75           1312          44.00       163.91
   98.60        2957.00           1316          52.00       198.78
   98.63        2957.25           1319          40.00       146.47
   98.66        2957.50           1322          40.00       146.47
   98.69        2957.75           1326          37.00       133.39
   98.72        2958.00           1329          44.00       163.91
   98.76        2958.25           1332          50.00       190.06
   98.79        2958.50           1336          51.00       194.42
   98.82        2958.75           1339          44.00       163.91
   98.85        2959.00           1342          39.00       142.11
   98.88        2959.25           1346          40.00       146.47
   98.91        2959.50           1349          54.00       207.50
   98.94        2959.75           1352          75.00       299.04
   98.97        2960.00           1356         130.00       538.81
   99.00        2960.25           1359         162.00       678.31
   99.03        2960.50           1362         213.00       900.63
   99.06        2960.75           1366         302.00      1288.63
   99.10        2961.00           1369         353.00      1510.97
   99.13        2961.25           1372         401.00      1720.23
   99.16        2961.50           1376         521.00      2243.39
   99.19        2961.75           1379         906.00      3922.00
   99.22        2962.00           1382        1827.00      7938.25
   99.25        2962.25           1386        3999.00     17413.63
   99.28        2962.50           1389        5945.00     25907.66
   99.31        2962.75           1392        7793.00     33977.95
   99.35        2963.00           1396       10401.00     45373.84
   99.38        2963.25           1399       12227.00     53357.36
   99.41        2963.50           1402       14278.00     62329.17
   99.44        2963.75           1406       16889.00     73757.62
   99.47        2964.00           1409       18824.00     82232.26
   99.50        2964.25           1412       21314.00     93143.96
   99.53        2964.50           1416       24017.00    104997.20
   99.56        2964.75           1419       25884.00    113189.30
   99.59        2965.00           1422       27875.00    121929.90
   99.63        2965.25           1426       30284.00    132511.80
   99.66        2965.50           1429       32499.00    142247.40
   99.69        2965.75           1432       34058.00    149103.10
   99.72        2966.00           1436       36775.00    161057.90
   99.75        2966.25           1439       38430.00    168344.10
   99.78        2966.50           1442       40206.00    176166.60
   99.81        2966.75           1446       42131.00    184649.50
   99.84        2967.00           1449       42730.00    187290.00
   99.88        2967.25           1452       42782.00    187519.30
   99.91        2967.50           1456       42886.00    187977.80
   99.94        2967.75           1459       42918.00    188118.80
   99.97        2968.00           1462       42447.00    186042.40
  100.00        2968.25           1466       41177.00    180445.00
  100.03        2968.50           1469       39260.00    171999.50
  100.06        2968.75           1472       37470.00    164117.30
  100.09        2969.00           1476       35226.00    154241.30
  100.12        2969.25           1479       33111.00    144938.40
  100.16        2969.50           1482       31093.00    136066.90
  100.19        2969.75           1486       28505.00    124696.70
  100.22        2970.00           1489       26638.00    116498.90
  100.25        2970.25           1492       24556.00    107361.80
  100.28        2970.50           1496       21666.00     94687.08
  100.31        2970.75           1499       19891.00     86907.19
  100.34        2971.00           1502       17959.00     78443.32
  100.37        2971.25           1506       15308.00     66836.59
  100.40        2971.50           1509       13248.00     57822.97
  100.44        2971.75           1513       10727.00     46798.88
  100.47        2972.00           1516        8793.00     38346.62
  100.50        2972.25           1519        6961.00     30344.09
  100.53        2972.50           1523        4315.00     18792.63
  100.56        2972.75           1526        2511.00     10921.63
  100.59        2973.00           1529        1074.00      4654.53
  100.62        2973.25           1533         456.00      1960.01
  100.65        2973.50           1536         344.00      1471.73
  100.68        2973.75           1539         298.00      1271.19
  100.72        2974.00           1543         226.00       957.31
  100.75        2974.25           1546         178.00       748.06
  100.78        2974.50           1549         118.00       486.49
  100.81        2974.75           1553          80.00       320.84
  100.84        2975.00           1556          56.00       216.22
  100.87        2975.25           1559          48.00       181.34
  100.90        2975.50           1563          47.00       176.98
  100.93        2975.75           1566          43.00       159.55
  100.96        2976.00           1569          36.00       129.03
  100.99        2976.25           1573          50.00       190.06
  101.03        2976.50           1576          42.00       155.19
  101.06        2976.75           1579          45.00       168.27
  101.09        2977.00           1583          48.00       181.34
  101.12        2977.25           1586          41.00       150.83
  101.15        2977.50           1590          47.00       176.98
  101.18        2977.75           1593          43.00       159.55
  101.21        2978.00           1596          53.00       203.14
  101.24        2978.25           1600          50.00       190.06
  101.27        2978.50           1603          42.00       155.19
  101.30        2978.75           1606          43.00       159.55
  101.34        2979.00           1610          49.00       185.70
  101.37        2979.25           1613          49.00       185.70
  101.40        2979.50           1616          44.00       163.91
  101.43        2979.75           1620          47.00       176.98
  101.46        2980.00           1623          43.00       159.55
  101.49        2980.25           1626          42.00       155.19
  101.52        2980.50           1630          39.00       142.11
  101.55        2980.75           1633          43.00       159.55
  101.58        2981.00           1637          45.00       168.27
  101.62        2981.25           1640          32.00       111.60
  101.65        2981.50           1643          44.00       163.91
  101.68        2981.75           1647          41.00       150.83
  101.71        2982.00           1650          44.00       163.91
  101.74        2982.25           1653          41.00       150.83
  101.77        2982.50           1657          43.00       159.55
  101.80        2982.75           1660          41.00       150.83
  101.83        2983.00           1663          39.00       142.11
  101.86        2983.25           1667          43.00       159.55
  101.90        2983.50           1670          42.00       155.19
  101.93        2983.75           1673          41.00       150.83
  101.96        2984.00           1677          44.00       163.91
HS scan finished at 01:42:10
end
************************************************************
  HS Scan of (1) Internal mercury lamp
************************************************************
Integration time is 0.2294 seconds per sample
dh190617Manchester 53.47 2.23 3.233369pr1000
************************************************************
Dead Time -------------------------  3E-08 
Number of Cycles Used -------------  4 
Starting Wavelength (Angstroms) ---  2950 
Final Wavelength (Angstoms) -------  2984 
Wavelength Increment (Angstroms) --  .25 
Filter Wheel #1 Position ---------- (1) Ground quartz diffuser (ND=2.32)
Filter Wheel #2 Position ---------- (1) Neutral Density 0.494



************************************************************
HS scan start time = 21:43:20
Dark Count =  6.2 


Time (GMT)  Wavelength (Ang)  Step Number  Raw Counts  Counts/Second

 1303.71        2950.00           1222          41.00       151.70
 1303.78        2950.25           1226          38.00       138.62
 1303.81        2950.50           1229          44.00       164.78
 1303.84        2950.75           1232          39.00       142.98
 1303.87        2951.00           1236          40.00       147.34
 1303.90        2951.25           1239          44.00       164.78
 1303.93        2951.50           1242          38.00       138.62
 1303.96        2951.75           1246          34.00       121.19
 1303.99        2952.00           1249          38.00       138.62
 1304.03        2952.25           1252          49.00       186.57
 1304.06        2952.50           1256          44.00       164.78
 1304.09        2952.75           1259          44.00       164.78
 1304.12        2953.00           1262          49.00       186.57
 1304.15        2953.25           1266          39.00       142.98
 1304.18        2953.50           1269          39.00       142.98
 1304.21        2953.75           1272          39.00       142.98
 1304.24        2954.00           1276          40.00       147.34
 1304.27        2954.25           1279          43.00       160.42
 1304.30        2954.50           1282          40.00       147.34
 1304.33        2954.75           1286          38.00       138.62
 1304.36        2955.00           1289          49.00       186.57
 1304.40        2955.25           1292          41.00       151.70
 1304.43        2955.50           1296          40.00       147.34
 1304.46        2955.75           1299          37.00       134.26
 1304.49        2956.00           1302          47.00       177.86
 1304.52        2956.25           1306          47.00       177.86
 1304.55        2956.50           1309          41.00       151.70
 1304.58        2956.75           1312          37.00       134.26
 1304.61        2957.00           1316          42.00       156.06
 1304.64        2957.25           1319          43.00       160.42
 1304.68        2957.50           1322          46.00       173.50
 1304.71        2957.75           1326          45.00       169.14
 1304.74        2958.00           1329          44.00       164.78
 1304.77        2958.25           1332          53.00       204.01
 1304.80        2958.50           1336          44.00       164.78
 1304.83        2958.75           1339          46.00       173.50
 1304.86        2959.00           1342          38.00       138.62
 1304.89        2959.25           1346          47.00       177.86
 1304.92        2959.50           1349          60.00       234.53
 1304.95        2959.75           1352          72.00       286.84
 1304.98        2960.00           1356         122.00       504.80
 1305.02        2960.25           1359         155.00       648.66
 1305.05        2960.50           1362         213.00       901.51
 1305.08        2960.75           1366         280.00      1193.59
 1305.11        2961.00           1369         343.00      1468.24
 1305.14        2961.25           1372         400.00      1716.74
 1305.17        2961.50           1376         493.00      2122.19
 1305.20        2961.75           1379         671.00      2898.25
 1305.23        2962.00           1382        1187.00      5148.14
 1305.26        2962.25           1386        3084.00     13422.14
 1305.29        2962.50           1389        4996.00     21765.73
 1305.33        2962.75           1392        7015.00     30580.79
 1305.36        2963.00           1396        9626.00     41987.47
 1305.39        2963.25           1399       11682.00     50975.02
 1305.42        2963.50           1402       13621.00     59455.57
 1305.45        2963.75           1406       16759.00     73189.30
 1305.48        2964.00           1409       18571.00     81124.85
 1305.51        2964.25           1412       20544.00     89769.78
 1305.54        2964.50           1416       23473.00    102611.80
 1305.57        2964.75           1419       25479.00    111412.80
 1305.61        2965.00           1422       27687.00    121105.30
 1305.64        2965.25           1426       30603.00    133914.40
 1305.67        2965.50           1429       32848.00    143782.80
 1305.70        2965.75           1432       34839.00    152539.50
 1305.73        2966.00           1436       37866.00    165861.60
 1305.76        2966.25           1439       39675.00    173828.30
 1305.79        2966.50           1442       41702.00    182759.50
 1305.82        2966.75           1446       43516.00    190756.40
 1305.86        2967.00           1449       44290.00    194169.60
 1305.89        2967.25           1452       44341.00    194394.60
 1305.92        2967.50           1456       44334.00    194363.70
 1305.95        2967.75           1459       44314.00    194275.50
 1305.98        2968.00           1462       44257.00    194024.10
 1306.01        2968.25           1466       43416.00    190315.40
 1306.04        2968.50           1469       41710.00    182794.80
 1306.07        2968.75           1472       39804.00    174396.50
 1306.10        2969.00           1476       37187.00    162872.40
 1306.14        2969.25           1479       34954.00    153045.50
 1306.17        2969.50           1482       32747.00    143338.70
 1306.20        2969.75           1486       30337.00    132745.60
 1306.23        2970.00           1489       28477.00    124574.60
 1306.26        2970.25           1492       26168.00    114436.70
 1306.29        2970.50           1496       23728.00    103730.30
 1306.32        2970.75           1499       21771.00     95148.28
 1306.35        2971.00           1502       19607.00     85663.64
 1306.38        2971.25           1506       17003.00     74257.66
 1306.42        2971.50           1509       14979.00     65397.58
 1306.45        2971.75           1513       12238.00     53406.34
 1306.48        2972.00           1516       10260.00     44758.40
 1306.51        2972.25           1519        8104.00     35337.36
 1306.54        2972.50           1523        5354.00     23328.44
 1306.57        2972.75           1526        3399.00     14796.45
 1306.60        2973.00           1529        1732.00      7524.80
 1306.63        2973.25           1533         593.00      2558.17
 1306.66        2973.50           1536         398.00      1708.02
 1306.69        2973.75           1539         334.00      1429.01
 1306.73        2974.00           1543         271.00      1154.36
 1306.76        2974.25           1546         190.00       801.24
 1306.79        2974.50           1549         140.00       583.27
 1306.82        2974.75           1553          90.00       365.30
 1306.85        2975.00           1556          60.00       234.53
 1306.88        2975.25           1559          54.00       208.37
 1306.91        2975.50           1563          38.00       138.62
 1306.94        2975.75           1566          42.00       156.06
 1306.97        2976.00           1569          49.00       186.57
 1307.00        2976.25           1573          41.00       151.70
 1307.03        2976.50           1576          45.00       169.14
 1307.07        2976.75           1579          43.00       160.42
 1307.10        2977.00           1583          48.00       182.22
 1307.13        2977.25           1586          40.00       147.34
 1307.16        2977.50           1590          40.00       147.34
 1307.19        2977.75           1593          45.00       169.14
 1307.22        2978.00           1596          43.00       160.42
 1307.25        2978.25           1600          40.00       147.34
 1307.28        2978.50           1603          52.00       199.65
 1307.31        2978.75           1606          42.00       156.06
 1307.35        2979.00           1610          41.00       151.70
 1307.38        2979.25           1613          38.00       138.62
 1307.41        2979.50           1616          42.00       156.06
 1307.44        2979.75           1620          47.00       177.86
 1307.47        2980.00           1623          42.00       156.06
 1307.50        2980.25           1626          46.00       173.50
 1307.53        2980.50           1630          44.00       164.78
 1307.56        2980.75           1633          38.00       138.62
 1307.59        2981.00           1637          40.00       147.34
 1307.62        2981.25           1640          34.00       121.19
 1307.65        2981.50           1643          38.00       138.62
 1307.68        2981.75           1647          41.00       151.70
 1307.71        2982.00           1650          43.00       160.42
 1307.75        2982.25           1653          38.00       138.62
 1307.78        2982.50           1657          48.00       182.22
 1307.81        2982.75           1660          44.00       164.78
 1307.84        2983.00           1663          43.00       160.42
 1307.87        2983.25           1667          37.00       134.26
 1307.90        2983.50           1670          47.00       177.86
 1307.93        2983.75           1673          37.00       134.26
 1307.96        2984.00           1677          44.00       164.78
HS scan finished at 21:48:11
end
