************************************************************
  HS Scan of (1) Internal mercury lamp
************************************************************
Integration time is 0.2294 seconds per sample
dh270617Manchester 53.47 2.23 2.857833pr1000
************************************************************
Dead Time -------------------------  3E-08 
Number of Cycles Used -------------  4 
Starting Wavelength (Angstroms) ---  2950 
Final Wavelength (Angstoms) -------  2984 
Wavelength Increment (Angstroms) --  .25 
Filter Wheel #1 Position ---------- (1) Ground quartz diffuser (ND=2.32)
Filter Wheel #2 Position ---------- (1) Neutral Density 0.494



************************************************************
HS scan start time = 01:41:06
Dark Count =  8.3 


Time (GMT)  Wavelength (Ang)  Step Number  Raw Counts  Counts/Second

  101.48        2950.00           1222          38.00       129.47
  101.54        2950.25           1226          40.00       138.19
  101.57        2950.50           1229          45.00       159.98
  101.60        2950.75           1232          41.00       142.55
  101.63        2951.00           1236          40.00       138.19
  101.66        2951.25           1239          45.00       159.98
  101.70        2951.50           1242          42.00       146.91
  101.73        2951.75           1246          46.00       164.34
  101.76        2952.00           1249          47.00       168.70
  101.79        2952.25           1252          42.00       146.91
  101.82        2952.50           1256          32.00       103.31
  101.85        2952.75           1259          41.00       142.55
  101.88        2953.00           1262          47.00       168.70
  101.91        2953.25           1266          48.00       173.06
  101.94        2953.50           1269          46.00       164.34
  101.97        2953.75           1272          42.00       146.91
  102.01        2954.00           1276          41.00       142.55
  102.04        2954.25           1279          50.00       181.78
  102.07        2954.50           1282          43.00       151.26
  102.10        2954.75           1286          49.00       177.42
  102.13        2955.00           1289          45.00       159.98
  102.16        2955.25           1292          44.00       155.62
  102.19        2955.50           1296          43.00       151.26
  102.22        2955.75           1299          48.00       173.06
  102.25        2956.00           1302          45.00       159.98
  102.28        2956.25           1306          38.00       129.47
  102.31        2956.50           1309          40.00       138.19
  102.34        2956.75           1312          45.00       159.98
  102.37        2957.00           1316          42.00       146.91
  102.40        2957.25           1319          45.00       159.98
  102.43        2957.50           1322          43.00       151.26
  102.46        2957.75           1326          35.00       116.39
  102.49        2958.00           1329          39.00       133.83
  102.52        2958.25           1332          48.00       173.06
  102.56        2958.50           1336          46.00       164.34
  102.59        2958.75           1339          45.00       159.98
  102.62        2959.00           1342          49.00       177.42
  102.65        2959.25           1346          54.00       199.22
  102.68        2959.50           1349          59.00       221.01
  102.71        2959.75           1352          70.00       268.96
  102.74        2960.00           1356         106.00       425.90
  102.77        2960.25           1359         141.00       578.48
  102.80        2960.50           1362         186.00       774.65
  102.83        2960.75           1366         254.00      1071.09
  102.86        2961.00           1369         294.00      1245.47
  102.90        2961.25           1372         349.00      1485.25
  102.93        2961.50           1376         443.00      1895.05
  102.96        2961.75           1379         777.00      3351.25
  102.99        2962.00           1382        1520.00      6591.10
  103.02        2962.25           1386        3479.00     15136.34
  103.05        2962.50           1389        5188.00     22594.65
  103.08        2962.75           1392        6852.00     29859.78
  103.11        2963.00           1396        8884.00     38735.92
  103.14        2963.25           1399       10597.00     46222.29
  103.18        2963.50           1402       12184.00     53161.01
  103.21        2963.75           1406       14562.00     63563.56
  103.24        2964.00           1409       16150.00     70513.88
  103.27        2964.25           1412       18248.00     79700.80
  103.30        2964.50           1416       20444.00     89322.30
  103.33        2964.75           1419       22165.00     96866.52
  103.36        2965.00           1422       24012.00    104966.90
  103.39        2965.25           1426       26285.00    114941.00
  103.42        2965.50           1429       28060.00    122734.00
  103.45        2965.75           1432       29793.00    130346.10
  103.48        2966.00           1436       32165.00    140770.70
  103.51        2966.25           1439       33606.00    147106.80
  103.54        2966.50           1442       35071.00    153551.00
  103.58        2966.75           1446       36481.00    159755.50
  103.61        2967.00           1449       36579.00    160186.90
  103.64        2967.25           1452       36614.00    160340.90
  103.67        2967.50           1456       36537.00    160002.00
  103.70        2967.75           1459       36507.00    159870.00
  103.73        2968.00           1462       36181.00    158435.20
  103.76        2968.25           1466       34877.00    152697.50
  103.79        2968.50           1469       33680.00    147432.30
  103.82        2968.75           1472       31946.00    139807.90
  103.85        2969.00           1476       29837.00    130539.40
  103.88        2969.25           1479       28208.00    123383.90
  103.92        2969.50           1482       26640.00    116499.30
  103.95        2969.75           1486       24362.00    106502.30
  103.98        2970.00           1489       22811.00     99699.24
  104.01        2970.25           1492       20981.00     91675.94
  104.04        2970.50           1496       18661.00     81509.90
  104.07        2970.75           1499       16877.00     73696.76
  104.10        2971.00           1502       15272.00     66670.71
  104.13        2971.25           1506       12911.00     56340.58
  104.16        2971.50           1509       11097.00     48408.09
  104.19        2971.75           1513        9002.00     39251.52
  104.22        2972.00           1516        7176.00     31274.75
  104.26        2972.25           1519        5602.00     24401.90
  104.29        2972.50           1523        3591.00     15625.02
  104.32        2972.75           1526        2067.00      8976.70
  104.35        2973.00           1529         986.00      4262.53
  104.38        2973.25           1533         429.00      1834.02
  104.41        2973.50           1536         340.00      1446.01
  104.44        2973.75           1539         285.00      1206.23
  104.47        2974.00           1543         236.00       992.62
  104.50        2974.25           1546         149.00       613.35
  104.53        2974.50           1549         117.00       473.85
  104.56        2974.75           1553          76.00       295.12
  104.60        2975.00           1556          66.00       251.53
  104.63        2975.25           1559          59.00       221.01
  104.66        2975.50           1563          48.00       173.06
  104.69        2975.75           1566          45.00       159.98
  104.72        2976.00           1569          45.00       159.98
  104.75        2976.25           1573          40.00       138.19
  104.78        2976.50           1576          38.00       129.47
  104.81        2976.75           1579          53.00       194.86
  104.84        2977.00           1583          44.00       155.62
  104.87        2977.25           1586          41.00       142.55
  104.90        2977.50           1590          55.00       203.58
  104.93        2977.75           1593          44.00       155.62
  104.96        2978.00           1596          46.00       164.34
  105.00        2978.25           1600          53.00       194.86
  105.03        2978.50           1603          43.00       151.26
  105.06        2978.75           1606          51.00       186.14
  105.09        2979.00           1610          49.00       177.42
  105.12        2979.25           1613          41.00       142.55
  105.15        2979.50           1616          44.00       155.62
  105.18        2979.75           1620          38.00       129.47
  105.21        2980.00           1623          41.00       142.55
  105.24        2980.25           1626          46.00       164.34
  105.27        2980.50           1630          38.00       129.47
  105.30        2980.75           1633          43.00       151.26
  105.33        2981.00           1637          45.00       159.98
  105.36        2981.25           1640          46.00       164.34
  105.40        2981.50           1643          41.00       142.55
  105.43        2981.75           1647          43.00       151.26
  105.46        2982.00           1650          41.00       142.55
  105.49        2982.25           1653          38.00       129.47
  105.52        2982.50           1657          48.00       173.06
  105.55        2982.75           1660          46.00       164.34
  105.58        2983.00           1663          52.00       190.50
  105.61        2983.25           1667          45.00       159.98
  105.64        2983.50           1670          37.00       125.11
  105.68        2983.75           1673          39.00       133.83
  105.71        2984.00           1677          44.00       155.62
HS scan finished at 01:45:55
end
************************************************************
  HS Scan of (1) Internal mercury lamp
************************************************************
Integration time is 0.2294 seconds per sample
dh270617Manchester 53.47 2.23 2.857833pr1000
************************************************************
Dead Time -------------------------  3E-08 
Number of Cycles Used -------------  4 
Starting Wavelength (Angstroms) ---  2950 
Final Wavelength (Angstoms) -------  2984 
Wavelength Increment (Angstroms) --  .25 
Filter Wheel #1 Position ---------- (1) Ground quartz diffuser (ND=2.32)
Filter Wheel #2 Position ---------- (1) Neutral Density 0.494



************************************************************
HS scan start time = 21:42:03
Dark Count =  7.3 


Time (GMT)  Wavelength (Ang)  Step Number  Raw Counts  Counts/Second

 1302.42        2950.00           1222          41.00       146.91
 1302.48        2950.25           1226          43.00       155.62
 1302.52        2950.50           1229          40.00       142.55
 1302.55        2950.75           1232          44.00       159.98
 1302.58        2951.00           1236          39.00       138.19
 1302.61        2951.25           1239          48.00       177.42
 1302.64        2951.50           1242          38.00       133.83
 1302.67        2951.75           1246          40.00       142.55
 1302.70        2952.00           1249          45.00       164.34
 1302.73        2952.25           1252          43.00       155.62
 1302.76        2952.50           1256          46.00       168.70
 1302.79        2952.75           1259          47.00       173.06
 1302.82        2953.00           1262          37.00       129.47
 1302.85        2953.25           1266          42.00       151.26
 1302.88        2953.50           1269          52.00       194.86
 1302.91        2953.75           1272          44.00       159.98
 1302.94        2954.00           1276          45.00       164.34
 1302.97        2954.25           1279          41.00       146.91
 1303.01        2954.50           1282          47.00       173.06
 1303.04        2954.75           1286          41.00       146.91
 1303.07        2955.00           1289          50.00       186.14
 1303.10        2955.25           1292          49.00       181.78
 1303.13        2955.50           1296          50.00       186.14
 1303.16        2955.75           1299          48.00       177.42
 1303.19        2956.00           1302          40.00       142.55
 1303.22        2956.25           1306          38.00       133.83
 1303.25        2956.50           1309          46.00       168.70
 1303.28        2956.75           1312          46.00       168.70
 1303.31        2957.00           1316          47.00       173.06
 1303.34        2957.25           1319          43.00       155.62
 1303.38        2957.50           1322          46.00       168.70
 1303.41        2957.75           1326          44.00       159.98
 1303.44        2958.00           1329          40.00       142.55
 1303.47        2958.25           1332          45.00       164.34
 1303.50        2958.50           1336          38.00       133.83
 1303.53        2958.75           1339          42.00       151.26
 1303.56        2959.00           1342          48.00       177.42
 1303.59        2959.25           1346          50.00       186.14
 1303.62        2959.50           1349          56.00       212.29
 1303.65        2959.75           1352          86.00       343.07
 1303.68        2960.00           1356         105.00       425.90
 1303.71        2960.25           1359         161.00       670.02
 1303.74        2960.50           1362         199.00       835.68
 1303.77        2960.75           1366         251.00      1062.37
 1303.81        2961.00           1369         297.00      1262.91
 1303.84        2961.25           1372         355.00      1515.76
 1303.87        2961.50           1376         412.00      1764.26
 1303.90        2961.75           1379         561.00      2413.86
 1303.93        2962.00           1382        1022.00      4423.87
 1303.96        2962.25           1386        2666.00     11593.83
 1303.99        2962.50           1389        4196.00     18269.38
 1304.02        2962.75           1392        5848.00     25480.24
 1304.05        2963.00           1396        8088.00     35262.66
 1304.08        2963.25           1399        9757.00     42555.17
 1304.11        2963.50           1402       11520.00     50261.87
 1304.14        2963.75           1406       13807.00     60264.49
 1304.17        2964.00           1409       15529.00     67799.93
 1304.21        2964.25           1412       17420.00     76078.85
 1304.24        2964.50           1416       19686.00     86004.97
 1304.27        2964.75           1419       21243.00     92828.78
 1304.30        2965.00           1422       23173.00    101291.20
 1304.33        2965.25           1426       25444.00    111254.30
 1304.36        2965.50           1429       27072.00    118400.20
 1304.39        2965.75           1432       28593.00    125079.20
 1304.42        2966.00           1436       30818.00    134854.40
 1304.45        2966.25           1439       32566.00    142538.00
 1304.48        2966.50           1442       34136.00    149442.30
 1304.51        2966.75           1446       36087.00    158025.90
 1304.54        2967.00           1449       36731.00    160860.30
 1304.58        2967.25           1452       36724.00    160829.50
 1304.61        2967.50           1456       36879.00    161511.70
 1304.64        2967.75           1459       36823.00    161265.20
 1304.67        2968.00           1462       36645.00    160481.80
 1304.70        2968.25           1466       36030.00    157775.10
 1304.73        2968.50           1469       34817.00    152437.90
 1304.76        2968.75           1472       33146.00    145088.30
 1304.79        2969.00           1476       30955.00    135456.50
 1304.82        2969.25           1479       29501.00    129067.70
 1304.86        2969.50           1482       27577.00    120617.50
 1304.89        2969.75           1486       25406.00    111087.60
 1304.92        2970.00           1489       23478.00    102628.90
 1304.95        2970.25           1492       21915.00     95774.79
 1304.98        2970.50           1496       19634.00     85777.12
 1305.01        2970.75           1499       18114.00     79118.25
 1305.04        2971.00           1502       16446.00     71814.10
 1305.07        2971.25           1506       14240.00     62158.96
 1305.10        2971.50           1509       12575.00     54875.36
 1305.13        2971.75           1513       10159.00     44312.14
 1305.17        2972.00           1516        8490.00     37018.86
 1305.20        2972.25           1519        6878.00     29977.69
 1305.23        2972.50           1523        4671.00     20342.40
 1305.26        2972.75           1526        3024.00     13155.58
 1305.29        2973.00           1529        1609.00      6983.59
 1305.32        2973.25           1533         536.00      2304.87
 1305.35        2973.50           1536         336.00      1432.93
 1305.38        2973.75           1539         263.00      1114.68
 1305.41        2974.00           1543         218.00       918.51
 1305.44        2974.25           1546         141.00       582.83
 1305.47        2974.50           1549         112.00       456.41
 1305.50        2974.75           1553          75.00       295.12
 1305.53        2975.00           1556          60.00       229.73
 1305.56        2975.25           1559          54.00       203.58
 1305.59        2975.50           1563          48.00       177.42
 1305.63        2975.75           1566          49.00       181.78
 1305.66        2976.00           1569          50.00       186.14
 1305.69        2976.25           1573          42.00       151.26
 1305.72        2976.50           1576          47.00       173.06
 1305.75        2976.75           1579          40.00       142.55
 1305.78        2977.00           1583          47.00       173.06
 1305.81        2977.25           1586          41.00       146.91
 1305.84        2977.50           1590          45.00       164.34
 1305.87        2977.75           1593          44.00       159.98
 1305.90        2978.00           1596          50.00       186.14
 1305.93        2978.25           1600          48.00       177.42
 1305.96        2978.50           1603          47.00       173.06
 1306.00        2978.75           1606          47.00       173.06
 1306.03        2979.00           1610          43.00       155.62
 1306.06        2979.25           1613          44.00       159.98
 1306.09        2979.50           1616          45.00       164.34
 1306.12        2979.75           1620          43.00       155.62
 1306.15        2980.00           1623          41.00       146.91
 1306.18        2980.25           1626          49.00       181.78
 1306.21        2980.50           1630          47.00       173.06
 1306.24        2980.75           1633          52.00       194.86
 1306.27        2981.00           1637          40.00       142.55
 1306.30        2981.25           1640          51.00       190.50
 1306.33        2981.50           1643          46.00       168.70
 1306.36        2981.75           1647          37.00       129.47
 1306.39        2982.00           1650          44.00       159.98
 1306.42        2982.25           1653          45.00       164.34
 1306.46        2982.50           1657          44.00       159.98
 1306.49        2982.75           1660          42.00       151.26
 1306.52        2983.00           1663          38.00       133.83
 1306.55        2983.25           1667          45.00       164.34
 1306.58        2983.50           1670          45.00       164.34
 1306.61        2983.75           1673          37.00       129.47
 1306.64        2984.00           1677          41.00       146.91
HS scan finished at 21:46:51
end
