************************************************************
  HS Scan of (1) Internal mercury lamp
************************************************************
Integration time is 0.2294 seconds per sample
dh200619El Arenosillo 37.1 6.73 2.965129pr1000
************************************************************
Dead Time -------------------------  3E-08 
Number of Cycles Used -------------  4 
Starting Wavelength (Angstroms) ---  2950 
Final Wavelength (Angstoms) -------  2984 
Wavelength Increment (Angstroms) --  .25 
Filter Wheel #1 Position ---------- (1) Ground quartz diffuser (ND=2.32)
Filter Wheel #2 Position ---------- (1) Neutral Density 0.494



************************************************************
HS scan start time = 02:07:50
Dark Count =  6.7 


Time (GMT)  Wavelength (Ang)  Step Number  Raw Counts  Counts/Second

  128.21        2950.00           1222          57.00       219.27
  128.27        2950.25           1226          61.00       236.71
  128.30        2950.50           1229          61.00       236.71
  128.33        2950.75           1232          57.00       219.27
  128.37        2951.00           1236          54.00       206.19
  128.40        2951.25           1239          55.00       210.55
  128.43        2951.50           1242          52.00       197.47
  128.46        2951.75           1246          56.00       214.91
  128.49        2952.00           1249          63.00       245.42
  128.52        2952.25           1252          58.00       223.63
  128.55        2952.50           1256          55.00       210.55
  128.58        2952.75           1259          59.00       227.99
  128.61        2953.00           1262          54.00       206.19
  128.64        2953.25           1266          55.00       210.55
  128.67        2953.50           1269          56.00       214.91
  128.70        2953.75           1272          55.00       210.55
  128.74        2954.00           1276          48.00       180.04
  128.77        2954.25           1279          58.00       223.63
  128.80        2954.50           1282          55.00       210.55
  128.83        2954.75           1286          64.00       249.78
  128.86        2955.00           1289          67.00       262.86
  128.89        2955.25           1292          56.00       214.91
  128.92        2955.50           1296          53.00       201.83
  128.95        2955.75           1299          50.00       188.75
  128.98        2956.00           1302          57.00       219.27
  129.01        2956.25           1306          53.00       201.83
  129.05        2956.50           1309          49.00       184.40
  129.08        2956.75           1312          48.00       180.04
  129.11        2957.00           1316          57.00       219.27
  129.14        2957.25           1319          47.00       175.68
  129.17        2957.50           1322          61.00       236.71
  129.20        2957.75           1326          61.00       236.71
  129.23        2958.00           1329          56.00       214.91
  129.26        2958.25           1332          61.00       236.71
  129.29        2958.50           1336          52.00       197.47
  129.32        2958.75           1339          53.00       201.83
  129.35        2959.00           1342          51.00       193.11
  129.38        2959.25           1346          58.00       223.63
  129.41        2959.50           1349          64.00       249.78
  129.45        2959.75           1352          71.00       280.30
  129.48        2960.00           1356          90.00       363.13
  129.51        2960.25           1359         108.00       441.59
  129.54        2960.50           1362         137.00       568.01
  129.57        2960.75           1366         201.00       847.01
  129.60        2961.00           1369         220.00       929.84
  129.63        2961.25           1372         271.00      1152.18
  129.66        2961.50           1376         324.00      1383.23
  129.69        2961.75           1379         466.00      2002.30
  129.73        2962.00           1382        1112.00      4818.92
  129.76        2962.25           1386        2679.00     11653.16
  129.79        2962.50           1389        3997.00     17403.59
  129.82        2962.75           1392        5218.00     22732.59
  129.85        2963.00           1396        7005.00     30534.93
  129.88        2963.25           1399        8303.00     36204.52
  129.91        2963.50           1402        9438.00     41163.71
  129.94        2963.75           1406       11258.00     49118.97
  129.97        2964.00           1409       12551.00     54773.01
  130.00        2964.25           1412       13938.00     60840.24
  130.03        2964.50           1416       15777.00     68888.08
  130.06        2964.75           1419       16970.00     74110.98
  130.10        2965.00           1422       18255.00     79738.47
  130.13        2965.25           1426       20025.00     87493.08
  130.16        2965.50           1429       21438.00     93686.22
  130.19        2965.75           1432       22704.00     99237.03
  130.22        2966.00           1436       24318.00    106316.30
  130.25        2966.25           1439       25610.00    111985.50
  130.28        2966.50           1442       26997.00    118073.60
  130.31        2966.75           1446       28112.00    122969.40
  130.35        2967.00           1449       28118.00    122995.70
  130.38        2967.25           1452       28126.00    123030.90
  130.41        2967.50           1456       28132.00    123057.20
  130.44        2967.75           1459       28221.00    123448.10
  130.47        2968.00           1462       27859.00    121858.40
  130.50        2968.25           1466       26780.00    117120.90
  130.53        2968.50           1469       25756.00    112626.20
  130.56        2968.75           1472       24541.00    107294.70
  130.59        2969.00           1476       22775.00     99548.39
  130.62        2969.25           1479       21521.00     94050.09
  130.66        2969.50           1482       20227.00     88378.31
  130.69        2969.75           1486       18254.00     79734.10
  130.72        2970.00           1489       17167.00     74973.60
  130.75        2970.25           1492       16029.00     69991.18
  130.78        2970.50           1496       14274.00     62310.36
  130.81        2970.75           1499       13015.00     56802.47
  130.84        2971.00           1502       11660.00     50876.64
  130.87        2971.25           1506        9996.00     43602.33
  130.90        2971.50           1509        8662.00     37772.94
  130.93        2971.75           1513        6976.00     30408.29
  130.96        2972.00           1516        5707.00     24867.28
  131.00        2972.25           1519        4319.00     18808.78
  131.03        2972.50           1523        2643.00     11496.12
  131.06        2972.75           1526        1521.00      6602.44
  131.09        2973.00           1529         623.00      2686.79
  131.12        2973.25           1533         345.00      1474.78
  131.15        2973.50           1536         259.00      1099.86
  131.18        2973.75           1539         233.00       986.52
  131.21        2974.00           1543         180.00       755.47
  131.24        2974.25           1546         143.00       594.17
  131.27        2974.50           1549         111.00       454.67
  131.30        2974.75           1553          82.00       328.25
  131.34        2975.00           1556          72.00       284.66
  131.37        2975.25           1559          55.00       210.55
  131.40        2975.50           1563          56.00       214.91
  131.43        2975.75           1566          61.00       236.71
  131.46        2976.00           1569          56.00       214.91
  131.49        2976.25           1573          50.00       188.75
  131.52        2976.50           1576          53.00       201.83
  131.55        2976.75           1579          47.00       175.68
  131.58        2977.00           1583          60.00       232.35
  131.61        2977.25           1586          54.00       206.19
  131.64        2977.50           1590          55.00       210.55
  131.67        2977.75           1593          49.00       184.40
  131.70        2978.00           1596          46.00       171.32
  131.73        2978.25           1600          67.00       262.86
  131.77        2978.50           1603          54.00       206.19
  131.80        2978.75           1606          53.00       201.83
  131.83        2979.00           1610          51.00       193.11
  131.86        2979.25           1613          46.00       171.32
  131.89        2979.50           1616          56.00       214.91
  131.92        2979.75           1620          56.00       214.91
  131.95        2980.00           1623          46.00       171.32
  131.98        2980.25           1626          47.00       175.68
  132.01        2980.50           1630          52.00       197.47
  132.04        2980.75           1633          46.00       171.32
  132.07        2981.00           1637          55.00       210.55
  132.10        2981.25           1640          44.00       162.60
  132.14        2981.50           1643          46.00       171.32
  132.17        2981.75           1647          50.00       188.75
  132.20        2982.00           1650          43.00       158.24
  132.23        2982.25           1653          52.00       197.47
  132.26        2982.50           1657          46.00       171.32
  132.29        2982.75           1660          50.00       188.75
  132.32        2983.00           1663          53.00       201.83
  132.35        2983.25           1667          40.00       145.16
  132.38        2983.50           1670          46.00       171.32
  132.41        2983.75           1673          52.00       197.47
  132.44        2984.00           1677          46.00       171.32
HS scan finished at 02:12:40
end
************************************************************
  HS Scan of (1) Internal mercury lamp
************************************************************
Integration time is 0.2294 seconds per sample
dh200619El Arenosillo 37.1 6.73 3.072425pr1000
************************************************************
Dead Time -------------------------  3E-08 
Number of Cycles Used -------------  4 
Starting Wavelength (Angstroms) ---  2950 
Final Wavelength (Angstoms) -------  2984 
Wavelength Increment (Angstroms) --  .25 
Filter Wheel #1 Position ---------- (1) Ground quartz diffuser (ND=2.32)
Filter Wheel #2 Position ---------- (1) Neutral Density 0.494



************************************************************
HS scan start time = 21:54:14
Dark Count =  6.6 


Time (GMT)  Wavelength (Ang)  Step Number  Raw Counts  Counts/Second

 1314.60        2950.00           1222          55.00       210.99
 1314.67        2950.25           1226          59.00       228.42
 1314.70        2950.50           1229          57.00       219.71
 1314.73        2950.75           1232          52.00       197.91
 1314.76        2951.00           1236          47.00       176.11
 1314.79        2951.25           1239          56.00       215.35
 1314.82        2951.50           1242          53.00       202.27
 1314.85        2951.75           1246          55.00       210.99
 1314.89        2952.00           1249          57.00       219.71
 1314.92        2952.25           1252          48.00       180.47
 1314.95        2952.50           1256          54.00       206.63
 1314.98        2952.75           1259          52.00       197.91
 1315.01        2953.00           1262          48.00       180.47
 1315.04        2953.25           1266          54.00       206.63
 1315.07        2953.50           1269          54.00       206.63
 1315.10        2953.75           1272          53.00       202.27
 1315.13        2954.00           1276          61.00       237.14
 1315.16        2954.25           1279          55.00       210.99
 1315.19        2954.50           1282          49.00       184.83
 1315.22        2954.75           1286          57.00       219.71
 1315.26        2955.00           1289          59.00       228.42
 1315.29        2955.25           1292          54.00       206.63
 1315.32        2955.50           1296          57.00       219.71
 1315.35        2955.75           1299          43.00       158.68
 1315.38        2956.00           1302          56.00       215.35
 1315.41        2956.25           1306          52.00       197.91
 1315.44        2956.50           1309          59.00       228.42
 1315.47        2956.75           1312          46.00       171.75
 1315.50        2957.00           1316          47.00       176.11
 1315.53        2957.25           1319          56.00       215.35
 1315.56        2957.50           1322          56.00       215.35
 1315.59        2957.75           1326          60.00       232.78
 1315.63        2958.00           1329          61.00       237.14
 1315.66        2958.25           1332          59.00       228.42
 1315.69        2958.50           1336          58.00       224.06
 1315.72        2958.75           1339          56.00       215.35
 1315.75        2959.00           1342          58.00       224.06
 1315.78        2959.25           1346          61.00       237.14
 1315.81        2959.50           1349          68.00       267.66
 1315.84        2959.75           1352          74.00       293.81
 1315.87        2960.00           1356          92.00       372.28
 1315.90        2960.25           1359         130.00       537.93
 1315.93        2960.50           1362         163.00       681.79
 1315.97        2960.75           1366         217.00       917.20
 1316.00        2961.00           1369         246.00      1043.62
 1316.03        2961.25           1372         268.00      1139.53
 1316.06        2961.50           1376         351.00      1501.38
 1316.09        2961.75           1379         479.00      2059.41
 1316.12        2962.00           1382        1041.00      4509.76
 1316.15        2962.25           1386        2587.00     11252.27
 1316.18        2962.50           1389        3940.00     17155.30
 1316.21        2962.75           1392        5280.00     23003.67
 1316.24        2963.00           1396        7203.00     31400.10
 1316.28        2963.25           1399        8693.00     37908.83
 1316.31        2963.50           1402       10023.00     43720.78
 1316.34        2963.75           1406       11858.00     51742.86
 1316.37        2964.00           1409       13343.00     58237.67
 1316.40        2964.25           1412       14672.00     64052.35
 1316.43        2964.50           1416       16524.00     72158.66
 1316.46        2964.75           1419       17782.00     77667.25
 1316.49        2965.00           1422       19077.00     83339.75
 1316.52        2965.25           1426       21178.00     92546.92
 1316.55        2965.50           1429       22429.00     98031.56
 1316.59        2965.75           1432       23857.00    104294.40
 1316.62        2966.00           1436       25749.00    112595.90
 1316.65        2966.25           1439       27125.00    118636.00
 1316.68        2966.50           1442       28456.00    124480.60
 1316.71        2966.75           1446       29905.00    130845.70
 1316.74        2967.00           1449       30244.00    132335.10
 1316.77        2967.25           1452       30129.00    131829.90
 1316.80        2967.50           1456       30208.00    132177.00
 1316.83        2967.75           1459       30284.00    132510.90
 1316.86        2968.00           1462       30100.00    131702.40
 1316.90        2968.25           1466       29140.00    127484.90
 1316.93        2968.50           1469       28005.00    122499.90
 1316.96        2968.75           1472       26736.00    116928.20
 1316.99        2969.00           1476       24796.00    108414.00
 1317.02        2969.25           1479       23356.00    102096.90
 1317.05        2969.50           1482       22165.00     96873.99
 1317.08        2969.75           1486       20242.00     88444.48
 1317.11        2970.00           1489       18771.00     81999.21
 1317.14        2970.25           1492       17559.00     76690.63
 1317.18        2970.50           1496       15725.00     68660.90
 1317.21        2970.75           1499       14419.00     62945.26
 1317.24        2971.00           1502       13199.00     57607.76
 1317.27        2971.25           1506       11259.00     49123.79
 1317.30        2971.50           1509        9674.00     42195.50
 1317.33        2971.75           1513        7890.00     34400.79
 1317.36        2972.00           1516        6561.00     28596.45
 1317.39        2972.25           1519        5109.00     22257.23
 1317.42        2972.50           1523        3350.00     14580.92
 1317.46        2972.75           1526        1990.00      8648.28
 1317.49        2973.00           1529         854.00      3694.39
 1317.52        2973.25           1533         363.00      1553.69
 1317.55        2973.50           1536         264.00      1122.10
 1317.58        2973.75           1539         260.00      1104.66
 1317.61        2974.00           1543         207.00       873.61
 1317.64        2974.25           1546         163.00       681.79
 1317.67        2974.50           1549         112.00       459.47
 1317.70        2974.75           1553          92.00       372.28
 1317.73        2975.00           1556          64.00       250.22
 1317.76        2975.25           1559          59.00       228.42
 1317.79        2975.50           1563          52.00       197.91
 1317.82        2975.75           1566          53.00       202.27
 1317.85        2976.00           1569          55.00       210.99
 1317.89        2976.25           1573          52.00       197.91
 1317.92        2976.50           1576          51.00       193.55
 1317.95        2976.75           1579          50.00       189.19
 1317.98        2977.00           1583          49.00       184.83
 1318.01        2977.25           1586          49.00       184.83
 1318.04        2977.50           1590          46.00       171.75
 1318.07        2977.75           1593          53.00       202.27
 1318.10        2978.00           1596          50.00       189.19
 1318.13        2978.25           1600          57.00       219.71
 1318.16        2978.50           1603          58.00       224.06
 1318.19        2978.75           1606          54.00       206.63
 1318.22        2979.00           1610          50.00       189.19
 1318.26        2979.25           1613          49.00       184.83
 1318.29        2979.50           1616          53.00       202.27
 1318.32        2979.75           1620          49.00       184.83
 1318.35        2980.00           1623          53.00       202.27
 1318.38        2980.25           1626          55.00       210.99
 1318.41        2980.50           1630          51.00       193.55
 1318.44        2980.75           1633          56.00       215.35
 1318.47        2981.00           1637          49.00       184.83
 1318.50        2981.25           1640          53.00       202.27
 1318.53        2981.50           1643          55.00       210.99
 1318.56        2981.75           1647          53.00       202.27
 1318.60        2982.00           1650          51.00       193.55
 1318.63        2982.25           1653          52.00       197.91
 1318.66        2982.50           1657          49.00       184.83
 1318.69        2982.75           1660          62.00       241.50
 1318.72        2983.00           1663          49.00       184.83
 1318.75        2983.25           1667          47.00       176.11
 1318.78        2983.50           1670          44.00       163.03
 1318.81        2983.75           1673          49.00       184.83
 1318.84        2984.00           1677          49.00       184.83
HS scan finished at 21:59:04
end
