************************************************************
  HS Scan of (1) Internal mercury lamp
************************************************************
Integration time is 0.2294 seconds per sample
dh270619El Arenosillo 37.1 6.73 3.018777pr1000
************************************************************
Dead Time -------------------------  3E-08 
Number of Cycles Used -------------  4 
Starting Wavelength (Angstroms) ---  2950 
Final Wavelength (Angstoms) -------  2984 
Wavelength Increment (Angstroms) --  .25 
Filter Wheel #1 Position ---------- (1) Ground quartz diffuser (ND=2.32)
Filter Wheel #2 Position ---------- (1) Neutral Density 0.494



************************************************************
HS scan start time = 02:19:31
Dark Count =  4.7 


Time (GMT)  Wavelength (Ang)  Step Number  Raw Counts  Counts/Second

  139.88        2950.00           1222          51.00       201.83
  139.95        2950.25           1226          53.00       210.55
  139.98        2950.50           1229          57.00       227.99
  140.01        2950.75           1232          51.00       201.83
  140.04        2951.00           1236          53.00       210.55
  140.07        2951.25           1239          60.00       241.07
  140.10        2951.50           1242          55.00       219.27
  140.13        2951.75           1246          47.00       184.40
  140.16        2952.00           1249          60.00       241.07
  140.20        2952.25           1252          46.00       180.04
  140.23        2952.50           1256          55.00       219.27
  140.26        2952.75           1259          53.00       210.55
  140.29        2953.00           1262          47.00       184.40
  140.32        2953.25           1266          55.00       219.27
  140.35        2953.50           1269          52.00       206.19
  140.38        2953.75           1272          50.00       197.47
  140.41        2954.00           1276          43.00       166.96
  140.44        2954.25           1279          54.00       214.91
  140.47        2954.50           1282          54.00       214.91
  140.50        2954.75           1286          54.00       214.91
  140.53        2955.00           1289          54.00       214.91
  140.56        2955.25           1292          50.00       197.47
  140.59        2955.50           1296          55.00       219.27
  140.62        2955.75           1299          55.00       219.27
  140.66        2956.00           1302          58.00       232.35
  140.69        2956.25           1306          51.00       201.83
  140.72        2956.50           1309          55.00       219.27
  140.75        2956.75           1312          52.00       206.19
  140.78        2957.00           1316          58.00       232.35
  140.81        2957.25           1319          59.00       236.71
  140.84        2957.50           1322          60.00       241.07
  140.87        2957.75           1326          55.00       219.27
  140.90        2958.00           1329          52.00       206.19
  140.93        2958.25           1332          55.00       219.27
  140.97        2958.50           1336          54.00       214.91
  141.00        2958.75           1339          60.00       241.07
  141.03        2959.00           1342          59.00       236.71
  141.06        2959.25           1346          56.00       223.63
  141.09        2959.50           1349          57.00       227.99
  141.12        2959.75           1352          76.00       310.81
  141.15        2960.00           1356         105.00       437.23
  141.18        2960.25           1359         138.00       581.09
  141.21        2960.50           1362         161.00       681.36
  141.24        2960.75           1366         200.00       851.37
  141.27        2961.00           1369         239.00      1021.39
  141.31        2961.25           1372         292.00      1252.44
  141.34        2961.50           1376         352.00      1514.02
  141.37        2961.75           1379         612.00      2647.55
  141.40        2962.00           1382        1457.00      6332.07
  141.43        2962.25           1386        3099.00     13494.13
  141.46        2962.50           1389        4420.00     19258.29
  141.49        2962.75           1392        5670.00     24714.48
  141.52        2963.00           1396        7411.00     32316.85
  141.55        2963.25           1399        8696.00     37930.24
  141.58        2963.50           1402        9978.00     43532.40
  141.61        2963.75           1406       11808.00     51532.53
  141.65        2964.00           1409       12916.00     56378.19
  141.68        2964.25           1412       14377.00     62769.79
  141.71        2964.50           1416       16121.00     70402.68
  141.74        2964.75           1419       17429.00     76129.66
  141.77        2965.00           1422       18742.00     81880.49
  141.80        2965.25           1426       20334.00     88855.99
  141.83        2965.50           1429       21974.00     96044.87
  141.86        2965.75           1432       23369.00    102162.30
  141.89        2966.00           1436       24965.00    109163.80
  141.93        2966.25           1439       26086.00    114083.30
  141.96        2966.50           1442       27502.00    120299.60
  141.99        2966.75           1446       28444.00    124436.20
  142.02        2967.00           1449       28601.00    125125.80
  142.05        2967.25           1452       28543.00    124871.00
  142.08        2967.50           1456       28511.00    124730.50
  142.11        2967.75           1459       28497.00    124669.00
  142.14        2968.00           1462       28281.00    123720.40
  142.17        2968.25           1466       27209.00    119013.10
  142.21        2968.50           1469       25820.00    112915.90
  142.24        2968.75           1472       24639.00    107733.40
  142.27        2969.00           1476       22859.00     99925.53
  142.30        2969.25           1479       21564.00     94247.36
  142.33        2969.50           1482       20102.00     87839.29
  142.36        2969.75           1486       18468.00     80680.23
  142.39        2970.00           1489       17283.00     75490.30
  142.42        2970.25           1492       16057.00     70122.52
  142.45        2970.50           1496       14383.00     62796.05
  142.48        2970.75           1499       13078.00     57086.79
  142.52        2971.00           1502       11734.00     51208.95
  142.55        2971.25           1506        9845.00     42951.13
  142.58        2971.50           1509        8463.00     36912.26
  142.61        2971.75           1513        6749.00     29425.70
  142.64        2972.00           1516        5536.00     24129.49
  142.67        2972.25           1519        4209.00     18337.46
  142.70        2972.50           1523        2448.00     10654.24
  142.73        2972.75           1526        1211.00      5259.33
  142.76        2973.00           1529         548.00      2368.52
  142.79        2973.25           1533         322.00      1383.23
  142.82        2973.50           1536         276.00      1182.69
  142.86        2973.75           1539         246.00      1051.91
  142.89        2974.00           1543         197.00       838.29
  142.92        2974.25           1546         150.00       633.40
  142.95        2974.50           1549         110.00       459.03
  142.98        2974.75           1553          88.00       363.13
  143.01        2975.00           1556          68.00       275.94
  143.04        2975.25           1559          57.00       227.99
  143.07        2975.50           1563          55.00       219.27
  143.10        2975.75           1566          55.00       219.27
  143.14        2976.00           1569          58.00       232.35
  143.17        2976.25           1573          54.00       214.91
  143.20        2976.50           1576          54.00       214.91
  143.23        2976.75           1579          50.00       197.47
  143.26        2977.00           1583          53.00       210.55
  143.29        2977.25           1586          52.00       206.19
  143.32        2977.50           1590          52.00       206.19
  143.35        2977.75           1593          55.00       219.27
  143.38        2978.00           1596          52.00       206.19
  143.41        2978.25           1600          56.00       223.63
  143.44        2978.50           1603          52.00       206.19
  143.48        2978.75           1606          51.00       201.83
  143.51        2979.00           1610          49.00       193.11
  143.54        2979.25           1613          51.00       201.83
  143.57        2979.50           1616          47.00       184.40
  143.60        2979.75           1620          50.00       197.47
  143.63        2980.00           1623          43.00       166.96
  143.66        2980.25           1626          43.00       166.96
  143.69        2980.50           1630          43.00       166.96
  143.72        2980.75           1633          51.00       201.83
  143.75        2981.00           1637          51.00       201.83
  143.78        2981.25           1640          53.00       210.55
  143.81        2981.50           1643          45.00       175.68
  143.84        2981.75           1647          43.00       166.96
  143.88        2982.00           1650          49.00       193.11
  143.91        2982.25           1653          50.00       197.47
  143.94        2982.50           1657          49.00       193.11
  143.97        2982.75           1660          48.00       188.75
  144.00        2983.00           1663          49.00       193.11
  144.03        2983.25           1667          48.00       188.75
  144.06        2983.50           1670          43.00       166.96
  144.09        2983.75           1673          53.00       210.55
  144.12        2984.00           1677          52.00       206.19
HS scan finished at 02:24:20
end
