************************************************************
  HS Scan of (1) Internal mercury lamp
************************************************************
Integration time is 0.2294 seconds per sample
dh280618Manchester 53.47 2.23 3.179721pr1000
************************************************************
Dead Time -------------------------  3E-08 
Number of Cycles Used -------------  4 
Starting Wavelength (Angstroms) ---  2950 
Final Wavelength (Angstoms) -------  2984 
Wavelength Increment (Angstroms) --  .25 
Filter Wheel #1 Position ---------- (1) Ground quartz diffuser (ND=2.32)
Filter Wheel #2 Position ---------- (1) Neutral Density 0.494



************************************************************
HS scan start time = 21:43:22
Dark Count =  6.7 


Time (GMT)  Wavelength (Ang)  Step Number  Raw Counts  Counts/Second

 1303.73        2950.00           1222          50.00       188.75
 1303.80        2950.25           1226          54.00       206.19
 1303.83        2950.50           1229          55.00       210.55
 1303.86        2950.75           1232          53.00       201.83
 1303.89        2951.00           1236          57.00       219.27
 1303.92        2951.25           1239          50.00       188.75
 1303.96        2951.50           1242          55.00       210.55
 1303.99        2951.75           1246          57.00       219.27
 1304.02        2952.00           1249          52.00       197.47
 1304.05        2952.25           1252          47.00       175.68
 1304.08        2952.50           1256          49.00       184.40
 1304.11        2952.75           1259          54.00       206.19
 1304.14        2953.00           1262          51.00       193.11
 1304.17        2953.25           1266          53.00       201.83
 1304.20        2953.50           1269          49.00       184.40
 1304.23        2953.75           1272          51.00       193.11
 1304.26        2954.00           1276          54.00       206.19
 1304.30        2954.25           1279          51.00       193.11
 1304.33        2954.50           1282          52.00       197.47
 1304.36        2954.75           1286          50.00       188.75
 1304.39        2955.00           1289          54.00       206.19
 1304.42        2955.25           1292          55.00       210.55
 1304.45        2955.50           1296          53.00       201.83
 1304.48        2955.75           1299          53.00       201.83
 1304.51        2956.00           1302          54.00       206.19
 1304.54        2956.25           1306          54.00       206.19
 1304.58        2956.50           1309          57.00       219.27
 1304.61        2956.75           1312          57.00       219.27
 1304.64        2957.00           1316          56.00       214.91
 1304.67        2957.25           1319          53.00       201.83
 1304.70        2957.50           1322          55.00       210.55
 1304.73        2957.75           1326          56.00       214.91
 1304.76        2958.00           1329          49.00       184.40
 1304.79        2958.25           1332          52.00       197.47
 1304.82        2958.50           1336          58.00       223.63
 1304.86        2958.75           1339          48.00       180.04
 1304.89        2959.00           1342          64.00       249.78
 1304.92        2959.25           1346          61.00       236.71
 1304.95        2959.50           1349          55.00       210.55
 1304.98        2959.75           1352          79.00       315.17
 1305.01        2960.00           1356          97.00       393.64
 1305.04        2960.25           1359         144.00       598.53
 1305.07        2960.50           1362         166.00       694.43
 1305.10        2960.75           1366         226.00       956.00
 1305.13        2961.00           1369         264.00      1121.66
 1305.16        2961.25           1372         307.00      1309.12
 1305.20        2961.50           1376         369.00      1579.41
 1305.23        2961.75           1379         538.00      2316.20
 1305.26        2962.00           1382        1132.00      4906.13
 1305.29        2962.25           1386        2837.00     12342.41
 1305.32        2962.50           1389        4467.00     19454.68
 1305.35        2962.75           1392        6169.00     26884.36
 1305.38        2963.00           1396        8211.00     35802.60
 1305.41        2963.25           1399        9666.00     42160.10
 1305.44        2963.50           1402       11214.00     48926.60
 1305.48        2963.75           1406       13401.00     58490.96
 1305.51        2964.00           1409       14863.00     64887.74
 1305.54        2964.25           1412       16466.00     71904.29
 1305.57        2964.50           1416       18700.00     81687.75
 1305.60        2964.75           1419       20332.00     88838.46
 1305.63        2965.00           1422       22107.00     96619.24
 1305.66        2965.25           1426       24052.00    105149.40
 1305.69        2965.50           1429       25602.00    111950.40
 1305.72        2965.75           1432       27162.00    118798.00
 1305.76        2966.00           1436       29338.00    128354.20
 1305.79        2966.25           1439       30988.00    135604.20
 1305.82        2966.50           1442       32592.00    142655.00
 1305.85        2966.75           1446       34190.00    149682.40
 1305.88        2967.00           1449       34534.00    151195.60
 1305.91        2967.25           1452       34533.00    151191.20
 1305.94        2967.50           1456       34566.00    151336.40
 1305.97        2967.75           1459       34656.00    151732.30
 1306.00        2968.00           1462       34294.00    150139.90
 1306.04        2968.25           1466       33515.00    146713.60
 1306.07        2968.50           1469       32067.00    140346.90
 1306.10        2968.75           1472       30705.00    134360.50
 1306.13        2969.00           1476       28684.00    125481.50
 1306.16        2969.25           1479       27151.00    118749.70
 1306.19        2969.50           1482       25618.00    112020.60
 1306.22        2969.75           1486       23538.00    102894.70
 1306.25        2970.00           1489       21863.00     95549.44
 1306.28        2970.25           1492       20086.00     87760.41
 1306.31        2970.50           1496       18084.00     78989.50
 1306.35        2970.75           1499       16521.00     72145.10
 1306.38        2971.00           1502       14845.00     64808.98
 1306.41        2971.25           1506       12949.00     56513.78
 1306.44        2971.50           1509       11237.00     49027.16
 1306.47        2971.75           1513        9199.00     40119.31
 1306.50        2972.00           1516        7787.00     33950.43
 1306.53        2972.25           1519        6121.00     26674.78
 1306.56        2972.50           1523        3997.00     17403.59
 1306.59        2972.75           1526        2557.00     11120.97
 1306.63        2973.00           1529        1161.00      5032.58
 1306.66        2973.25           1533         443.00      1902.03
 1306.69        2973.50           1536         326.00      1391.95
 1306.72        2973.75           1539         284.00      1208.85
 1306.75        2974.00           1543         233.00       986.52
 1306.78        2974.25           1546         161.00       672.64
 1306.81        2974.50           1549         127.00       524.42
 1306.84        2974.75           1553          74.00       293.38
 1306.87        2975.00           1556          63.00       245.42
 1306.91        2975.25           1559          59.00       227.99
 1306.94        2975.50           1563          50.00       188.75
 1306.97        2975.75           1566          55.00       210.55
 1307.00        2976.00           1569          52.00       197.47
 1307.03        2976.25           1573          54.00       206.19
 1307.06        2976.50           1576          55.00       210.55
 1307.09        2976.75           1579          53.00       201.83
 1307.12        2977.00           1583          51.00       193.11
 1307.15        2977.25           1586          55.00       210.55
 1307.18        2977.50           1590          47.00       175.68
 1307.21        2977.75           1593          51.00       193.11
 1307.25        2978.00           1596          54.00       206.19
 1307.28        2978.25           1600          49.00       184.40
 1307.31        2978.50           1603          51.00       193.11
 1307.34        2978.75           1606          49.00       184.40
 1307.37        2979.00           1610          62.00       241.07
 1307.40        2979.25           1613          52.00       197.47
 1307.43        2979.50           1616          57.00       219.27
 1307.46        2979.75           1620          46.00       171.32
 1307.49        2980.00           1623          44.00       162.60
 1307.52        2980.25           1626          51.00       193.11
 1307.56        2980.50           1630          50.00       188.75
 1307.59        2980.75           1633          50.00       188.75
 1307.62        2981.00           1637          48.00       180.04
 1307.65        2981.25           1640          53.00       201.83
 1307.68        2981.50           1643          54.00       206.19
 1307.71        2981.75           1647          45.00       166.96
 1307.74        2982.00           1650          52.00       197.47
 1307.77        2982.25           1653          46.00       171.32
 1307.80        2982.50           1657          49.00       184.40
 1307.83        2982.75           1660          54.00       206.19
 1307.86        2983.00           1663          54.00       206.19
 1307.89        2983.25           1667          55.00       210.55
 1307.92        2983.50           1670          54.00       206.19
 1307.96        2983.75           1673          44.00       162.60
 1307.99        2984.00           1677          44.00       162.60
HS scan finished at 21:48:12
end
