************************************************************
  HS Scan of (1) Internal mercury lamp
************************************************************
Integration time is 0.2294 seconds per sample
dh260617Manchester 53.47 2.23 2.804185pr1000
************************************************************
Dead Time -------------------------  3E-08 
Number of Cycles Used -------------  4 
Starting Wavelength (Angstroms) ---  2950 
Final Wavelength (Angstoms) -------  2984 
Wavelength Increment (Angstroms) --  .25 
Filter Wheel #1 Position ---------- (1) Ground quartz diffuser (ND=2.32)
Filter Wheel #2 Position ---------- (1) Neutral Density 0.494



************************************************************
HS scan start time = 01:39:38
Dark Count =  5 


Time (GMT)  Wavelength (Ang)  Step Number  Raw Counts  Counts/Second

  100.00        2950.00           1222          40.00       152.57
  100.07        2950.25           1226          48.00       187.45
  100.10        2950.50           1229          44.00       170.01
  100.13        2950.75           1232          43.00       165.65
  100.16        2951.00           1236          40.00       152.57
  100.19        2951.25           1239          43.00       165.65
  100.22        2951.50           1242          44.00       170.01
  100.25        2951.75           1246          35.00       130.78
  100.28        2952.00           1249          45.00       174.37
  100.32        2952.25           1252          46.00       178.73
  100.35        2952.50           1256          48.00       187.45
  100.38        2952.75           1259          40.00       152.57
  100.41        2953.00           1262          43.00       165.65
  100.44        2953.25           1266          44.00       170.01
  100.47        2953.50           1269          42.00       161.29
  100.50        2953.75           1272          41.00       156.93
  100.53        2954.00           1276          53.00       209.24
  100.56        2954.25           1279          41.00       156.93
  100.59        2954.50           1282          49.00       191.81
  100.63        2954.75           1286          48.00       187.45
  100.66        2955.00           1289          40.00       152.57
  100.69        2955.25           1292          40.00       152.57
  100.72        2955.50           1296          42.00       161.29
  100.75        2955.75           1299          45.00       174.37
  100.78        2956.00           1302          39.00       148.21
  100.81        2956.25           1306          43.00       165.65
  100.84        2956.50           1309          45.00       174.37
  100.87        2956.75           1312          45.00       174.37
  100.90        2957.00           1316          46.00       178.73
  100.93        2957.25           1319          38.00       143.85
  100.96        2957.50           1322          50.00       196.17
  101.00        2957.75           1326          50.00       196.17
  101.03        2958.00           1329          46.00       178.73
  101.06        2958.25           1332          43.00       165.65
  101.09        2958.50           1336          46.00       178.73
  101.12        2958.75           1339          50.00       196.17
  101.15        2959.00           1342          38.00       143.85
  101.18        2959.25           1346          48.00       187.45
  101.21        2959.50           1349          54.00       213.60
  101.24        2959.75           1352          68.00       274.63
  101.27        2960.00           1356         100.00       414.13
  101.30        2960.25           1359         135.00       566.71
  101.33        2960.50           1362         174.00       736.72
  101.36        2960.75           1366         235.00      1002.65
  101.40        2961.00           1369         279.00      1194.46
  101.43        2961.25           1372         319.00      1368.84
  101.46        2961.50           1376         453.00      1953.04
  101.49        2961.75           1379         750.00      3247.92
  101.52        2962.00           1382        1541.00      6697.07
  101.55        2962.25           1386        3370.00     14675.16
  101.58        2962.50           1389        4945.00     21548.36
  101.61        2962.75           1392        6624.00     28878.54
  101.64        2963.00           1396        8837.00     38544.99
  101.67        2963.25           1399       10343.00     45126.44
  101.71        2963.50           1402       12229.00     53372.23
  101.74        2963.75           1406       14774.00     64505.71
  101.77        2964.00           1409       16543.00     72248.85
  101.80        2964.25           1412       18383.00     80306.59
  101.83        2964.50           1416       20452.00     89371.82
  101.86        2964.75           1419       22014.00     96218.92
  101.89        2965.00           1422       23823.00    104152.30
  101.92        2965.25           1426       26046.00    113906.50
  101.95        2965.50           1429       27945.00    122243.50
  101.98        2965.75           1432       29384.00    128563.80
  102.02        2966.00           1436       31775.00    139070.70
  102.05        2966.25           1439       33402.00    146224.20
  102.08        2966.50           1442       34831.00    152509.60
  102.11        2966.75           1446       36200.00    158533.40
  102.14        2967.00           1449       36366.00    159263.90
  102.17        2967.25           1452       36557.00    160104.60
  102.20        2967.50           1456       36523.00    159954.90
  102.23        2967.75           1459       36487.00    159796.50
  102.26        2968.00           1462       36176.00    158427.80
  102.29        2968.25           1466       35006.00    153279.50
  102.32        2968.50           1469       33690.00    147490.70
  102.35        2968.75           1472       32036.00    140218.10
  102.39        2969.00           1476       29777.00    130290.30
  102.42        2969.25           1479       28063.00    122761.70
  102.45        2969.50           1482       26382.00    115381.30
  102.48        2969.75           1486       24125.00    105477.10
  102.51        2970.00           1489       22365.00     97757.94
  102.54        2970.25           1492       20593.00     89989.79
  102.57        2970.50           1496       18469.00     80683.29
  102.60        2970.75           1499       16810.00     73417.85
  102.63        2971.00           1502       15165.00     66216.86
  102.66        2971.25           1506       13010.00     56788.03
  102.70        2971.50           1509       11359.00     49567.99
  102.73        2971.75           1513        9248.00     40340.86
  102.76        2972.00           1516        7669.00     33442.43
  102.79        2972.25           1519        6067.00     26446.43
  102.82        2972.50           1523        3720.00     16202.29
  102.85        2972.75           1526        2181.00      9488.32
  102.88        2973.00           1529         943.00      4089.43
  102.91        2973.25           1533         432.00      1861.48
  102.94        2973.50           1536         351.00      1508.35
  102.97        2973.75           1539         311.00      1333.97
  103.00        2974.00           1543         235.00      1002.65
  103.03        2974.25           1546         181.00       767.24
  103.06        2974.50           1549         142.00       597.22
  103.09        2974.75           1553          85.00       348.74
  103.12        2975.00           1556          61.00       244.12
  103.16        2975.25           1559          57.00       226.68
  103.19        2975.50           1563          46.00       178.73
  103.22        2975.75           1566          51.00       200.52
  103.25        2976.00           1569          47.00       183.09
  103.28        2976.25           1573          42.00       161.29
  103.31        2976.50           1576          46.00       178.73
  103.34        2976.75           1579          45.00       174.37
  103.37        2977.00           1583          46.00       178.73
  103.40        2977.25           1586          44.00       170.01
  103.43        2977.50           1590          45.00       174.37
  103.46        2977.75           1593          45.00       174.37
  103.49        2978.00           1596          42.00       161.29
  103.52        2978.25           1600          45.00       174.37
  103.55        2978.50           1603          41.00       156.93
  103.59        2978.75           1606          38.00       143.85
  103.62        2979.00           1610          43.00       165.65
  103.65        2979.25           1613          46.00       178.73
  103.68        2979.50           1616          49.00       191.81
  103.71        2979.75           1620          46.00       178.73
  103.74        2980.00           1623          46.00       178.73
  103.77        2980.25           1626          45.00       174.37
  103.80        2980.50           1630          38.00       143.85
  103.83        2980.75           1633          47.00       183.09
  103.86        2981.00           1637          42.00       161.29
  103.89        2981.25           1640          42.00       161.29
  103.93        2981.50           1643          41.00       156.93
  103.96        2981.75           1647          41.00       156.93
  103.99        2982.00           1650          42.00       161.29
  104.02        2982.25           1653          40.00       152.57
  104.05        2982.50           1657          45.00       174.37
  104.08        2982.75           1660          46.00       178.73
  104.11        2983.00           1663          44.00       170.01
  104.14        2983.25           1667          41.00       156.93
  104.17        2983.50           1670          46.00       178.73
  104.20        2983.75           1673          40.00       152.57
  104.23        2984.00           1677          50.00       196.17
HS scan finished at 01:44:27
end
************************************************************
  HS Scan of (1) Internal mercury lamp
************************************************************
Integration time is 0.2294 seconds per sample
dh260617Manchester 53.47 2.23 2.965129pr1000
************************************************************
Dead Time -------------------------  3E-08 
Number of Cycles Used -------------  4 
Starting Wavelength (Angstroms) ---  2950 
Final Wavelength (Angstoms) -------  2984 
Wavelength Increment (Angstroms) --  .25 
Filter Wheel #1 Position ---------- (1) Ground quartz diffuser (ND=2.32)
Filter Wheel #2 Position ---------- (1) Neutral Density 0.494



************************************************************
HS scan start time = 21:42:03
Dark Count =  5.9 


Time (GMT)  Wavelength (Ang)  Step Number  Raw Counts  Counts/Second

 1302.42        2950.00           1222          46.00       174.80
 1302.49        2950.25           1226          47.00       179.16
 1302.52        2950.50           1229          44.00       166.09
 1302.55        2950.75           1232          45.00       170.45
 1302.58        2951.00           1236          40.00       148.65
 1302.61        2951.25           1239          39.00       144.29
 1302.64        2951.50           1242          56.00       218.40
 1302.67        2951.75           1246          38.00       139.93
 1302.70        2952.00           1249          38.00       139.93
 1302.73        2952.25           1252          38.00       139.93
 1302.76        2952.50           1256          43.00       161.73
 1302.80        2952.75           1259          44.00       166.09
 1302.83        2953.00           1262          39.00       144.29
 1302.86        2953.25           1266          36.00       131.21
 1302.89        2953.50           1269          44.00       166.09
 1302.92        2953.75           1272          44.00       166.09
 1302.95        2954.00           1276          39.00       144.29
 1302.98        2954.25           1279          52.00       200.96
 1303.01        2954.50           1282          37.00       135.57
 1303.04        2954.75           1286          46.00       174.80
 1303.07        2955.00           1289          38.00       139.93
 1303.10        2955.25           1292          37.00       135.57
 1303.13        2955.50           1296          39.00       144.29
 1303.16        2955.75           1299          42.00       157.37
 1303.20        2956.00           1302          42.00       157.37
 1303.23        2956.25           1306          54.00       209.68
 1303.26        2956.50           1309          40.00       148.65
 1303.29        2956.75           1312          51.00       196.60
 1303.32        2957.00           1316          39.00       144.29
 1303.35        2957.25           1319          50.00       192.24
 1303.38        2957.50           1322          43.00       161.73
 1303.41        2957.75           1326          44.00       166.09
 1303.44        2958.00           1329          42.00       157.37
 1303.47        2958.25           1332          47.00       179.16
 1303.50        2958.50           1336          46.00       174.80
 1303.53        2958.75           1339          52.00       200.96
 1303.57        2959.00           1342          48.00       183.52
 1303.60        2959.25           1346          50.00       192.24
 1303.63        2959.50           1349          52.00       200.96
 1303.66        2959.75           1352          59.00       231.48
 1303.69        2960.00           1356          78.00       314.30
 1303.72        2960.25           1359         118.00       488.67
 1303.75        2960.50           1362         155.00       649.97
 1303.78        2960.75           1366         212.00       898.45
 1303.81        2961.00           1369         264.00      1125.15
 1303.84        2961.25           1372         328.00      1404.16
 1303.87        2961.50           1376         405.00      1739.85
 1303.90        2961.75           1379         565.00      2437.41
 1303.93        2962.00           1382        1075.00      4661.07
 1303.96        2962.25           1386        2926.00     12734.16
 1304.00        2962.50           1389        4799.00     20907.18
 1304.03        2962.75           1392        6520.00     28420.47
 1304.06        2963.00           1396        8848.00     38589.11
 1304.09        2963.25           1399       10723.00     46783.58
 1304.12        2963.50           1402       12558.00     54807.13
 1304.15        2963.75           1406       14983.00     65416.40
 1304.18        2964.00           1409       17071.00     74556.73
 1304.21        2964.25           1412       18749.00     81905.90
 1304.24        2964.50           1416       21206.00     92672.72
 1304.27        2964.75           1419       23161.00    101244.70
 1304.31        2965.00           1422       24964.00    109154.20
 1304.34        2965.25           1426       27460.00    120109.90
 1304.37        2965.50           1429       29360.00    128454.40
 1304.40        2965.75           1432       31186.00    136477.90
 1304.43        2966.00           1436       33732.00    147671.50
 1304.46        2966.25           1439       35507.00    155479.90
 1304.49        2966.50           1442       37155.00    162732.80
 1304.52        2966.75           1446       38940.00    170592.30
 1304.55        2967.00           1449       39515.00    173124.90
 1304.58        2967.25           1452       39599.00    173494.80
 1304.61        2967.50           1456       39602.00    173508.10
 1304.65        2967.75           1459       39498.00    173050.00
 1304.68        2968.00           1462       39370.00    172486.10
 1304.71        2968.25           1466       38310.00    167817.90
 1304.74        2968.50           1469       36944.00    161804.00
 1304.77        2968.75           1472       34973.00    153130.40
 1304.80        2969.00           1476       32660.00    142957.50
 1304.83        2969.25           1479       30563.00    133740.00
 1304.86        2969.50           1482       29133.00    127457.20
 1304.89        2969.75           1486       26593.00    116303.50
 1304.93        2970.00           1489       24761.00    108263.50
 1304.96        2970.25           1492       23053.00    100771.10
 1304.99        2970.50           1496       20794.00     90866.81
 1305.02        2970.75           1499       19058.00     83259.58
 1305.05        2971.00           1502       16995.00     74223.95
 1305.08        2971.25           1506       14563.00     63578.43
 1305.11        2971.50           1509       12518.00     54632.19
 1305.14        2971.75           1513       10167.00     44353.23
 1305.17        2972.00           1516        8369.00     36496.35
 1305.20        2972.25           1519        6513.00     28389.91
 1305.23        2972.50           1523        4337.00     18890.82
 1305.27        2972.75           1526        2797.00     12171.40
 1305.30        2973.00           1529        1382.00      5999.77
 1305.33        2973.25           1533         589.00      2542.04
 1305.36        2973.50           1536         413.00      1774.72
 1305.39        2973.75           1539         349.00      1495.71
 1305.42        2974.00           1543         285.00      1216.70
 1305.45        2974.25           1546         216.00       915.89
 1305.48        2974.50           1549         165.00       693.56
 1305.51        2974.75           1553         110.00       453.80
 1305.55        2975.00           1556          78.00       314.30
 1305.58        2975.25           1559          64.00       253.27
 1305.61        2975.50           1563          43.00       161.73
 1305.64        2975.75           1566          48.00       183.52
 1305.67        2976.00           1569          43.00       161.73
 1305.70        2976.25           1573          43.00       161.73
 1305.73        2976.50           1576          47.00       179.16
 1305.76        2976.75           1579          45.00       170.45
 1305.79        2977.00           1583          48.00       183.52
 1305.82        2977.25           1586          45.00       170.45
 1305.86        2977.50           1590          45.00       170.45
 1305.89        2977.75           1593          47.00       179.16
 1305.92        2978.00           1596          47.00       179.16
 1305.95        2978.25           1600          42.00       157.37
 1305.98        2978.50           1603          37.00       135.57
 1306.01        2978.75           1606          43.00       161.73
 1306.04        2979.00           1610          43.00       161.73
 1306.07        2979.25           1613          40.00       148.65
 1306.10        2979.50           1616          44.00       166.09
 1306.13        2979.75           1620          42.00       157.37
 1306.16        2980.00           1623          38.00       139.93
 1306.19        2980.25           1626          40.00       148.65
 1306.23        2980.50           1630          43.00       161.73
 1306.26        2980.75           1633          43.00       161.73
 1306.29        2981.00           1637          40.00       148.65
 1306.32        2981.25           1640          42.00       157.37
 1306.35        2981.50           1643          41.00       153.01
 1306.38        2981.75           1647          46.00       174.80
 1306.41        2982.00           1650          41.00       153.01
 1306.44        2982.25           1653          39.00       144.29
 1306.47        2982.50           1657          34.00       122.49
 1306.50        2982.75           1660          46.00       174.80
 1306.53        2983.00           1663          38.00       139.93
 1306.56        2983.25           1667          40.00       148.65
 1306.59        2983.50           1670          40.00       148.65
 1306.62        2983.75           1673          41.00       153.01
 1306.66        2984.00           1677          46.00       174.80
HS scan finished at 21:46:52
end
