************************************************************
  HS Scan of (1) Internal mercury lamp
************************************************************
Integration time is 0.2294 seconds per sample
dh270618Manchester 53.47 2.23 3.018777pr1000
************************************************************
Dead Time -------------------------  3E-08 
Number of Cycles Used -------------  4 
Starting Wavelength (Angstroms) ---  2950 
Final Wavelength (Angstoms) -------  2984 
Wavelength Increment (Angstroms) --  .25 
Filter Wheel #1 Position ---------- (1) Ground quartz diffuser (ND=2.32)
Filter Wheel #2 Position ---------- (1) Neutral Density 0.494



************************************************************
HS scan start time = 01:41:04
Dark Count =  7 


Time (GMT)  Wavelength (Ang)  Step Number  Raw Counts  Counts/Second

  101.43        2950.00           1222          60.00       231.04
  101.50        2950.25           1226          55.00       209.24
  101.53        2950.50           1229          58.00       222.32
  101.56        2950.75           1232          53.00       200.52
  101.59        2951.00           1236          62.00       239.76
  101.62        2951.25           1239          60.00       231.04
  101.65        2951.50           1242          62.00       239.76
  101.68        2951.75           1246          56.00       213.60
  101.71        2952.00           1249          49.00       183.09
  101.74        2952.25           1252          55.00       209.24
  101.77        2952.50           1256          58.00       222.32
  101.80        2952.75           1259          55.00       209.24
  101.83        2953.00           1262          49.00       183.09
  101.86        2953.25           1266          62.00       239.76
  101.89        2953.50           1269          53.00       200.52
  101.93        2953.75           1272          48.00       178.73
  101.96        2954.00           1276          56.00       213.60
  101.99        2954.25           1279          54.00       204.88
  102.02        2954.50           1282          51.00       191.81
  102.05        2954.75           1286          55.00       209.24
  102.08        2955.00           1289          52.00       196.17
  102.11        2955.25           1292          52.00       196.17
  102.14        2955.50           1296          57.00       217.96
  102.17        2955.75           1299          57.00       217.96
  102.20        2956.00           1302          48.00       178.73
  102.24        2956.25           1306          56.00       213.60
  102.27        2956.50           1309          58.00       222.32
  102.30        2956.75           1312          51.00       191.81
  102.33        2957.00           1316          46.00       170.01
  102.36        2957.25           1319          65.00       252.84
  102.39        2957.50           1322          53.00       200.52
  102.42        2957.75           1326          52.00       196.17
  102.45        2958.00           1329          50.00       187.45
  102.48        2958.25           1332          60.00       231.04
  102.51        2958.50           1336          57.00       217.96
  102.55        2958.75           1339          54.00       204.88
  102.58        2959.00           1342          50.00       187.45
  102.61        2959.25           1346          55.00       209.24
  102.64        2959.50           1349          64.00       248.48
  102.67        2959.75           1352          61.00       235.40
  102.70        2960.00           1356          87.00       348.74
  102.73        2960.25           1359         110.00       449.00
  102.76        2960.50           1362         153.00       636.46
  102.79        2960.75           1366         212.00       893.66
  102.82        2961.00           1369         238.00      1007.01
  102.85        2961.25           1372         281.00      1194.46
  102.89        2961.50           1376         368.00      1573.74
  102.92        2961.75           1379         500.00      2149.22
  102.95        2962.00           1382        1164.00      5044.36
  102.98        2962.25           1386        2935.00     12768.62
  103.01        2962.50           1389        4405.00     19182.79
  103.04        2962.75           1392        5906.00     25734.77
  103.07        2963.00           1396        7862.00     34276.73
  103.10        2963.25           1399        9307.00     40589.94
  103.13        2963.50           1402       10813.00     47172.21
  103.17        2963.75           1406       12907.00     56328.77
  103.20        2964.00           1409       14419.00     62943.51
  103.23        2964.25           1412       16048.00     70073.05
  103.26        2964.50           1416       17968.00     78480.11
  103.29        2964.75           1419       19560.00     85454.19
  103.32        2965.00           1422       21004.00     91782.46
  103.35        2965.25           1426       23115.00    101038.20
  103.38        2965.50           1429       24764.00    108271.80
  103.41        2965.75           1432       26255.00    114815.00
  103.45        2966.00           1436       28443.00    124421.70
  103.48        2966.25           1439       29808.00    130417.70
  103.51        2966.50           1442       31135.00    136248.90
  103.54        2966.75           1446       32739.00    143300.00
  103.57        2967.00           1449       33098.00    144878.60
  103.60        2967.25           1452       33265.00    145612.90
  103.63        2967.50           1456       33007.00    144478.40
  103.66        2967.75           1459       33092.00    144852.20
  103.69        2968.00           1462       33033.00    144592.70
  103.73        2968.25           1466       31984.00    139980.70
  103.76        2968.50           1469       30562.00    133730.70
  103.79        2968.75           1472       29301.00    128190.40
  103.82        2969.00           1476       27243.00    119152.30
  103.85        2969.25           1479       25645.00    112137.70
  103.88        2969.50           1482       24092.00    105323.50
  103.91        2969.75           1486       22070.00     96455.69
  103.94        2970.00           1489       20662.00     90283.43
  103.98        2970.25           1492       19293.00     84284.34
  104.01        2970.50           1496       17288.00     75502.13
  104.04        2970.75           1499       15741.00     68729.19
  104.07        2971.00           1502       14253.00     62217.16
  104.10        2971.25           1506       12166.00     53087.98
  104.13        2971.50           1509       10444.00     45559.18
  104.16        2971.75           1513        8576.00     37395.90
  104.19        2972.00           1516        7061.00     30778.19
  104.22        2972.25           1519        5507.00     23992.85
  104.26        2972.50           1523        3605.00     15691.78
  104.29        2972.75           1526        2105.00      9148.11
  104.32        2973.00           1529         890.00      3849.62
  104.35        2973.25           1533         399.00      1708.89
  104.38        2973.50           1536         330.00      1408.08
  104.41        2973.75           1539         262.00      1111.63
  104.44        2974.00           1543         246.00      1041.88
  104.47        2974.25           1546         177.00       741.08
  104.50        2974.50           1549         136.00       562.35
  104.53        2974.75           1553          96.00       387.97
  104.57        2975.00           1556          75.00       296.43
  104.60        2975.25           1559          64.00       248.48
  104.63        2975.50           1563          50.00       187.45
  104.66        2975.75           1566          51.00       191.81
  104.69        2976.00           1569          57.00       217.96
  104.72        2976.25           1573          54.00       204.88
  104.75        2976.50           1576          56.00       213.60
  104.78        2976.75           1579          54.00       204.88
  104.81        2977.00           1583          52.00       196.17
  104.84        2977.25           1586          45.00       165.65
  104.88        2977.50           1590          53.00       200.52
  104.91        2977.75           1593          46.00       170.01
  104.94        2978.00           1596          61.00       235.40
  104.97        2978.25           1600          62.00       239.76
  105.00        2978.50           1603          51.00       191.81
  105.03        2978.75           1606          44.00       161.29
  105.06        2979.00           1610          48.00       178.73
  105.09        2979.25           1613          52.00       196.17
  105.12        2979.50           1616          53.00       200.52
  105.16        2979.75           1620          53.00       200.52
  105.19        2980.00           1623          43.00       156.93
  105.22        2980.25           1626          61.00       235.40
  105.25        2980.50           1630          69.00       270.27
  105.28        2980.75           1633          50.00       187.45
  105.31        2981.00           1637          52.00       196.17
  105.34        2981.25           1640          52.00       196.17
  105.37        2981.50           1643          47.00       174.37
  105.40        2981.75           1647          62.00       239.76
  105.43        2982.00           1650          53.00       200.52
  105.46        2982.25           1653          48.00       178.73
  105.49        2982.50           1657          51.00       191.81
  105.52        2982.75           1660          43.00       156.93
  105.56        2983.00           1663          46.00       170.01
  105.59        2983.25           1667          41.00       148.21
  105.62        2983.50           1670          49.00       183.09
  105.65        2983.75           1673          51.00       191.81
  105.68        2984.00           1677          49.00       183.09
HS scan finished at 01:45:54
end
