************************************************************
  HS Scan of (1) Internal mercury lamp
************************************************************
Integration time is 0.2294 seconds per sample
dh190619El Arenosillo 37.1 6.73 3.072425pr1000
************************************************************
Dead Time -------------------------  3E-08 
Number of Cycles Used -------------  4 
Starting Wavelength (Angstroms) ---  2950 
Final Wavelength (Angstoms) -------  2984 
Wavelength Increment (Angstroms) --  .25 
Filter Wheel #1 Position ---------- (1) Ground quartz diffuser (ND=2.32)
Filter Wheel #2 Position ---------- (1) Neutral Density 0.494



************************************************************
HS scan start time = 02:10:55
Dark Count =  7.5 


Time (GMT)  Wavelength (Ang)  Step Number  Raw Counts  Counts/Second

  131.29        2950.00           1222          53.00       198.34
  131.36        2950.25           1226          54.00       202.70
  131.39        2950.50           1229          54.00       202.70
  131.42        2950.75           1232          56.00       211.42
  131.45        2951.00           1236          51.00       189.63
  131.48        2951.25           1239          56.00       211.42
  131.51        2951.50           1242          60.00       228.86
  131.54        2951.75           1246          59.00       224.50
  131.57        2952.00           1249          51.00       189.63
  131.60        2952.25           1252          54.00       202.70
  131.63        2952.50           1256          56.00       211.42
  131.67        2952.75           1259          58.00       220.14
  131.70        2953.00           1262          54.00       202.70
  131.73        2953.25           1266          60.00       228.86
  131.76        2953.50           1269          49.00       180.91
  131.79        2953.75           1272          54.00       202.70
  131.82        2954.00           1276          49.00       180.91
  131.85        2954.25           1279          54.00       202.70
  131.88        2954.50           1282          47.00       172.19
  131.91        2954.75           1286          56.00       211.42
  131.95        2955.00           1289          51.00       189.63
  131.98        2955.25           1292          58.00       220.14
  132.01        2955.50           1296          52.00       193.99
  132.04        2955.75           1299          55.00       207.06
  132.07        2956.00           1302          59.00       224.50
  132.10        2956.25           1306          51.00       189.63
  132.13        2956.50           1309          49.00       180.91
  132.16        2956.75           1312          59.00       224.50
  132.19        2957.00           1316          54.00       202.70
  132.22        2957.25           1319          45.00       163.47
  132.25        2957.50           1322          58.00       220.14
  132.28        2957.75           1326          52.00       193.99
  132.32        2958.00           1329          53.00       198.34
  132.35        2958.25           1332          55.00       207.06
  132.38        2958.50           1336          55.00       207.06
  132.41        2958.75           1339          56.00       211.42
  132.44        2959.00           1342          49.00       180.91
  132.47        2959.25           1346          62.00       237.58
  132.50        2959.50           1349          63.00       241.94
  132.53        2959.75           1352          78.00       307.33
  132.56        2960.00           1356          94.00       377.07
  132.59        2960.25           1359         123.00       503.50
  132.63        2960.50           1362         157.00       651.71
  132.66        2960.75           1366         201.00       843.53
  132.69        2961.00           1369         249.00      1052.78
  132.72        2961.25           1372         278.00      1179.20
  132.75        2961.50           1376         366.00      1562.85
  132.78        2961.75           1379         563.00      2421.71
  132.81        2962.00           1382        1293.00      5604.69
  132.84        2962.25           1386        2945.00     12810.07
  132.87        2962.50           1389        4242.00     18469.25
  132.90        2962.75           1392        5527.00     24077.98
  132.94        2963.00           1396        7450.00     32474.96
  132.97        2963.25           1399        8877.00     38708.83
  133.00        2963.50           1402       10299.00     44923.19
  133.03        2963.75           1406       12065.00     52644.11
  133.06        2964.00           1409       13574.00     59244.27
  133.09        2964.25           1412       14992.00     65448.78
  133.12        2964.50           1416       16835.00     73516.36
  133.15        2964.75           1419       18127.00     79174.33
  133.18        2965.00           1422       19679.00     85973.42
  133.22        2965.25           1426       21293.00     93047.09
  133.25        2965.50           1429       22845.00     99851.85
  133.28        2965.75           1432       24367.00    106527.80
  133.31        2966.00           1436       26328.00    115133.30
  133.34        2966.25           1439       27464.00    120120.40
  133.37        2966.50           1442       28768.00    125846.90
  133.40        2966.75           1446       29767.00    130235.40
  133.43        2967.00           1449       29862.00    130652.80
  133.46        2967.25           1452       29870.00    130687.90
  133.50        2967.50           1456       29951.00    131043.80
  133.53        2967.75           1459       29892.00    130784.60
  133.56        2968.00           1462       29738.00    130108.00
  133.59        2968.25           1466       28434.00    124380.00
  133.62        2968.50           1469       27208.00    118996.40
  133.65        2968.75           1472       25867.00    113109.80
  133.68        2969.00           1476       23997.00    104904.60
  133.71        2969.25           1479       22682.00     99137.04
  133.74        2969.50           1482       21218.00     92718.32
  133.77        2969.75           1486       19523.00     85289.88
  133.80        2970.00           1489       17820.00     77829.72
  133.84        2970.25           1492       16668.00     72785.18
  133.87        2970.50           1496       14921.00     65138.07
  133.90        2970.75           1499       13476.00     58815.55
  133.93        2971.00           1502       12300.00     53671.80
  133.96        2971.25           1506       10457.00     45613.82
  133.99        2971.50           1509        8990.00     39202.57
  134.02        2971.75           1513        7089.00     30898.29
  134.05        2972.00           1516        5681.00     24750.28
  134.08        2972.25           1519        4296.00     18704.91
  134.12        2972.50           1523        2585.00     11239.62
  134.15        2972.75           1526        1377.00      5970.99
  134.18        2973.00           1529         627.00      2700.74
  134.21        2973.25           1533         363.00      1549.77
  134.24        2973.50           1536         283.00      1201.00
  134.27        2973.75           1539         260.00      1100.73
  134.30        2974.00           1543         203.00       852.24
  134.33        2974.25           1546         165.00       686.59
  134.36        2974.50           1549         128.00       525.29
  134.39        2974.75           1553          84.00       333.48
  134.43        2975.00           1556          67.00       259.37
  134.46        2975.25           1559          62.00       237.58
  134.49        2975.50           1563          53.00       198.34
  134.52        2975.75           1566          60.00       228.86
  134.55        2976.00           1569          49.00       180.91
  134.58        2976.25           1573          55.00       207.06
  134.61        2976.50           1576          49.00       180.91
  134.64        2976.75           1579          50.00       185.27
  134.67        2977.00           1583          56.00       211.42
  134.70        2977.25           1586          52.00       193.99
  134.73        2977.50           1590          49.00       180.91
  134.76        2977.75           1593          49.00       180.91
  134.79        2978.00           1596          52.00       193.99
  134.83        2978.25           1600          45.00       163.47
  134.86        2978.50           1603          44.00       159.11
  134.89        2978.75           1606          47.00       172.19
  134.92        2979.00           1610          51.00       189.63
  134.95        2979.25           1613          57.00       215.78
  134.98        2979.50           1616          48.00       176.55
  135.01        2979.75           1620          48.00       176.55
  135.04        2980.00           1623          48.00       176.55
  135.07        2980.25           1626          45.00       163.47
  135.10        2980.50           1630          45.00       163.47
  135.13        2980.75           1633          52.00       193.99
  135.16        2981.00           1637          48.00       176.55
  135.19        2981.25           1640          50.00       185.27
  135.23        2981.50           1643          49.00       180.91
  135.26        2981.75           1647          49.00       180.91
  135.29        2982.00           1650          48.00       176.55
  135.32        2982.25           1653          51.00       189.63
  135.35        2982.50           1657          49.00       180.91
  135.38        2982.75           1660          46.00       167.83
  135.41        2983.00           1663          44.00       159.11
  135.44        2983.25           1667          43.00       154.75
  135.47        2983.50           1670          46.00       167.83
  135.50        2983.75           1673          48.00       176.55
  135.53        2984.00           1677          55.00       207.06
HS scan finished at 02:15:45
end
