************************************************************
  HS Scan of (1) Internal mercury lamp
************************************************************
Integration time is 0.2294 seconds per sample
dh240617Manchester 53.47 2.23 2.804185pr1000
************************************************************
Dead Time -------------------------  3E-08 
Number of Cycles Used -------------  4 
Starting Wavelength (Angstroms) ---  2950 
Final Wavelength (Angstoms) -------  2984 
Wavelength Increment (Angstroms) --  .25 
Filter Wheel #1 Position ---------- (1) Ground quartz diffuser (ND=2.32)
Filter Wheel #2 Position ---------- (1) Neutral Density 0.494



************************************************************
HS scan start time = 01:27:35
Dark Count =  6.2 


Time (GMT)  Wavelength (Ang)  Step Number  Raw Counts  Counts/Second

   87.96        2950.00           1222          43.00       160.42
   88.03        2950.25           1226          40.00       147.34
   88.06        2950.50           1229          40.00       147.34
   88.09        2950.75           1232          43.00       160.42
   88.12        2951.00           1236          45.00       169.14
   88.15        2951.25           1239          40.00       147.34
   88.18        2951.50           1242          48.00       182.22
   88.21        2951.75           1246          50.00       190.93
   88.24        2952.00           1249          44.00       164.78
   88.27        2952.25           1252          40.00       147.34
   88.30        2952.50           1256          44.00       164.78
   88.33        2952.75           1259          47.00       177.86
   88.37        2953.00           1262          44.00       164.78
   88.40        2953.25           1266          45.00       169.14
   88.43        2953.50           1269          44.00       164.78
   88.46        2953.75           1272          41.00       151.70
   88.49        2954.00           1276          32.00       112.47
   88.52        2954.25           1279          46.00       173.50
   88.55        2954.50           1282          46.00       173.50
   88.58        2954.75           1286          46.00       173.50
   88.61        2955.00           1289          42.00       156.06
   88.64        2955.25           1292          48.00       182.22
   88.67        2955.50           1296          46.00       173.50
   88.70        2955.75           1299          50.00       190.93
   88.73        2956.00           1302          46.00       173.50
   88.77        2956.25           1306          38.00       138.62
   88.80        2956.50           1309          42.00       156.06
   88.83        2956.75           1312          40.00       147.34
   88.86        2957.00           1316          45.00       169.14
   88.89        2957.25           1319          42.00       156.06
   88.92        2957.50           1322          51.00       195.29
   88.95        2957.75           1326          43.00       160.42
   88.98        2958.00           1329          46.00       173.50
   89.01        2958.25           1332          41.00       151.70
   89.04        2958.50           1336          53.00       204.01
   89.07        2958.75           1339          40.00       147.34
   89.11        2959.00           1342          42.00       156.06
   89.14        2959.25           1346          49.00       186.57
   89.17        2959.50           1349          63.00       247.60
   89.20        2959.75           1352          83.00       334.79
   89.23        2960.00           1356         118.00       487.37
   89.26        2960.25           1359         155.00       648.66
   89.29        2960.50           1362         193.00       814.32
   89.32        2960.75           1366         253.00      1075.88
   89.35        2961.00           1369         297.00      1267.70
   89.38        2961.25           1372         357.00      1529.28
   89.41        2961.50           1376         418.00      1795.21
   89.45        2961.75           1379         580.00      2501.50
   89.48        2962.00           1382        1009.00      4371.98
   89.51        2962.25           1386        2590.00     11267.10
   89.54        2962.50           1389        4321.00     18819.69
   89.57        2962.75           1392        6012.00     26201.06
   89.60        2963.00           1396        8172.00     35634.41
   89.63        2963.25           1399        9992.00     43587.04
   89.66        2963.50           1402       11648.00     50826.35
   89.69        2963.75           1406       13968.00     60973.69
   89.72        2964.00           1409       15667.00     68408.78
   89.76        2964.25           1412       17362.00     75829.69
   89.79        2964.50           1416       19662.00     85904.62
   89.82        2964.75           1419       21364.00     93364.02
   89.85        2965.00           1422       23262.00    101686.40
   89.88        2965.25           1426       25617.00    112018.40
   89.91        2965.50           1429       27344.00    119599.20
   89.94        2965.75           1432       29050.00    127091.30
   89.97        2966.00           1436       31299.00    136973.20
   90.00        2966.25           1439       33001.00    144455.50
   90.04        2966.50           1442       34493.00    151017.40
   90.07        2966.75           1446       36214.00    158589.70
   90.10        2967.00           1449       36967.00    161903.90
   90.13        2967.25           1452       36897.00    161595.80
   90.16        2967.50           1456       37103.00    162502.60
   90.19        2967.75           1459       37077.00    162388.10
   90.22        2968.00           1462       36725.00    160838.70
   90.25        2968.25           1466       35893.00    157177.10
   90.28        2968.50           1469       34503.00    151061.40
   90.32        2968.75           1472       32778.00    143475.00
   90.35        2969.00           1476       30427.00    133141.00
   90.38        2969.25           1479       28914.00    126494.00
   90.41        2969.50           1482       27277.00    119305.10
   90.44        2969.75           1486       25025.00    109420.50
   90.47        2970.00           1489       23387.00    102234.60
   90.50        2970.25           1492       21693.00     94806.33
   90.53        2970.50           1496       19340.00     84493.78
   90.56        2970.75           1499       17693.00     77279.23
   90.59        2971.00           1502       15935.00     69581.88
   90.62        2971.25           1506       13554.00     59162.46
   90.65        2971.50           1509       11790.00     51447.26
   90.69        2971.75           1513        9553.00     41668.45
   90.72        2972.00           1516        7735.00     33725.47
   90.75        2972.25           1519        6109.00     26624.57
   90.78        2972.50           1523        4021.00     17510.50
   90.81        2972.75           1526        2455.00     10678.23
   90.84        2973.00           1529        1149.00      4982.44
   90.87        2973.25           1533         462.00      1987.04
   90.90        2973.50           1536         321.00      1372.33
   90.93        2973.75           1539         283.00      1206.67
   90.96        2974.00           1543         210.00       888.43
   91.00        2974.25           1546         151.00       631.22
   91.03        2974.50           1549         124.00       513.52
   91.06        2974.75           1553          77.00       308.63
   91.09        2975.00           1556          50.00       190.93
   91.12        2975.25           1559          47.00       177.86
   91.15        2975.50           1563          50.00       190.93
   91.18        2975.75           1566          53.00       204.01
   91.21        2976.00           1569          45.00       169.14
   91.24        2976.25           1573          50.00       190.93
   91.27        2976.50           1576          51.00       195.29
   91.30        2976.75           1579          50.00       190.93
   91.33        2977.00           1583          47.00       177.86
   91.37        2977.25           1586          44.00       164.78
   91.40        2977.50           1590          53.00       204.01
   91.43        2977.75           1593          48.00       182.22
   91.46        2978.00           1596          45.00       169.14
   91.49        2978.25           1600          52.00       199.65
   91.52        2978.50           1603          47.00       177.86
   91.55        2978.75           1606          44.00       164.78
   91.58        2979.00           1610          40.00       147.34
   91.61        2979.25           1613          45.00       169.14
   91.64        2979.50           1616          47.00       177.86
   91.67        2979.75           1620          43.00       160.42
   91.71        2980.00           1623          48.00       182.22
   91.74        2980.25           1626          46.00       173.50
   91.77        2980.50           1630          40.00       147.34
   91.80        2980.75           1633          46.00       173.50
   91.83        2981.00           1637          45.00       169.14
   91.86        2981.25           1640          37.00       134.26
   91.89        2981.50           1643          41.00       151.70
   91.92        2981.75           1647          44.00       164.78
   91.95        2982.00           1650          44.00       164.78
   91.98        2982.25           1653          38.00       138.62
   92.01        2982.50           1657          42.00       156.06
   92.04        2982.75           1660          47.00       177.86
   92.08        2983.00           1663          35.00       125.55
   92.11        2983.25           1667          40.00       147.34
   92.14        2983.50           1670          45.00       169.14
   92.17        2983.75           1673          48.00       182.22
   92.20        2984.00           1677          41.00       151.70
HS scan finished at 01:32:25
end
************************************************************
  HS Scan of (1) Internal mercury lamp
************************************************************
Integration time is 0.2294 seconds per sample
dh240617Manchester 53.47 2.23 2.804185pr1000
************************************************************
Dead Time -------------------------  3E-08 
Number of Cycles Used -------------  4 
Starting Wavelength (Angstroms) ---  2950 
Final Wavelength (Angstoms) -------  2984 
Wavelength Increment (Angstroms) --  .25 
Filter Wheel #1 Position ---------- (1) Ground quartz diffuser (ND=2.32)
Filter Wheel #2 Position ---------- (1) Neutral Density 0.494



************************************************************
HS scan start time = 21:42:04
Dark Count =  5.2 


Time (GMT)  Wavelength (Ang)  Step Number  Raw Counts  Counts/Second

 1302.43        2950.00           1222          40.00       151.70
 1302.50        2950.25           1226          42.00       160.42
 1302.53        2950.50           1229          41.00       156.06
 1302.56        2950.75           1232          44.00       169.14
 1302.59        2951.00           1236          45.00       173.50
 1302.62        2951.25           1239          62.00       247.60
 1302.66        2951.50           1242          43.00       164.78
 1302.69        2951.75           1246          45.00       173.50
 1302.72        2952.00           1249          46.00       177.86
 1302.75        2952.25           1252          46.00       177.86
 1302.78        2952.50           1256          47.00       182.22
 1302.81        2952.75           1259          42.00       160.42
 1302.84        2953.00           1262          46.00       177.86
 1302.87        2953.25           1266          39.00       147.34
 1302.90        2953.50           1269          46.00       177.86
 1302.93        2953.75           1272          44.00       169.14
 1302.96        2954.00           1276          48.00       186.57
 1302.99        2954.25           1279          49.00       190.93
 1303.02        2954.50           1282          38.00       142.98
 1303.05        2954.75           1286          50.00       195.29
 1303.08        2955.00           1289          36.00       134.26
 1303.12        2955.25           1292          51.00       199.65
 1303.15        2955.50           1296          40.00       151.70
 1303.18        2955.75           1299          42.00       160.42
 1303.21        2956.00           1302          40.00       151.70
 1303.24        2956.25           1306          53.00       208.37
 1303.27        2956.50           1309          44.00       169.14
 1303.30        2956.75           1312          47.00       182.22
 1303.33        2957.00           1316          42.00       160.42
 1303.36        2957.25           1319          52.00       204.01
 1303.39        2957.50           1322          50.00       195.29
 1303.42        2957.75           1326          43.00       164.78
 1303.45        2958.00           1329          42.00       160.42
 1303.48        2958.25           1332          43.00       164.78
 1303.52        2958.50           1336          46.00       177.86
 1303.55        2958.75           1339          43.00       164.78
 1303.58        2959.00           1342          46.00       177.86
 1303.61        2959.25           1346          51.00       199.65
 1303.64        2959.50           1349          60.00       238.89
 1303.67        2959.75           1352          79.00       321.71
 1303.70        2960.00           1356         122.00       509.16
 1303.73        2960.25           1359         153.00       644.30
 1303.76        2960.50           1362         200.00       849.19
 1303.79        2960.75           1366         266.00      1136.92
 1303.82        2961.00           1369         298.00      1276.42
 1303.86        2961.25           1372         357.00      1533.64
 1303.89        2961.50           1376         428.00      1843.17
 1303.92        2961.75           1379         599.00      2588.69
 1303.95        2962.00           1382        1157.00      5021.68
 1303.98        2962.25           1386        2742.00     11934.53
 1304.01        2962.50           1389        4326.00     18845.88
 1304.04        2962.75           1392        5795.00     25258.02
 1304.07        2963.00           1396        8006.00     34913.62
 1304.10        2963.25           1399        9594.00     41851.99
 1304.13        2963.50           1402       11462.00     50017.46
 1304.16        2963.75           1406       14002.00     61126.82
 1304.19        2964.00           1409       15651.00     68343.13
 1304.22        2964.25           1412       17594.00     76850.03
 1304.25        2964.50           1416       19660.00     85900.25
 1304.29        2964.75           1419       21229.00     92776.62
 1304.32        2965.00           1422       22990.00    100497.80
 1304.35        2965.25           1426       25550.00    111728.70
 1304.38        2965.50           1429       27109.00    118571.90
 1304.41        2965.75           1432       28679.00    125466.10
 1304.44        2966.00           1436       30925.00    135333.90
 1304.47        2966.25           1439       32737.00    143299.10
 1304.50        2966.50           1442       34226.00    149847.40
 1304.53        2966.75           1446       35856.00    157018.60
 1304.57        2967.00           1449       36330.00    159104.60
 1304.60        2967.25           1452       36476.00    159747.20
 1304.63        2967.50           1456       36418.00    159491.90
 1304.66        2967.75           1459       36444.00    159606.40
 1304.69        2968.00           1462       36275.00    158862.60
 1304.72        2968.25           1466       35479.00    155359.80
 1304.75        2968.50           1469       34367.00    150467.60
 1304.78        2968.75           1472       32797.00    143562.90
 1304.81        2969.00           1476       30448.00    133237.70
 1304.85        2969.25           1479       28928.00    126559.80
 1304.88        2969.50           1482       27179.00    118879.20
 1304.91        2969.75           1486       24938.00    109043.20
 1304.94        2970.00           1489       22958.00    100357.50
 1304.97        2970.25           1492       21360.00     93350.87
 1305.00        2970.50           1496       19386.00     84699.69
 1305.03        2970.75           1499       17650.00     77095.28
 1305.06        2971.00           1502       15970.00     69739.49
 1305.09        2971.25           1506       13830.00     60374.29
 1305.12        2971.50           1509       12226.00     53358.24
 1305.16        2971.75           1513       10107.00     44094.04
 1305.19        2972.00           1516        8397.00     36621.73
 1305.22        2972.25           1519        6740.00     29384.22
 1305.25        2972.50           1523        4481.00     19522.33
 1305.28        2972.75           1526        2862.00     12458.01
 1305.31        2973.00           1529        1385.00      6015.91
 1305.34        2973.25           1533         482.00      2078.60
 1305.37        2973.50           1536         312.00      1337.46
 1305.40        2973.75           1539         255.00      1088.96
 1305.43        2974.00           1543         201.00       853.55
 1305.47        2974.25           1546         163.00       687.90
 1305.50        2974.50           1549         116.00       483.01
 1305.53        2974.75           1553          71.00       286.84
 1305.56        2975.00           1556          69.00       278.12
 1305.59        2975.25           1559          49.00       190.93
 1305.62        2975.50           1563          48.00       186.57
 1305.65        2975.75           1566          40.00       151.70
 1305.68        2976.00           1569          55.00       217.09
 1305.71        2976.25           1573          44.00       169.14
 1305.74        2976.50           1576          44.00       169.14
 1305.77        2976.75           1579          43.00       164.78
 1305.80        2977.00           1583          41.00       156.06
 1305.83        2977.25           1586          49.00       190.93
 1305.87        2977.50           1590          40.00       151.70
 1305.90        2977.75           1593          42.00       160.42
 1305.93        2978.00           1596          47.00       182.22
 1305.96        2978.25           1600          45.00       173.50
 1305.99        2978.50           1603          51.00       199.65
 1306.02        2978.75           1606          53.00       208.37
 1306.05        2979.00           1610          42.00       160.42
 1306.08        2979.25           1613          45.00       173.50
 1306.11        2979.50           1616          39.00       147.34
 1306.14        2979.75           1620          47.00       182.22
 1306.17        2980.00           1623          45.00       173.50
 1306.20        2980.25           1626          50.00       195.29
 1306.23        2980.50           1630          39.00       147.34
 1306.26        2980.75           1633          45.00       173.50
 1306.29        2981.00           1637          48.00       186.57
 1306.33        2981.25           1640          42.00       160.42
 1306.36        2981.50           1643          41.00       156.06
 1306.39        2981.75           1647          42.00       160.42
 1306.42        2982.00           1650          42.00       160.42
 1306.45        2982.25           1653          40.00       151.70
 1306.48        2982.50           1657          41.00       156.06
 1306.51        2982.75           1660          36.00       134.26
 1306.54        2983.00           1663          41.00       156.06
 1306.57        2983.25           1667          44.00       169.14
 1306.60        2983.50           1670          49.00       190.93
 1306.63        2983.75           1673          43.00       164.78
 1306.66        2984.00           1677          49.00       190.93
HS scan finished at 21:46:53
end
