************************************************************
  HS Scan of (1) Internal mercury lamp
************************************************************
Integration time is 0.2294 seconds per sample
dh220619El Arenosillo 37.1 6.73 3.126073pr1000
************************************************************
Dead Time -------------------------  3E-08 
Number of Cycles Used -------------  4 
Starting Wavelength (Angstroms) ---  2950 
Final Wavelength (Angstoms) -------  2984 
Wavelength Increment (Angstroms) --  .25 
Filter Wheel #1 Position ---------- (1) Ground quartz diffuser (ND=2.32)
Filter Wheel #2 Position ---------- (1) Neutral Density 0.494



************************************************************
HS scan start time = 02:04:54
Dark Count =  4.9 


Time (GMT)  Wavelength (Ang)  Step Number  Raw Counts  Counts/Second

  125.27        2950.00           1222          53.00       209.68
  125.34        2950.25           1226          51.00       200.96
  125.37        2950.50           1229          55.00       218.40
  125.40        2950.75           1232          58.00       231.48
  125.43        2951.00           1236          53.00       209.68
  125.46        2951.25           1239          52.00       205.32
  125.50        2951.50           1242          59.00       235.83
  125.53        2951.75           1246          54.00       214.04
  125.56        2952.00           1249          46.00       179.16
  125.59        2952.25           1252          58.00       231.48
  125.62        2952.50           1256          52.00       205.32
  125.65        2952.75           1259          54.00       214.04
  125.68        2953.00           1262          53.00       209.68
  125.71        2953.25           1266          47.00       183.52
  125.74        2953.50           1269          54.00       214.04
  125.77        2953.75           1272          54.00       214.04
  125.80        2954.00           1276          55.00       218.40
  125.83        2954.25           1279          51.00       200.96
  125.87        2954.50           1282          58.00       231.48
  125.90        2954.75           1286          52.00       205.32
  125.93        2955.00           1289          51.00       200.96
  125.96        2955.25           1292          51.00       200.96
  125.99        2955.50           1296          58.00       231.48
  126.02        2955.75           1299          49.00       192.24
  126.05        2956.00           1302          57.00       227.12
  126.08        2956.25           1306          56.00       222.76
  126.11        2956.50           1309          59.00       235.83
  126.15        2956.75           1312          48.00       187.88
  126.18        2957.00           1316          52.00       205.32
  126.21        2957.25           1319          49.00       192.24
  126.24        2957.50           1322          69.00       279.43
  126.27        2957.75           1326          59.00       235.83
  126.30        2958.00           1329          49.00       192.24
  126.33        2958.25           1332          58.00       231.48
  126.36        2958.50           1336          53.00       209.68
  126.39        2958.75           1339          49.00       192.24
  126.42        2959.00           1342          52.00       205.32
  126.45        2959.25           1346          52.00       205.32
  126.49        2959.50           1349          68.00       275.07
  126.52        2959.75           1352          73.00       296.86
  126.55        2960.00           1356          97.00       401.49
  126.58        2960.25           1359         118.00       493.03
  126.61        2960.50           1362         162.00       684.84
  126.64        2960.75           1366         204.00       867.94
  126.67        2961.00           1369         249.00      1064.11
  126.70        2961.25           1372         286.00      1225.42
  126.73        2961.50           1376         335.00      1439.03
  126.76        2961.75           1379         480.00      2071.18
  126.79        2962.00           1382        1034.00      4486.65
  126.83        2962.25           1386        2579.00     11224.79
  126.86        2962.50           1389        3986.00     17363.45
  126.89        2962.75           1392        5324.00     23203.16
  126.92        2963.00           1396        7117.00     31031.93
  126.95        2963.25           1399        8548.00     37282.74
  126.98        2963.50           1402        9982.00     43549.01
  127.01        2963.75           1406       11915.00     51999.54
  127.04        2964.00           1409       13521.00     59023.78
  127.07        2964.25           1412       14778.00     64523.65
  127.10        2964.50           1416       16700.00     72936.66
  127.13        2964.75           1419       18385.00     80315.78
  127.17        2965.00           1422       19722.00     86173.22
  127.20        2965.25           1426       21641.00     94584.05
  127.23        2965.50           1429       23035.00    100696.50
  127.26        2965.75           1432       24414.00    106745.40
  127.29        2966.00           1436       26419.00    115544.10
  127.32        2966.25           1439       27831.00    121743.30
  127.35        2966.50           1442       29005.00    126899.40
  127.38        2966.75           1446       30441.00    133208.30
  127.41        2967.00           1449       30686.00    134284.90
  127.44        2967.25           1452       30904.00    135242.90
  127.48        2967.50           1456       30722.00    134443.10
  127.51        2967.75           1459       30881.00    135141.80
  127.54        2968.00           1462       30705.00    134368.40
  127.57        2968.25           1466       29781.00    130308.30
  127.60        2968.50           1469       28677.00    125458.70
  127.63        2968.75           1472       27038.00    118261.50
  127.66        2969.00           1476       25248.00    110404.70
  127.69        2969.25           1479       23964.00    104771.30
  127.73        2969.50           1482       22558.00     98604.68
  127.76        2969.75           1486       20737.00     90621.37
  127.79        2970.00           1489       19357.00     84573.94
  127.82        2970.25           1492       18056.00     78874.74
  127.85        2970.50           1496       15967.00     69727.66
  127.88        2970.75           1499       14658.00     63998.52
  127.91        2971.00           1502       13215.00     57685.19
  127.94        2971.25           1506       11377.00     49647.12
  127.97        2971.50           1509        9938.00     43356.71
  128.01        2971.75           1513        8310.00     36242.96
  128.04        2972.00           1516        6830.00     29778.55
  128.07        2972.25           1519        5232.00     22801.56
  128.10        2972.50           1523        3409.00     14845.76
  128.13        2972.75           1526        2044.00      8891.21
  128.16        2973.00           1529         875.00      3793.37
  128.19        2973.25           1533         401.00      1726.77
  128.22        2973.50           1536         302.00      1295.17
  128.25        2973.75           1539         247.00      1055.40
  128.28        2974.00           1543         201.00       854.86
  128.31        2974.25           1546         154.00       649.97
  128.35        2974.50           1549         122.00       510.47
  128.38        2974.75           1553          85.00       349.18
  128.41        2975.00           1556          67.00       270.71
  128.44        2975.25           1559          64.00       257.63
  128.47        2975.50           1563          51.00       200.96
  128.50        2975.75           1566          47.00       183.52
  128.53        2976.00           1569          51.00       200.96
  128.56        2976.25           1573          50.00       196.60
  128.59        2976.50           1576          51.00       200.96
  128.62        2976.75           1579          56.00       222.76
  128.65        2977.00           1583          46.00       179.16
  128.68        2977.25           1586          46.00       179.16
  128.71        2977.50           1590          49.00       192.24
  128.74        2977.75           1593          53.00       209.68
  128.78        2978.00           1596          52.00       205.32
  128.81        2978.25           1600          49.00       192.24
  128.84        2978.50           1603          52.00       205.32
  128.87        2978.75           1606          47.00       183.52
  128.90        2979.00           1610          50.00       196.60
  128.93        2979.25           1613          50.00       196.60
  128.96        2979.50           1616          52.00       205.32
  128.99        2979.75           1620          52.00       205.32
  129.02        2980.00           1623          44.00       170.45
  129.05        2980.25           1626          49.00       192.24
  129.08        2980.50           1630          47.00       183.52
  129.11        2980.75           1633          49.00       192.24
  129.14        2981.00           1637          50.00       196.60
  129.17        2981.25           1640          47.00       183.52
  129.20        2981.50           1643          53.00       209.68
  129.23        2981.75           1647          57.00       227.12
  129.27        2982.00           1650          47.00       183.52
  129.30        2982.25           1653          49.00       192.24
  129.33        2982.50           1657          51.00       200.96
  129.36        2982.75           1660          54.00       214.04
  129.39        2983.00           1663          55.00       218.40
  129.42        2983.25           1667          46.00       179.16
  129.45        2983.50           1670          52.00       205.32
  129.48        2983.75           1673          51.00       200.96
  129.51        2984.00           1677          53.00       209.68
HS scan finished at 02:09:44
end
************************************************************
  HS Scan of (1) Internal mercury lamp
************************************************************
Integration time is 0.2294 seconds per sample
dh220619El Arenosillo 37.1 6.73 3.018777pr1000
************************************************************
Dead Time -------------------------  3E-08 
Number of Cycles Used -------------  4 
Starting Wavelength (Angstroms) ---  2950 
Final Wavelength (Angstoms) -------  2984 
Wavelength Increment (Angstroms) --  .25 
Filter Wheel #1 Position ---------- (1) Ground quartz diffuser (ND=2.32)
Filter Wheel #2 Position ---------- (1) Neutral Density 0.494



************************************************************
HS scan start time = 21:39:45
Dark Count =  6.9 


Time (GMT)  Wavelength (Ang)  Step Number  Raw Counts  Counts/Second

 1300.13        2950.00           1222          59.00       227.12
 1300.19        2950.25           1226          53.00       200.96
 1300.22        2950.50           1229          65.00       253.27
 1300.26        2950.75           1232          56.00       214.04
 1300.29        2951.00           1236          51.00       192.24
 1300.32        2951.25           1239          62.00       240.19
 1300.35        2951.50           1242          59.00       227.12
 1300.38        2951.75           1246          45.00       166.09
 1300.41        2952.00           1249          58.00       222.76
 1300.44        2952.25           1252          59.00       227.12
 1300.47        2952.50           1256          65.00       253.27
 1300.50        2952.75           1259          59.00       227.12
 1300.53        2953.00           1262          55.00       209.68
 1300.56        2953.25           1266          54.00       205.32
 1300.59        2953.50           1269          56.00       214.04
 1300.63        2953.75           1272          52.00       196.60
 1300.66        2954.00           1276          61.00       235.83
 1300.69        2954.25           1279          56.00       214.04
 1300.72        2954.50           1282          51.00       192.24
 1300.75        2954.75           1286          53.00       200.96
 1300.78        2955.00           1289          62.00       240.19
 1300.81        2955.25           1292          56.00       214.04
 1300.84        2955.50           1296          60.00       231.48
 1300.87        2955.75           1299          51.00       192.24
 1300.90        2956.00           1302          52.00       196.60
 1300.93        2956.25           1306          56.00       214.04
 1300.96        2956.50           1309          57.00       218.40
 1300.99        2956.75           1312          50.00       187.88
 1301.03        2957.00           1316          48.00       179.16
 1301.06        2957.25           1319          58.00       222.76
 1301.09        2957.50           1322          54.00       205.32
 1301.12        2957.75           1326          53.00       200.96
 1301.15        2958.00           1329          49.00       183.52
 1301.18        2958.25           1332          52.00       196.60
 1301.21        2958.50           1336          50.00       187.88
 1301.24        2958.75           1339          57.00       218.40
 1301.27        2959.00           1342          49.00       183.52
 1301.30        2959.25           1346          57.00       218.40
 1301.34        2959.50           1349          57.00       218.40
 1301.37        2959.75           1352          66.00       257.63
 1301.40        2960.00           1356          88.00       353.53
 1301.43        2960.25           1359         113.00       462.52
 1301.46        2960.50           1362         145.00       602.02
 1301.49        2960.75           1366         194.00       815.63
 1301.52        2961.00           1369         225.00       950.77
 1301.55        2961.25           1372         258.00      1094.63
 1301.58        2961.50           1376         298.00      1269.01
 1301.61        2961.75           1379         409.00      1752.93
 1301.65        2962.00           1382         839.00      3627.68
 1301.68        2962.25           1386        2267.00      9855.14
 1301.71        2962.50           1389        3635.00     15823.12
 1301.74        2962.75           1392        4916.00     21413.49
 1301.77        2963.00           1396        6526.00     28442.31
 1301.80        2963.25           1399        7911.00     34491.21
 1301.83        2963.50           1402        9105.00     39707.69
 1301.86        2963.75           1406       10916.00     47622.92
 1301.89        2964.00           1409       12437.00     54273.57
 1301.93        2964.25           1412       13728.00     59920.61
 1301.96        2964.50           1416       15654.00     68348.81
 1301.99        2964.75           1419       16962.00     74075.06
 1302.02        2965.00           1422       18229.00     79623.71
 1302.05        2965.25           1426       20171.00     88132.01
 1302.08        2965.50           1429       21514.00     94018.52
 1302.11        2965.75           1432       22885.00    100029.90
 1302.14        2966.00           1436       24536.00    107271.90
 1302.17        2966.25           1439       25821.00    112910.60
 1302.21        2966.50           1442       27239.00    119135.20
 1302.24        2966.75           1446       28632.00    125252.20
 1302.27        2967.00           1449       28805.00    126012.10
 1302.30        2967.25           1452       29067.00    127162.90
 1302.33        2967.50           1456       28971.00    126741.20
 1302.36        2967.75           1459       28777.00    125889.10
 1302.39        2968.00           1462       28927.00    126548.00
 1302.42        2968.25           1466       28117.00    122990.50
 1302.45        2968.50           1469       27045.00    118283.40
 1302.48        2968.75           1472       25736.00    112537.60
 1302.51        2969.00           1476       23988.00    104867.80
 1302.55        2969.25           1479       22780.00     99569.43
 1302.58        2969.50           1482       21270.00     92948.88
 1302.61        2969.75           1486       19550.00     85410.81
 1302.64        2970.00           1489       18407.00     80403.40
 1302.67        2970.25           1492       17009.00     74280.86
 1302.70        2970.50           1496       15344.00     66991.96
 1302.73        2970.75           1499       13959.00     60931.24
 1302.76        2971.00           1502       12576.00     54881.48
 1302.79        2971.25           1506       10671.00     46551.89
 1302.83        2971.50           1509        9282.00     40481.13
 1302.86        2971.75           1513        7593.00     33102.17
 1302.89        2972.00           1516        6255.00     27258.99
 1302.92        2972.25           1519        4912.00     21396.03
 1302.95        2972.50           1523        3209.00     13964.44
 1302.98        2972.75           1526        1984.00      8620.80
 1303.01        2973.00           1529         925.00      4002.66
 1303.04        2973.25           1533         391.00      1674.45
 1303.07        2973.50           1536         319.00      1360.56
 1303.11        2973.75           1539         267.00      1133.87
 1303.14        2974.00           1543         234.00       990.00
 1303.17        2974.25           1546         167.00       697.92
 1303.20        2974.50           1549         144.00       597.66
 1303.23        2974.75           1553          98.00       397.13
 1303.26        2975.00           1556          83.00       331.74
 1303.29        2975.25           1559          59.00       227.12
 1303.32        2975.50           1563          51.00       192.24
 1303.35        2975.75           1566          55.00       209.68
 1303.38        2976.00           1569          51.00       192.24
 1303.42        2976.25           1573          50.00       187.88
 1303.45        2976.50           1576          55.00       209.68
 1303.48        2976.75           1579          55.00       209.68
 1303.51        2977.00           1583          50.00       187.88
 1303.54        2977.25           1586          51.00       192.24
 1303.57        2977.50           1590          43.00       157.37
 1303.60        2977.75           1593          52.00       196.60
 1303.63        2978.00           1596          54.00       205.32
 1303.66        2978.25           1600          43.00       157.37
 1303.69        2978.50           1603          55.00       209.68
 1303.72        2978.75           1606          48.00       179.16
 1303.76        2979.00           1610          55.00       209.68
 1303.79        2979.25           1613          59.00       227.12
 1303.82        2979.50           1616          55.00       209.68
 1303.85        2979.75           1620          49.00       183.52
 1303.88        2980.00           1623          50.00       187.88
 1303.91        2980.25           1626          53.00       200.96
 1303.94        2980.50           1630          47.00       174.80
 1303.97        2980.75           1633          48.00       179.16
 1304.00        2981.00           1637          49.00       183.52
 1304.03        2981.25           1640          53.00       200.96
 1304.06        2981.50           1643          52.00       196.60
 1304.09        2981.75           1647          49.00       183.52
 1304.12        2982.00           1650          50.00       187.88
 1304.15        2982.25           1653          52.00       196.60
 1304.18        2982.50           1657          45.00       166.09
 1304.21        2982.75           1660          50.00       187.88
 1304.25        2983.00           1663          53.00       200.96
 1304.28        2983.25           1667          47.00       174.80
 1304.31        2983.50           1670          55.00       209.68
 1304.34        2983.75           1673          51.00       192.24
 1304.37        2984.00           1677          42.00       153.01
HS scan finished at 21:44:35
end
