************************************************************
  HS Scan of (1) Internal mercury lamp
************************************************************
Integration time is 0.2294 seconds per sample
dh230618Manchester 53.47 2.23 2.804185pr1000
************************************************************
Dead Time -------------------------  3E-08 
Number of Cycles Used -------------  4 
Starting Wavelength (Angstroms) ---  2950 
Final Wavelength (Angstoms) -------  2984 
Wavelength Increment (Angstroms) --  .25 
Filter Wheel #1 Position ---------- (1) Ground quartz diffuser (ND=2.32)
Filter Wheel #2 Position ---------- (1) Neutral Density 0.494



************************************************************
HS scan start time = 01:25:35
Dark Count =  4.1 


Time (GMT)  Wavelength (Ang)  Step Number  Raw Counts  Counts/Second

   85.95        2950.00           1222          44.00       173.93
   86.01        2950.25           1226          63.00       256.76
   86.04        2950.50           1229          64.00       261.12
   86.07        2950.75           1232          52.00       208.81
   86.10        2951.00           1236          58.00       234.96
   86.14        2951.25           1239          53.00       213.17
   86.17        2951.50           1242          63.00       256.76
   86.20        2951.75           1246          48.00       191.37
   86.23        2952.00           1249          61.00       248.04
   86.26        2952.25           1252          50.00       200.09
   86.29        2952.50           1256          54.00       217.53
   86.32        2952.75           1259          57.00       230.60
   86.35        2953.00           1262          62.00       252.40
   86.38        2953.25           1266          52.00       208.81
   86.41        2953.50           1269          55.00       221.88
   86.44        2953.75           1272          57.00       230.60
   86.47        2954.00           1276          57.00       230.60
   86.50        2954.25           1279          48.00       191.37
   86.54        2954.50           1282          54.00       217.53
   86.57        2954.75           1286          62.00       252.40
   86.60        2955.00           1289          54.00       217.53
   86.63        2955.25           1292          49.00       195.73
   86.66        2955.50           1296          62.00       252.40
   86.69        2955.75           1299          54.00       217.53
   86.72        2956.00           1302          50.00       200.09
   86.75        2956.25           1306          57.00       230.60
   86.78        2956.50           1309          54.00       217.53
   86.81        2956.75           1312          59.00       239.32
   86.85        2957.00           1316          60.00       243.68
   86.88        2957.25           1319          47.00       187.01
   86.91        2957.50           1322          62.00       252.40
   86.94        2957.75           1326          57.00       230.60
   86.97        2958.00           1329          59.00       239.32
   87.00        2958.25           1332          53.00       213.17
   87.03        2958.50           1336          55.00       221.88
   87.06        2958.75           1339          44.00       173.93
   87.09        2959.00           1342          60.00       243.68
   87.12        2959.25           1346          65.00       265.48
   87.15        2959.50           1349          66.00       269.84
   87.19        2959.75           1352          83.00       343.94
   87.22        2960.00           1356         104.00       435.49
   87.25        2960.25           1359         135.00       570.63
   87.28        2960.50           1362         155.00       657.82
   87.31        2960.75           1366         203.00       867.07
   87.34        2961.00           1369         232.00       993.49
   87.37        2961.25           1372         284.00      1220.18
   87.40        2961.50           1376         330.00      1420.72
   87.43        2961.75           1379         462.00      1996.20
   87.46        2962.00           1382         888.00      3853.54
   87.50        2962.25           1386        2323.00     10111.61
   87.53        2962.50           1389        3597.00     15669.53
   87.56        2962.75           1392        5099.00     22224.49
   87.59        2963.00           1396        6885.00     30022.24
   87.62        2963.25           1399        8284.00     36132.87
   87.65        2963.50           1402        9692.00     42285.08
   87.68        2963.75           1406       11601.00     50630.03
   87.71        2964.00           1409       12947.00     56516.41
   87.74        2964.25           1412       14543.00     63498.79
   87.78        2964.50           1416       16620.00     72589.91
   87.81        2964.75           1419       17650.00     77100.10
   87.84        2965.00           1422       19212.00     83942.16
   87.87        2965.25           1426       21169.00     92518.42
   87.90        2965.50           1429       22490.00     98310.01
   87.93        2965.75           1432       24130.00    105503.00
   87.96        2966.00           1436       25818.00    112909.70
   87.99        2966.25           1439       27447.00    120060.70
   88.03        2966.50           1442       28676.00    125457.80
   88.06        2966.75           1446       29965.00    131120.30
   88.09        2967.00           1449       30243.00    132341.80
   88.12        2967.25           1452       30378.00    132934.90
   88.15        2967.50           1456       30319.00    132675.70
   88.18        2967.75           1459       30454.00    133268.90
   88.21        2968.00           1462       30328.00    132715.20
   88.24        2968.25           1466       29441.00    128818.20
   88.27        2968.50           1469       28569.00    124987.80
   88.31        2968.75           1472       27101.00    118541.60
   88.34        2969.00           1476       25310.00    110680.30
   88.37        2969.25           1479       23811.00    104103.60
   88.40        2969.50           1482       22404.00     97932.91
   88.43        2969.75           1486       20511.00     89634.35
   88.46        2970.00           1489       19159.00     83709.96
   88.49        2970.25           1492       17729.00     77446.09
   88.52        2970.50           1496       15935.00     69591.09
   88.55        2970.75           1499       14538.00     63476.92
   88.59        2971.00           1502       13118.00     57264.38
   88.62        2971.25           1506       11345.00     49510.72
   88.65        2971.50           1509       10052.00     43858.46
   88.68        2971.75           1513        8155.00     35569.32
   88.71        2972.00           1516        6566.00     28629.20
   88.74        2972.25           1519        5308.00     23136.81
   88.77        2972.50           1523        3427.00     14927.78
   88.80        2972.75           1526        2128.00      9261.07
   88.84        2973.00           1529        1034.00      4490.14
   88.87        2973.25           1533         405.00      1747.69
   88.90        2973.50           1536         287.00      1233.26
   88.93        2973.75           1539         239.00      1024.01
   88.96        2974.00           1543         209.00       893.22
   88.99        2974.25           1546         151.00       640.38
   89.02        2974.50           1549         116.00       487.80
   89.05        2974.75           1553          87.00       361.38
   89.08        2975.00           1556          68.00       278.56
   89.11        2975.25           1559          58.00       234.96
   89.14        2975.50           1563          60.00       243.68
   89.17        2975.75           1566          50.00       200.09
   89.21        2976.00           1569          55.00       221.88
   89.24        2976.25           1573          56.00       226.24
   89.27        2976.50           1576          66.00       269.84
   89.30        2976.75           1579          47.00       187.01
   89.33        2977.00           1583          52.00       208.81
   89.36        2977.25           1586          52.00       208.81
   89.39        2977.50           1590          49.00       195.73
   89.42        2977.75           1593          45.00       178.29
   89.45        2978.00           1596          51.00       204.45
   89.48        2978.25           1600          48.00       191.37
   89.51        2978.50           1603          49.00       195.73
   89.54        2978.75           1606          54.00       217.53
   89.58        2979.00           1610          57.00       230.60
   89.61        2979.25           1613          45.00       178.29
   89.64        2979.50           1616          54.00       217.53
   89.67        2979.75           1620          60.00       243.68
   89.70        2980.00           1623          57.00       230.60
   89.73        2980.25           1626          56.00       226.24
   89.76        2980.50           1630          47.00       187.01
   89.79        2980.75           1633          50.00       200.09
   89.82        2981.00           1637          53.00       213.17
   89.85        2981.25           1640          46.00       182.65
   89.89        2981.50           1643          40.00       156.50
   89.92        2981.75           1647          57.00       230.60
   89.95        2982.00           1650          49.00       195.73
   89.98        2982.25           1653          49.00       195.73
   90.01        2982.50           1657          50.00       200.09
   90.04        2982.75           1660          52.00       208.81
   90.07        2983.00           1663          50.00       200.09
   90.10        2983.25           1667          52.00       208.81
   90.13        2983.50           1670          49.00       195.73
   90.16        2983.75           1673          50.00       200.09
   90.19        2984.00           1677          47.00       187.01
HS scan finished at 01:30:25
end
************************************************************
  HS Scan of (1) Internal mercury lamp
************************************************************
Integration time is 0.2294 seconds per sample
dh230618Manchester 53.47 2.23 2.804185pr1000
************************************************************
Dead Time -------------------------  3E-08 
Number of Cycles Used -------------  4 
Starting Wavelength (Angstroms) ---  2950 
Final Wavelength (Angstoms) -------  2984 
Wavelength Increment (Angstroms) --  .25 
Filter Wheel #1 Position ---------- (1) Ground quartz diffuser (ND=2.32)
Filter Wheel #2 Position ---------- (1) Neutral Density 0.494



************************************************************
HS scan start time = 21:42:03
Dark Count =  5.6 


Time (GMT)  Wavelength (Ang)  Step Number  Raw Counts  Counts/Second

 1302.42        2950.00           1222          57.00       224.06
 1302.48        2950.25           1226          57.00       224.06
 1302.52        2950.50           1229          52.00       202.27
 1302.55        2950.75           1232          60.00       237.14
 1302.58        2951.00           1236          56.00       219.71
 1302.61        2951.25           1239          52.00       202.27
 1302.64        2951.50           1242          53.00       206.63
 1302.67        2951.75           1246          52.00       202.27
 1302.70        2952.00           1249          57.00       224.06
 1302.73        2952.25           1252          60.00       237.14
 1302.76        2952.50           1256          57.00       224.06
 1302.79        2952.75           1259          52.00       202.27
 1302.82        2953.00           1262          54.00       210.99
 1302.85        2953.25           1266          53.00       206.63
 1302.88        2953.50           1269          50.00       193.55
 1302.91        2953.75           1272          58.00       228.42
 1302.94        2954.00           1276          53.00       206.63
 1302.98        2954.25           1279          50.00       193.55
 1303.01        2954.50           1282          47.00       180.47
 1303.04        2954.75           1286          60.00       237.14
 1303.07        2955.00           1289          54.00       210.99
 1303.10        2955.25           1292          43.00       163.03
 1303.13        2955.50           1296          51.00       197.91
 1303.16        2955.75           1299          63.00       250.22
 1303.19        2956.00           1302          53.00       206.63
 1303.22        2956.25           1306          73.00       293.81
 1303.25        2956.50           1309          63.00       250.22
 1303.28        2956.75           1312          61.00       241.50
 1303.31        2957.00           1316          53.00       206.63
 1303.35        2957.25           1319          57.00       224.06
 1303.38        2957.50           1322          54.00       210.99
 1303.41        2957.75           1326          54.00       210.99
 1303.44        2958.00           1329          53.00       206.63
 1303.47        2958.25           1332          57.00       224.06
 1303.50        2958.50           1336          52.00       202.27
 1303.53        2958.75           1339          59.00       232.78
 1303.56        2959.00           1342          55.00       215.35
 1303.59        2959.25           1346          53.00       206.63
 1303.62        2959.50           1349          66.00       263.30
 1303.65        2959.75           1352          72.00       289.45
 1303.68        2960.00           1356         102.00       420.23
 1303.72        2960.25           1359         135.00       564.09
 1303.75        2960.50           1362         166.00       699.23
 1303.78        2960.75           1366         226.00       960.79
 1303.81        2961.00           1369         263.00      1122.10
 1303.84        2961.25           1372         289.00      1235.44
 1303.87        2961.50           1376         394.00      1693.20
 1303.90        2961.75           1379         672.00      2905.22
 1303.93        2962.00           1382        1550.00      6733.71
 1303.96        2962.25           1386        3308.00     14402.04
 1303.99        2962.50           1389        4645.00     20236.34
 1304.02        2962.75           1392        6056.00     26395.78
 1304.06        2963.00           1396        7861.00     34278.48
 1304.09        2963.25           1399        9185.00     40062.95
 1304.12        2963.50           1402       10593.00     46216.61
 1304.15        2963.75           1406       12512.00     54607.26
 1304.18        2964.00           1409       13850.00     60460.05
 1304.21        2964.25           1412       15349.00     67019.53
 1304.24        2964.50           1416       17179.00     75030.95
 1304.27        2964.75           1419       18607.00     81285.16
 1304.30        2965.00           1422       20034.00     87537.34
 1304.33        2965.25           1426       21957.00     95966.39
 1304.36        2965.50           1429       23538.00    102899.60
 1304.40        2965.75           1432       24867.00    108729.90
 1304.43        2966.00           1436       26628.00    116458.50
 1304.46        2966.25           1439       27950.00    122262.80
 1304.49        2966.50           1442       28969.00    126738.20
 1304.52        2966.75           1446       30176.00    132040.80
 1304.55        2967.00           1449       30416.00    133095.30
 1304.58        2967.25           1452       30486.00    133402.90
 1304.61        2967.50           1456       30329.00    132713.00
 1304.64        2967.75           1459       30213.00    132203.40
 1304.67        2968.00           1462       29952.00    131056.60
 1304.71        2968.25           1466       28950.00    126654.70
 1304.74        2968.50           1469       27456.00    120093.60
 1304.77        2968.75           1472       26025.00    113811.70
 1304.80        2969.00           1476       24291.00    106202.70
 1304.83        2969.25           1479       22903.00    100114.60
 1304.86        2969.50           1482       21411.00     93572.69
 1304.89        2969.75           1486       19790.00     86468.13
 1304.92        2970.00           1489       18384.00     80308.34
 1304.95        2970.25           1492       17217.00     75197.35
 1304.99        2970.50           1496       15324.00     66910.11
 1305.02        2970.75           1499       13831.00     60376.92
 1305.05        2971.00           1502       12385.00     54051.84
 1305.08        2971.25           1506       10507.00     45840.68
 1305.11        2971.50           1509        8936.00     38974.93
 1305.14        2971.75           1513        7163.00     31229.77
 1305.17        2972.00           1516        5693.00     24810.96
 1305.20        2972.25           1519        4314.00     18791.76
 1305.23        2972.50           1523        2607.00     11343.88
 1305.26        2972.75           1526        1452.00      6306.34
 1305.29        2973.00           1529         592.00      2556.43
 1305.33        2973.25           1533         358.00      1536.25
 1305.36        2973.50           1536         281.00      1200.57
 1305.39        2973.75           1539         215.00       912.84
 1305.42        2974.00           1543         184.00       777.70
 1305.45        2974.25           1546         129.00       537.93
 1305.48        2974.50           1549         103.00       424.59
 1305.51        2974.75           1553          76.00       306.89
 1305.54        2975.00           1556          72.00       289.45
 1305.57        2975.25           1559          64.00       254.58
 1305.61        2975.50           1563          57.00       224.06
 1305.64        2975.75           1566          57.00       224.06
 1305.67        2976.00           1569          52.00       202.27
 1305.70        2976.25           1573          52.00       202.27
 1305.73        2976.50           1576          58.00       228.42
 1305.76        2976.75           1579          49.00       189.19
 1305.79        2977.00           1583          52.00       202.27
 1305.82        2977.25           1586          51.00       197.91
 1305.85        2977.50           1590          54.00       210.99
 1305.88        2977.75           1593          51.00       197.91
 1305.91        2978.00           1596          50.00       193.55
 1305.94        2978.25           1600          53.00       206.63
 1305.98        2978.50           1603          50.00       193.55
 1306.01        2978.75           1606          51.00       197.91
 1306.04        2979.00           1610          47.00       180.47
 1306.07        2979.25           1613          50.00       193.55
 1306.10        2979.50           1616          54.00       210.99
 1306.13        2979.75           1620          49.00       189.19
 1306.16        2980.00           1623          47.00       180.47
 1306.19        2980.25           1626          51.00       197.91
 1306.22        2980.50           1630          54.00       210.99
 1306.25        2980.75           1633          50.00       193.55
 1306.28        2981.00           1637          50.00       193.55
 1306.32        2981.25           1640          42.00       158.68
 1306.35        2981.50           1643          53.00       206.63
 1306.38        2981.75           1647          47.00       180.47
 1306.41        2982.00           1650          50.00       193.55
 1306.44        2982.25           1653          54.00       210.99
 1306.47        2982.50           1657          50.00       193.55
 1306.50        2982.75           1660          46.00       176.11
 1306.53        2983.00           1663          54.00       210.99
 1306.56        2983.25           1667          65.00       258.94
 1306.59        2983.50           1670          57.00       224.06
 1306.62        2983.75           1673          51.00       197.91
 1306.65        2984.00           1677          89.00       363.56
HS scan finished at 21:46:52
end
