************************************************************
  HS Scan of (1) Internal mercury lamp
************************************************************
Integration time is 0.2294 seconds per sample
dh230619El Arenosillo 37.1 6.73 2.965129pr1000
************************************************************
Dead Time -------------------------  3E-08 
Number of Cycles Used -------------  4 
Starting Wavelength (Angstroms) ---  2950 
Final Wavelength (Angstoms) -------  2984 
Wavelength Increment (Angstroms) --  .25 
Filter Wheel #1 Position ---------- (1) Ground quartz diffuser (ND=2.32)
Filter Wheel #2 Position ---------- (1) Neutral Density 0.494



************************************************************
HS scan start time = 01:59:02
Dark Count =  5.2 


Time (GMT)  Wavelength (Ang)  Step Number  Raw Counts  Counts/Second

  119.40        2950.00           1222          57.00       225.81
  119.47        2950.25           1226          54.00       212.73
  119.50        2950.50           1229          54.00       212.73
  119.53        2950.75           1232          56.00       221.45
  119.56        2951.00           1236          58.00       230.17
  119.59        2951.25           1239          53.00       208.37
  119.62        2951.50           1242          53.00       208.37
  119.65        2951.75           1246          62.00       247.60
  119.68        2952.00           1249          54.00       212.73
  119.71        2952.25           1252          62.00       247.60
  119.74        2952.50           1256          57.00       225.81
  119.77        2952.75           1259          60.00       238.89
  119.80        2953.00           1262          55.00       217.09
  119.84        2953.25           1266          57.00       225.81
  119.87        2953.50           1269          57.00       225.81
  119.90        2953.75           1272          67.00       269.40
  119.93        2954.00           1276          60.00       238.89
  119.96        2954.25           1279          59.00       234.53
  119.99        2954.50           1282          63.00       251.96
  120.02        2954.75           1286          52.00       204.01
  120.05        2955.00           1289          59.00       234.53
  120.08        2955.25           1292          53.00       208.37
  120.11        2955.50           1296          53.00       208.37
  120.14        2955.75           1299          62.00       247.60
  120.17        2956.00           1302          56.00       221.45
  120.20        2956.25           1306          48.00       186.57
  120.23        2956.50           1309          55.00       217.09
  120.27        2956.75           1312          57.00       225.81
  120.30        2957.00           1316          51.00       199.65
  120.33        2957.25           1319          61.00       243.25
  120.36        2957.50           1322          56.00       221.45
  120.39        2957.75           1326          49.00       190.93
  120.42        2958.00           1329          62.00       247.60
  120.45        2958.25           1332          55.00       217.09
  120.48        2958.50           1336          62.00       247.60
  120.51        2958.75           1339          57.00       225.81
  120.54        2959.00           1342          59.00       234.53
  120.57        2959.25           1346          55.00       217.09
  120.61        2959.50           1349          56.00       221.45
  120.64        2959.75           1352          70.00       282.48
  120.67        2960.00           1356          98.00       404.54
  120.70        2960.25           1359         131.00       548.40
  120.73        2960.50           1362         154.00       648.66
  120.76        2960.75           1366         205.00       870.99
  120.79        2961.00           1369         240.00      1023.57
  120.82        2961.25           1372         266.00      1136.92
  120.85        2961.50           1376         358.00      1538.00
  120.88        2961.75           1379         533.00      2300.94
  120.91        2962.00           1382        1181.00      5126.33
  120.95        2962.25           1386        2683.00     11677.15
  120.98        2962.50           1389        3987.00     17366.50
  121.01        2962.75           1392        5344.00     23289.15
  121.04        2963.00           1396        6888.00     30030.53
  121.07        2963.25           1399        8066.00     35175.72
  121.10        2963.50           1402        9466.00     41292.62
  121.13        2963.75           1406       11186.00     48810.75
  121.16        2964.00           1409       12608.00     55028.87
  121.19        2964.25           1412       14162.00     61826.87
  121.22        2964.50           1416       16036.00     70028.40
  121.26        2964.75           1419       17342.00     75746.48
  121.29        2965.00           1422       18774.00     82018.49
  121.32        2965.25           1426       20458.00     89397.25
  121.35        2965.50           1429       21827.00     95398.19
  121.38        2965.75           1432       23250.00    101638.10
  121.41        2966.00           1436       24943.00    109065.10
  121.44        2966.25           1439       26170.00    114449.80
  121.47        2966.50           1442       27382.00    119770.50
  121.50        2966.75           1446       28531.00    124816.10
  121.53        2967.00           1449       28900.00    126436.80
  121.57        2967.25           1452       28746.00    125760.40
  121.60        2967.50           1456       28688.00    125505.70
  121.63        2967.75           1459       28805.00    126019.60
  121.66        2968.00           1462       28694.00    125532.00
  121.69        2968.25           1466       27461.00    120117.30
  121.72        2968.50           1469       26448.00    115670.10
  121.75        2968.75           1472       25295.00    110609.70
  121.78        2969.00           1476       23799.00    104046.20
  121.81        2969.25           1479       22313.00     97529.06
  121.85        2969.50           1482       21159.00     92469.78
  121.88        2969.75           1486       19197.00     83871.63
  121.91        2970.00           1489       17995.00     78606.25
  121.94        2970.25           1492       16676.00     72830.28
  121.97        2970.50           1496       14971.00     65366.95
  122.00        2970.75           1499       13667.00     59661.19
  122.03        2971.00           1502       12215.00     53310.13
  122.06        2971.25           1506       10328.00     45060.00
  122.09        2971.50           1509        9010.00     39300.02
  122.12        2971.75           1513        7321.00     31921.58
  122.15        2972.00           1516        6108.00     26624.57
  122.19        2972.25           1519        4838.00     21080.46
  122.22        2972.50           1523        3171.00     13806.07
  122.25        2972.75           1526        1976.00      8593.32
  122.28        2973.00           1529         890.00      3857.46
  122.31        2973.25           1533         372.00      1599.03
  122.34        2973.50           1536         285.00      1219.75
  122.37        2973.75           1539         261.00      1115.12
  122.40        2974.00           1543         216.00       918.94
  122.43        2974.25           1546         163.00       687.90
  122.46        2974.50           1549         136.00       570.19
  122.49        2974.75           1553          90.00       369.66
  122.52        2975.00           1556          73.00       295.56
  122.55        2975.25           1559          57.00       225.81
  122.58        2975.50           1563          48.00       186.57
  122.62        2975.75           1566          53.00       208.37
  122.65        2976.00           1569          51.00       199.65
  122.68        2976.25           1573          50.00       195.29
  122.71        2976.50           1576          50.00       195.29
  122.74        2976.75           1579          51.00       199.65
  122.77        2977.00           1583          59.00       234.53
  122.80        2977.25           1586          55.00       217.09
  122.83        2977.50           1590          51.00       199.65
  122.86        2977.75           1593          49.00       190.93
  122.89        2978.00           1596          51.00       199.65
  122.92        2978.25           1600          45.00       173.50
  122.95        2978.50           1603          53.00       208.37
  122.98        2978.75           1606          53.00       208.37
  123.01        2979.00           1610          52.00       204.01
  123.04        2979.25           1613          47.00       182.22
  123.08        2979.50           1616          47.00       182.22
  123.11        2979.75           1620          51.00       199.65
  123.14        2980.00           1623          47.00       182.22
  123.17        2980.25           1626          51.00       199.65
  123.20        2980.50           1630          39.00       147.34
  123.23        2980.75           1633          51.00       199.65
  123.26        2981.00           1637          50.00       195.29
  123.29        2981.25           1640          52.00       204.01
  123.32        2981.50           1643          60.00       238.89
  123.35        2981.75           1647          58.00       230.17
  123.38        2982.00           1650          58.00       230.17
  123.42        2982.25           1653          48.00       186.57
  123.45        2982.50           1657          48.00       186.57
  123.48        2982.75           1660          43.00       164.78
  123.51        2983.00           1663          46.00       177.86
  123.54        2983.25           1667          44.00       169.14
  123.57        2983.50           1670          43.00       164.78
  123.60        2983.75           1673          55.00       217.09
  123.63        2984.00           1677          48.00       186.57
HS scan finished at 02:03:51
end
