************************************************************
  HS Scan of (1) Internal mercury lamp
************************************************************
Integration time is 0.2294 seconds per sample
dh240618Manchester 53.47 2.23 2.804185pr1000
************************************************************
Dead Time -------------------------  3E-08 
Number of Cycles Used -------------  4 
Starting Wavelength (Angstroms) ---  2950 
Final Wavelength (Angstoms) -------  2984 
Wavelength Increment (Angstroms) --  .25 
Filter Wheel #1 Position ---------- (1) Ground quartz diffuser (ND=2.32)
Filter Wheel #2 Position ---------- (1) Neutral Density 0.494



************************************************************
HS scan start time = 01:27:46
Dark Count =  6.2 


Time (GMT)  Wavelength (Ang)  Step Number  Raw Counts  Counts/Second

   88.14        2950.00           1222          56.00       217.09
   88.21        2950.25           1226          60.00       234.53
   88.24        2950.50           1229          56.00       217.09
   88.27        2950.75           1232          54.00       208.37
   88.30        2951.00           1236          57.00       221.45
   88.33        2951.25           1239          59.00       230.17
   88.36        2951.50           1242          62.00       243.25
   88.39        2951.75           1246          49.00       186.57
   88.42        2952.00           1249          53.00       204.01
   88.45        2952.25           1252          54.00       208.37
   88.48        2952.50           1256          51.00       195.29
   88.51        2952.75           1259          51.00       195.29
   88.54        2953.00           1262          53.00       204.01
   88.57        2953.25           1266          53.00       204.01
   88.61        2953.50           1269          50.00       190.93
   88.64        2953.75           1272          56.00       217.09
   88.67        2954.00           1276          58.00       225.81
   88.70        2954.25           1279          65.00       256.32
   88.73        2954.50           1282          53.00       204.01
   88.76        2954.75           1286          58.00       225.81
   88.79        2955.00           1289          50.00       190.93
   88.82        2955.25           1292          52.00       199.65
   88.85        2955.50           1296          59.00       230.17
   88.88        2955.75           1299          60.00       234.53
   88.91        2956.00           1302          68.00       269.40
   88.94        2956.25           1306          53.00       204.01
   88.97        2956.50           1309          55.00       212.73
   89.01        2956.75           1312          48.00       182.22
   89.04        2957.00           1316          54.00       208.37
   89.07        2957.25           1319          47.00       177.86
   89.10        2957.50           1322          58.00       225.81
   89.13        2957.75           1326          64.00       251.96
   89.16        2958.00           1329          51.00       195.29
   89.19        2958.25           1332          55.00       212.73
   89.22        2958.50           1336          57.00       221.45
   89.25        2958.75           1339          58.00       225.81
   89.28        2959.00           1342          63.00       247.60
   89.32        2959.25           1346          58.00       225.81
   89.35        2959.50           1349          60.00       234.53
   89.38        2959.75           1352          74.00       295.56
   89.41        2960.00           1356          99.00       404.54
   89.44        2960.25           1359         121.00       500.44
   89.47        2960.50           1362         148.00       618.15
   89.50        2960.75           1366         208.00       879.71
   89.53        2961.00           1369         238.00      1010.49
   89.56        2961.25           1372         278.00      1184.87
   89.59        2961.50           1376         327.00      1398.49
   89.63        2961.75           1379         421.00      1808.29
   89.66        2962.00           1382         800.00      3460.69
   89.69        2962.25           1386        2170.00      9435.10
   89.72        2962.50           1389        3562.00     15507.65
   89.75        2962.75           1392        4891.00     21307.43
   89.78        2963.00           1396        6538.00     28497.76
   89.81        2963.25           1399        8010.00     34926.73
   89.84        2963.50           1402        9543.00     41624.75
   89.87        2963.75           1406       11625.00     50725.78
   89.90        2964.00           1409       12903.00     56314.76
   89.93        2964.25           1412       14401.00     62868.24
   89.96        2964.50           1416       16397.00     71604.40
   90.00        2964.75           1419       17857.00     77997.47
   90.03        2965.00           1422       19316.00     84388.62
   90.06        2965.25           1426       21109.00     92246.22
   90.09        2965.50           1429       22418.00     97985.09
   90.12        2965.75           1432       23833.00    104190.90
   90.15        2966.00           1436       25781.00    112738.10
   90.18        2966.25           1439       27181.00    118883.60
   90.21        2966.50           1442       28549.00    124890.80
   90.25        2966.75           1446       30022.00    131361.50
   90.28        2967.00           1449       30492.00    133426.70
   90.31        2967.25           1452       30543.00    133650.80
   90.34        2967.50           1456       30576.00    133795.80
   90.37        2967.75           1459       30413.00    133079.50
   90.40        2968.00           1462       30460.00    133286.00
   90.43        2968.25           1466       29792.00    130351.00
   90.46        2968.50           1469       28689.00    125505.70
   90.50        2968.75           1472       27570.00    120591.60
   90.53        2969.00           1476       25544.00    111698.00
   90.56        2969.25           1479       24115.00    105428.00
   90.59        2969.50           1482       22908.00    100133.80
   90.62        2969.75           1486       20964.00     91610.62
   90.65        2970.00           1489       19438.00     84923.16
   90.68        2970.25           1492       18204.00     79517.28
   90.71        2970.50           1496       16317.00     71254.16
   90.74        2970.75           1499       14837.00     64776.15
   90.78        2971.00           1502       13487.00     58869.35
   90.81        2971.25           1506       11630.00     50747.65
   90.84        2971.50           1509       10158.00     44312.58
   90.87        2971.75           1513        8528.00     37189.68
   90.90        2972.00           1516        7096.00     30934.54
   90.93        2972.25           1519        5607.00     24432.90
   90.96        2972.50           1523        3837.00     16707.59
   90.99        2972.75           1526        2358.00     10255.12
   91.02        2973.00           1529        1212.00      5257.15
   91.06        2973.25           1533         439.00      1886.77
   91.09        2973.50           1536         311.00      1328.74
   91.12        2973.75           1539         265.00      1128.20
   91.15        2974.00           1543         231.00       979.98
   91.18        2974.25           1546         187.00       788.16
   91.21        2974.50           1549         138.00       574.55
   91.24        2974.75           1553          98.00       400.18
   91.27        2975.00           1556          72.00       286.84
   91.30        2975.25           1559          68.00       269.40
   91.34        2975.50           1563          53.00       204.01
   91.37        2975.75           1566          55.00       212.73
   91.40        2976.00           1569          65.00       256.32
   91.43        2976.25           1573          59.00       230.17
   91.46        2976.50           1576          51.00       195.29
   91.49        2976.75           1579          57.00       221.45
   91.52        2977.00           1583          55.00       212.73
   91.55        2977.25           1586          47.00       177.86
   91.58        2977.50           1590          49.00       186.57
   91.61        2977.75           1593          48.00       182.22
   91.64        2978.00           1596          52.00       199.65
   91.68        2978.25           1600          50.00       190.93
   91.71        2978.50           1603          58.00       225.81
   91.74        2978.75           1606          51.00       195.29
   91.77        2979.00           1610          53.00       204.01
   91.80        2979.25           1613          47.00       177.86
   91.83        2979.50           1616          52.00       199.65
   91.86        2979.75           1620          47.00       177.86
   91.89        2980.00           1623          44.00       164.78
   91.92        2980.25           1626          45.00       169.14
   91.95        2980.50           1630          57.00       221.45
   91.98        2980.75           1633          52.00       199.65
   92.01        2981.00           1637          51.00       195.29
   92.04        2981.25           1640          52.00       199.65
   92.08        2981.50           1643          56.00       217.09
   92.11        2981.75           1647          50.00       190.93
   92.14        2982.00           1650          51.00       195.29
   92.17        2982.25           1653          49.00       186.57
   92.20        2982.50           1657          50.00       190.93
   92.23        2982.75           1660          49.00       186.57
   92.26        2983.00           1663          47.00       177.86
   92.29        2983.25           1667          48.00       182.22
   92.32        2983.50           1670          50.00       190.93
   92.35        2983.75           1673          50.00       190.93
   92.39        2984.00           1677          47.00       177.86
HS scan finished at 01:32:36
end
************************************************************
  HS Scan of (1) Internal mercury lamp
************************************************************
Integration time is 0.2294 seconds per sample
dh240618Manchester 53.47 2.23 3.018777pr1000
************************************************************
Dead Time -------------------------  3E-08 
Number of Cycles Used -------------  4 
Starting Wavelength (Angstroms) ---  2950 
Final Wavelength (Angstoms) -------  2984 
Wavelength Increment (Angstroms) --  .25 
Filter Wheel #1 Position ---------- (1) Ground quartz diffuser (ND=2.32)
Filter Wheel #2 Position ---------- (1) Neutral Density 0.494



************************************************************
HS scan start time = 21:43:23
Dark Count =  5.9 


Time (GMT)  Wavelength (Ang)  Step Number  Raw Counts  Counts/Second

 1303.75        2950.00           1222          63.00       248.91
 1303.81        2950.25           1226          56.00       218.40
 1303.85        2950.50           1229          53.00       205.32
 1303.88        2950.75           1232          45.00       170.45
 1303.91        2951.00           1236          54.00       209.68
 1303.94        2951.25           1239          54.00       209.68
 1303.97        2951.50           1242          56.00       218.40
 1304.00        2951.75           1246          62.00       244.55
 1304.03        2952.00           1249          59.00       231.48
 1304.06        2952.25           1252          60.00       235.83
 1304.09        2952.50           1256          61.00       240.19
 1304.12        2952.75           1259          60.00       235.83
 1304.15        2953.00           1262          57.00       222.76
 1304.18        2953.25           1266          48.00       183.52
 1304.21        2953.50           1269          55.00       214.04
 1304.24        2953.75           1272          47.00       179.16
 1304.28        2954.00           1276          50.00       192.24
 1304.31        2954.25           1279          52.00       200.96
 1304.34        2954.50           1282          51.00       196.60
 1304.37        2954.75           1286          57.00       222.76
 1304.40        2955.00           1289          51.00       196.60
 1304.43        2955.25           1292          58.00       227.12
 1304.46        2955.50           1296          57.00       222.76
 1304.49        2955.75           1299          56.00       218.40
 1304.52        2956.00           1302          55.00       214.04
 1304.56        2956.25           1306          57.00       222.76
 1304.59        2956.50           1309          57.00       222.76
 1304.62        2956.75           1312          55.00       214.04
 1304.65        2957.00           1316          58.00       227.12
 1304.68        2957.25           1319          47.00       179.16
 1304.71        2957.50           1322          61.00       240.19
 1304.74        2957.75           1326          50.00       192.24
 1304.77        2958.00           1329          60.00       235.83
 1304.80        2958.25           1332          60.00       235.83
 1304.83        2958.50           1336          52.00       200.96
 1304.86        2958.75           1339          50.00       192.24
 1304.89        2959.00           1342          56.00       218.40
 1304.92        2959.25           1346          61.00       240.19
 1304.96        2959.50           1349          62.00       244.55
 1304.99        2959.75           1352          86.00       349.18
 1305.02        2960.00           1356         106.00       436.36
 1305.05        2960.25           1359         159.00       667.41
 1305.08        2960.50           1362         183.00       772.03
 1305.11        2960.75           1366         244.00      1037.96
 1305.14        2961.00           1369         276.00      1177.46
 1305.17        2961.25           1372         303.00      1295.17
 1305.20        2961.50           1376         377.00      1617.78
 1305.23        2961.75           1379         470.00      2023.23
 1305.26        2962.00           1382         862.00      3732.33
 1305.30        2962.25           1386        2258.00      9820.24
 1305.33        2962.50           1389        3738.00     16276.91
 1305.36        2962.75           1392        5240.00     22832.11
 1305.39        2963.00           1396        7284.00     31756.92
 1305.42        2963.25           1399        8727.00     38060.43
 1305.45        2963.50           1402       10180.00     44410.05
 1305.48        2963.75           1406       12189.00     53193.36
 1305.51        2964.00           1409       13655.00     59605.62
 1305.54        2964.25           1412       15288.00     66751.24
 1305.58        2964.50           1416       17435.00     76150.68
 1305.61        2964.75           1419       19036.00     83163.20
 1305.64        2965.00           1422       20650.00     90235.66
 1305.67        2965.25           1426       22679.00     99130.90
 1305.70        2965.50           1429       24121.00    105455.60
 1305.73        2965.75           1432       25777.00    112721.90
 1305.76        2966.00           1436       27739.00    121334.90
 1305.79        2966.25           1439       29107.00    127343.00
 1305.82        2966.50           1442       30324.00    132689.70
 1305.86        2966.75           1446       32220.00    141023.00
 1305.89        2967.00           1449       32922.00    144109.50
 1305.92        2967.25           1452       33193.00    145301.10
 1305.95        2967.50           1456       33187.00    145274.80
 1305.98        2967.75           1459       33280.00    145683.70
 1306.01        2968.00           1462       33126.00    145006.50
 1306.04        2968.25           1466       32481.00    142170.50
 1306.07        2968.50           1469       31256.00    136785.50
 1306.11        2968.75           1472       29868.00    130686.20
 1306.14        2969.00           1476       28080.00    122832.40
 1306.17        2969.25           1479       26597.00    116321.10
 1306.20        2969.50           1482       24878.00    108776.80
 1306.23        2969.75           1486       23009.00    100578.10
 1306.26        2970.00           1489       21573.00     94281.55
 1306.29        2970.25           1492       19906.00     86975.12
 1306.32        2970.50           1496       17647.00     77079.08
 1306.35        2970.75           1499       16376.00     71513.77
 1306.38        2971.00           1502       14653.00     63972.27
 1306.42        2971.25           1506       12662.00     55261.99
 1306.45        2971.50           1509       11206.00     48895.13
 1306.48        2971.75           1513        9244.00     40319.45
 1306.51        2972.00           1516        7689.00     33525.86
 1306.54        2972.25           1519        6175.00     26914.05
 1306.57        2972.50           1523        4309.00     18768.63
 1306.60        2972.75           1526        2806.00     12210.66
 1306.63        2973.00           1529        1406.00      6104.43
 1306.66        2973.25           1533         487.00      2097.34
 1306.70        2973.50           1536         336.00      1439.03
 1306.73        2973.75           1539         269.00      1146.94
 1306.76        2974.00           1543         221.00       937.69
 1306.79        2974.25           1546         162.00       680.48
 1306.82        2974.50           1549         121.00       501.75
 1306.85        2974.75           1553          87.00       353.53
 1306.88        2975.00           1556          71.00       283.79
 1306.91        2975.25           1559          59.00       231.48
 1306.95        2975.50           1563          53.00       205.32
 1306.98        2975.75           1566          62.00       244.55
 1307.01        2976.00           1569          57.00       222.76
 1307.04        2976.25           1573          55.00       214.04
 1307.07        2976.50           1576          59.00       231.48
 1307.10        2976.75           1579          47.00       179.16
 1307.13        2977.00           1583          52.00       200.96
 1307.16        2977.25           1586          55.00       214.04
 1307.19        2977.50           1590          59.00       231.48
 1307.22        2977.75           1593          57.00       222.76
 1307.26        2978.00           1596          45.00       170.45
 1307.29        2978.25           1600          53.00       205.32
 1307.32        2978.50           1603          59.00       231.48
 1307.35        2978.75           1606          52.00       200.96
 1307.38        2979.00           1610          61.00       240.19
 1307.41        2979.25           1613          51.00       196.60
 1307.44        2979.50           1616          53.00       205.32
 1307.47        2979.75           1620          49.00       187.88
 1307.50        2980.00           1623          45.00       170.45
 1307.54        2980.25           1626          55.00       214.04
 1307.57        2980.50           1630          47.00       179.16
 1307.60        2980.75           1633          52.00       200.96
 1307.63        2981.00           1637          49.00       187.88
 1307.66        2981.25           1640          56.00       218.40
 1307.69        2981.50           1643          56.00       218.40
 1307.72        2981.75           1647          57.00       222.76
 1307.75        2982.00           1650          52.00       200.96
 1307.78        2982.25           1653          58.00       227.12
 1307.81        2982.50           1657          49.00       187.88
 1307.84        2982.75           1660          45.00       170.45
 1307.88        2983.00           1663          50.00       192.24
 1307.91        2983.25           1667          50.00       192.24
 1307.94        2983.50           1670          47.00       179.16
 1307.97        2983.75           1673          47.00       179.16
 1308.00        2984.00           1677          49.00       187.88
HS scan finished at 21:48:13
end
