************************************************************
  HS Scan of (1) Internal mercury lamp
************************************************************
Integration time is 0.2294 seconds per sample
dh210619El Arenosillo 37.1 6.73 2.965129pr1000
************************************************************
Dead Time -------------------------  3E-08 
Number of Cycles Used -------------  4 
Starting Wavelength (Angstroms) ---  2950 
Final Wavelength (Angstoms) -------  2984 
Wavelength Increment (Angstroms) --  .25 
Filter Wheel #1 Position ---------- (1) Ground quartz diffuser (ND=2.32)
Filter Wheel #2 Position ---------- (1) Neutral Density 0.494



************************************************************
HS scan start time = 02:48:48
Dark Count =  4.6 


Time (GMT)  Wavelength (Ang)  Step Number  Raw Counts  Counts/Second

  169.16        2950.00           1222          49.00       193.55
  169.23        2950.25           1226          48.00       189.19
  169.26        2950.50           1229          55.00       219.71
  169.29        2950.75           1232          50.00       197.91
  169.32        2951.00           1236          51.00       202.27
  169.35        2951.25           1239          51.00       202.27
  169.38        2951.50           1242          52.00       206.63
  169.41        2951.75           1246          55.00       219.71
  169.45        2952.00           1249          57.00       228.42
  169.48        2952.25           1252          46.00       180.47
  169.51        2952.50           1256          50.00       197.91
  169.54        2952.75           1259          53.00       210.99
  169.57        2953.00           1262          48.00       189.19
  169.60        2953.25           1266          52.00       206.63
  169.63        2953.50           1269          53.00       210.99
  169.66        2953.75           1272          57.00       228.42
  169.69        2954.00           1276          53.00       210.99
  169.72        2954.25           1279          52.00       206.63
  169.75        2954.50           1282          56.00       224.06
  169.79        2954.75           1286          55.00       219.71
  169.82        2955.00           1289          54.00       215.35
  169.85        2955.25           1292          47.00       184.83
  169.88        2955.50           1296          58.00       232.78
  169.91        2955.75           1299          49.00       193.55
  169.94        2956.00           1302          47.00       184.83
  169.97        2956.25           1306          53.00       210.99
  170.00        2956.50           1309          49.00       193.55
  170.03        2956.75           1312          56.00       224.06
  170.06        2957.00           1316          51.00       202.27
  170.10        2957.25           1319          44.00       171.75
  170.13        2957.50           1322          53.00       210.99
  170.16        2957.75           1326          56.00       224.06
  170.19        2958.00           1329          49.00       193.55
  170.22        2958.25           1332          53.00       210.99
  170.25        2958.50           1336          48.00       189.19
  170.28        2958.75           1339          54.00       215.35
  170.31        2959.00           1342          55.00       219.71
  170.34        2959.25           1346          55.00       219.71
  170.37        2959.50           1349          60.00       241.50
  170.40        2959.75           1352          67.00       272.02
  170.44        2960.00           1356          81.00       333.05
  170.47        2960.25           1359         106.00       442.03
  170.50        2960.50           1362         136.00       572.81
  170.53        2960.75           1366         174.00       738.46
  170.56        2961.00           1369         203.00       864.89
  170.59        2961.25           1372         253.00      1082.86
  170.62        2961.50           1376         313.00      1344.43
  170.65        2961.75           1379         574.00      2482.31
  170.68        2962.00           1382        1343.00      5835.37
  170.71        2962.25           1386        2775.00     12081.10
  170.75        2962.50           1389        4014.00     17486.94
  170.78        2962.75           1392        5202.00     22671.91
  170.81        2963.00           1396        6729.00     29338.80
  170.84        2963.25           1399        7951.00     34675.99
  170.87        2963.50           1402        9059.00     39516.75
  170.90        2963.75           1406       10615.00     46317.15
  170.93        2964.00           1409       11902.00     51944.01
  170.96        2964.25           1412       13150.00     57402.17
  170.99        2964.50           1416       15137.00     66096.06
  171.02        2964.75           1419       16355.00     71427.53
  171.05        2965.00           1422       17497.00     76427.88
  171.09        2965.25           1426       19080.00     83361.66
  171.12        2965.50           1429       20253.00     88501.46
  171.15        2965.75           1432       21676.00     94738.81
  171.18        2966.00           1436       23029.00    100671.50
  171.21        2966.25           1439       24303.00    106259.70
  171.24        2966.50           1442       25323.00    110735.20
  171.27        2966.75           1446       26247.00    114790.50
  171.30        2967.00           1449       26321.00    115115.30
  171.34        2967.25           1452       26439.00    115633.20
  171.37        2967.50           1456       26498.00    115892.20
  171.40        2967.75           1459       26444.00    115655.20
  171.43        2968.00           1462       26007.00    113737.00
  171.46        2968.25           1466       24687.00    107944.50
  171.49        2968.50           1469       23939.00    104662.90
  171.52        2968.75           1472       22798.00     99658.46
  171.55        2969.00           1476       21192.00     92617.05
  171.58        2969.25           1479       20123.00     87931.75
  171.62        2969.50           1482       18935.00     82726.43
  171.65        2969.75           1486       17394.00     75976.81
  171.68        2970.00           1489       16079.00     70219.26
  171.71        2970.25           1492       14861.00     64888.19
  171.74        2970.50           1496       13159.00     57441.54
  171.77        2970.75           1499       11974.00     52258.86
  171.80        2971.00           1502       10777.00     47025.33
  171.83        2971.25           1506        9094.00     39669.68
  171.86        2971.50           1509        7862.00     34287.21
  171.89        2971.75           1513        6294.00     27439.32
  171.92        2972.00           1516        5139.00     22396.91
  171.95        2972.25           1519        3962.00     17260.03
  171.98        2972.50           1523        2417.00     10519.45
  172.01        2972.75           1526        1418.00      6162.43
  172.05        2973.00           1529         589.00      2547.71
  172.08        2973.25           1533         330.00      1418.54
  172.11        2973.50           1536         263.00      1126.45
  172.14        2973.75           1539         234.00      1000.03
  172.17        2974.00           1543         194.00       825.65
  172.20        2974.25           1546         146.00       616.40
  172.23        2974.50           1549         118.00       494.34
  172.26        2974.75           1553          85.00       350.48
  172.29        2975.00           1556          66.00       267.66
  172.32        2975.25           1559          51.00       202.27
  172.35        2975.50           1563          60.00       241.50
  172.38        2975.75           1566          48.00       189.19
  172.41        2976.00           1569          50.00       197.91
  172.45        2976.25           1573          51.00       202.27
  172.48        2976.50           1576          45.00       176.11
  172.51        2976.75           1579          66.00       267.66
  172.54        2977.00           1583          52.00       206.63
  172.57        2977.25           1586          45.00       176.11
  172.60        2977.50           1590          47.00       184.83
  172.63        2977.75           1593          53.00       210.99
  172.66        2978.00           1596          44.00       171.75
  172.69        2978.25           1600          45.00       176.11
  172.72        2978.50           1603          48.00       189.19
  172.76        2978.75           1606          47.00       184.83
  172.79        2979.00           1610          46.00       180.47
  172.82        2979.25           1613          48.00       189.19
  172.85        2979.50           1616          54.00       215.35
  172.88        2979.75           1620          45.00       176.11
  172.91        2980.00           1623          51.00       202.27
  172.94        2980.25           1626          43.00       167.39
  172.97        2980.50           1630          48.00       189.19
  173.00        2980.75           1633          51.00       202.27
  173.03        2981.00           1637          43.00       167.39
  173.06        2981.25           1640          48.00       189.19
  173.09        2981.50           1643          49.00       193.55
  173.13        2981.75           1647          43.00       167.39
  173.16        2982.00           1650          51.00       202.27
  173.19        2982.25           1653          43.00       167.39
  173.22        2982.50           1657          47.00       184.83
  173.25        2982.75           1660          46.00       180.47
  173.28        2983.00           1663          49.00       193.55
  173.31        2983.25           1667          47.00       184.83
  173.34        2983.50           1670          44.00       171.75
  173.37        2983.75           1673          45.00       176.11
  173.40        2984.00           1677          45.00       176.11
HS scan finished at 02:53:37
end
************************************************************
  HS Scan of (1) Internal mercury lamp
************************************************************
Integration time is 0.2294 seconds per sample
dh210619El Arenosillo 37.1 6.73 3.126073pr1000
************************************************************
Dead Time -------------------------  3E-08 
Number of Cycles Used -------------  4 
Starting Wavelength (Angstroms) ---  2950 
Final Wavelength (Angstoms) -------  2984 
Wavelength Increment (Angstroms) --  .25 
Filter Wheel #1 Position ---------- (1) Ground quartz diffuser (ND=2.32)
Filter Wheel #2 Position ---------- (1) Neutral Density 0.494



************************************************************
HS scan start time = 21:54:15
Dark Count =  7.6 


Time (GMT)  Wavelength (Ang)  Step Number  Raw Counts  Counts/Second

 1314.61        2950.00           1222          45.00       163.03
 1314.68        2950.25           1226          57.00       215.35
 1314.71        2950.50           1229          61.00       232.78
 1314.74        2950.75           1232          48.00       176.11
 1314.77        2951.00           1236          53.00       197.91
 1314.81        2951.25           1239          57.00       215.35
 1314.84        2951.50           1242          47.00       171.75
 1314.87        2951.75           1246          50.00       184.83
 1314.90        2952.00           1249          49.00       180.47
 1314.93        2952.25           1252          55.00       206.63
 1314.96        2952.50           1256          52.00       193.55
 1314.99        2952.75           1259          55.00       206.63
 1315.02        2953.00           1262          50.00       184.83
 1315.05        2953.25           1266          54.00       202.27
 1315.08        2953.50           1269          57.00       215.35
 1315.11        2953.75           1272          56.00       210.99
 1315.14        2954.00           1276          62.00       237.14
 1315.18        2954.25           1279          63.00       241.50
 1315.21        2954.50           1282          54.00       202.27
 1315.24        2954.75           1286          52.00       193.55
 1315.27        2955.00           1289          55.00       206.63
 1315.30        2955.25           1292          54.00       202.27
 1315.33        2955.50           1296          48.00       176.11
 1315.36        2955.75           1299          55.00       206.63
 1315.39        2956.00           1302          50.00       184.83
 1315.42        2956.25           1306          54.00       202.27
 1315.45        2956.50           1309          60.00       228.42
 1315.49        2956.75           1312          51.00       189.19
 1315.52        2957.00           1316          61.00       232.78
 1315.55        2957.25           1319          57.00       215.35
 1315.58        2957.50           1322          51.00       189.19
 1315.61        2957.75           1326          53.00       197.91
 1315.64        2958.00           1329          50.00       184.83
 1315.67        2958.25           1332          48.00       176.11
 1315.70        2958.50           1336          52.00       193.55
 1315.73        2958.75           1339          65.00       250.22
 1315.76        2959.00           1342          57.00       215.35
 1315.79        2959.25           1346          55.00       206.63
 1315.83        2959.50           1349          54.00       202.27
 1315.86        2959.75           1352          76.00       298.17
 1315.89        2960.00           1356          94.00       376.64
 1315.92        2960.25           1359         131.00       537.93
 1315.95        2960.50           1362         161.00       668.71
 1315.98        2960.75           1366         229.00       965.15
 1316.01        2961.00           1369         256.00      1082.86
 1316.04        2961.25           1372         274.00      1161.33
 1316.07        2961.50           1376         367.00      1566.77
 1316.10        2961.75           1379         604.00      2600.03
 1316.14        2962.00           1382        1506.00      6533.10
 1316.17        2962.25           1386        3157.00     13734.52
 1316.20        2962.50           1389        4645.00     20227.62
 1316.23        2962.75           1392        5998.00     26133.82
 1316.26        2963.00           1396        7793.00     33972.71
 1316.29        2963.25           1399        9162.00     39953.70
 1316.32        2963.50           1402       10562.00     46072.36
 1316.35        2963.75           1406       12297.00     53658.24
 1316.38        2964.00           1409       13785.00     60166.92
 1316.41        2964.25           1412       15219.00     66441.81
 1316.44        2964.50           1416       17219.00     75197.35
 1316.48        2964.75           1419       18542.00     80991.68
 1316.51        2965.00           1422       20308.00     88729.34
 1316.54        2965.25           1426       22136.00     96742.44
 1316.57        2965.50           1429       23597.00    103149.60
 1316.60        2965.75           1432       24892.00    108830.80
 1316.63        2966.00           1436       26911.00    117692.10
 1316.66        2966.25           1439       28193.00    123321.10
 1316.69        2966.50           1442       29275.00    128073.50
 1316.72        2966.75           1446       30446.00    133218.40
 1316.76        2967.00           1449       30710.00    134378.50
 1316.79        2967.25           1452       30745.00    134532.30
 1316.82        2967.50           1456       30709.00    134374.10
 1316.85        2967.75           1459       30446.00    133218.40
 1316.88        2968.00           1462       30407.00    133047.00
 1316.91        2968.25           1466       28845.00    126184.70
 1316.94        2968.50           1469       27669.00    121020.10
 1316.97        2968.75           1472       26311.00    115058.20
 1317.00        2969.00           1476       24543.00    107299.50
 1317.03        2969.25           1479       23207.00    101439.00
 1317.07        2969.50           1482       21768.00     95128.99
 1317.10        2969.75           1486       20040.00     87554.88
 1317.13        2970.00           1489       18609.00     81285.16
 1317.16        2970.25           1492       17216.00     75184.22
 1317.19        2970.50           1496       15293.00     66765.68
 1317.22        2970.75           1499       13817.00     60306.92
 1317.25        2971.00           1502       12468.00     54406.08
 1317.28        2971.25           1506       10527.00     45919.37
 1317.31        2971.50           1509        9003.00     39258.94
 1317.34        2971.75           1513        7232.00     31522.39
 1317.38        2972.00           1516        5807.00     25299.93
 1317.41        2972.25           1519        4456.00     19402.75
 1317.44        2972.50           1523        2648.00     11514.00
 1317.47        2972.75           1526        1359.00      5892.06
 1317.50        2973.00           1529         597.00      2569.51
 1317.53        2973.25           1533         345.00      1470.86
 1317.56        2973.50           1536         311.00      1322.63
 1317.59        2973.75           1539         265.00      1122.10
 1317.62        2974.00           1543         219.00       921.56
 1317.65        2974.25           1546         169.00       703.59
 1317.68        2974.50           1549         120.00       489.98
 1317.72        2974.75           1553          96.00       385.36
 1317.75        2975.00           1556          67.00       258.94
 1317.78        2975.25           1559          59.00       224.06
 1317.81        2975.50           1563          54.00       202.27
 1317.84        2975.75           1566          49.00       180.47
 1317.87        2976.00           1569          54.00       202.27
 1317.90        2976.25           1573          53.00       197.91
 1317.93        2976.50           1576          51.00       189.19
 1317.96        2976.75           1579          55.00       206.63
 1318.00        2977.00           1583          48.00       176.11
 1318.03        2977.25           1586          47.00       171.75
 1318.06        2977.50           1590          41.00       145.60
 1318.09        2977.75           1593          60.00       228.42
 1318.12        2978.00           1596          51.00       189.19
 1318.15        2978.25           1600          47.00       171.75
 1318.18        2978.50           1603          49.00       180.47
 1318.21        2978.75           1606          55.00       206.63
 1318.24        2979.00           1610          44.00       158.68
 1318.27        2979.25           1613          55.00       206.63
 1318.30        2979.50           1616          49.00       180.47
 1318.33        2979.75           1620          65.00       250.22
 1318.37        2980.00           1623          48.00       176.11
 1318.40        2980.25           1626          49.00       180.47
 1318.43        2980.50           1630          54.00       202.27
 1318.46        2980.75           1633          56.00       210.99
 1318.49        2981.00           1637          52.00       193.55
 1318.52        2981.25           1640          47.00       171.75
 1318.55        2981.50           1643          45.00       163.03
 1318.58        2981.75           1647          47.00       171.75
 1318.61        2982.00           1650          47.00       171.75
 1318.64        2982.25           1653          47.00       171.75
 1318.67        2982.50           1657          46.00       167.39
 1318.71        2982.75           1660          45.00       163.03
 1318.74        2983.00           1663          45.00       163.03
 1318.77        2983.25           1667          53.00       197.91
 1318.80        2983.50           1670          56.00       210.99
 1318.83        2983.75           1673          58.00       219.71
 1318.86        2984.00           1677          52.00       193.55
HS scan finished at 21:59:05
end
