************************************************************
  HS Scan of (1) Internal mercury lamp
************************************************************
Integration time is 0.2294 seconds per sample
dh200619El Arenosillo 37.1 6.73 2.965129pr1000
************************************************************
Dead Time -------------------------  3E-08 
Number of Cycles Used -------------  4 
Starting Wavelength (Angstroms) ---  2950 
Final Wavelength (Angstoms) -------  2984 
Wavelength Increment (Angstroms) --  .25 
Filter Wheel #1 Position ---------- (1) Ground quartz diffuser (ND=2.32)
Filter Wheel #2 Position ---------- (1) Neutral Density 0.494



************************************************************
HS scan start time = 02:07:50
Dark Count =  6.7 


Time (GMT)  Wavelength (Ang)  Step Number  Raw Counts  Counts/Second

  128.21        2950.00           1222          57.00       219.27
  128.27        2950.25           1226          61.00       236.71
  128.30        2950.50           1229          61.00       236.71
  128.33        2950.75           1232          57.00       219.27
  128.37        2951.00           1236          54.00       206.19
  128.40        2951.25           1239          55.00       210.55
  128.43        2951.50           1242          52.00       197.47
  128.46        2951.75           1246          56.00       214.91
  128.49        2952.00           1249          63.00       245.42
  128.52        2952.25           1252          58.00       223.63
  128.55        2952.50           1256          55.00       210.55
  128.58        2952.75           1259          59.00       227.99
  128.61        2953.00           1262          54.00       206.19
  128.64        2953.25           1266          55.00       210.55
  128.67        2953.50           1269          56.00       214.91
  128.70        2953.75           1272          55.00       210.55
  128.74        2954.00           1276          48.00       180.04
  128.77        2954.25           1279          58.00       223.63
  128.80        2954.50           1282          55.00       210.55
  128.83        2954.75           1286          64.00       249.78
  128.86        2955.00           1289          67.00       262.86
  128.89        2955.25           1292          56.00       214.91
  128.92        2955.50           1296          53.00       201.83
  128.95        2955.75           1299          50.00       188.75
  128.98        2956.00           1302          57.00       219.27
  129.01        2956.25           1306          53.00       201.83
  129.05        2956.50           1309          49.00       184.40
  129.08        2956.75           1312          48.00       180.04
  129.11        2957.00           1316          57.00       219.27
  129.14        2957.25           1319          47.00       175.68
  129.17        2957.50           1322          61.00       236.71
  129.20        2957.75           1326          61.00       236.71
  129.23        2958.00           1329          56.00       214.91
  129.26        2958.25           1332          61.00       236.71
  129.29        2958.50           1336          52.00       197.47
  129.32        2958.75           1339          53.00       201.83
  129.35        2959.00           1342          51.00       193.11
  129.38        2959.25           1346          58.00       223.63
  129.41        2959.50           1349          64.00       249.78
  129.45        2959.75           1352          71.00       280.30
  129.48        2960.00           1356          90.00       363.13
  129.51        2960.25           1359         108.00       441.59
  129.54        2960.50           1362         137.00       568.01
  129.57        2960.75           1366         201.00       847.01
  129.60        2961.00           1369         220.00       929.84
  129.63        2961.25           1372         271.00      1152.18
  129.66        2961.50           1376         324.00      1383.23
  129.69        2961.75           1379         466.00      2002.30
  129.73        2962.00           1382        1112.00      4818.92
  129.76        2962.25           1386        2679.00     11653.16
  129.79        2962.50           1389        3997.00     17403.59
  129.82        2962.75           1392        5218.00     22732.59
  129.85        2963.00           1396        7005.00     30534.93
  129.88        2963.25           1399        8303.00     36204.52
  129.91        2963.50           1402        9438.00     41163.71
  129.94        2963.75           1406       11258.00     49118.97
  129.97        2964.00           1409       12551.00     54773.01
  130.00        2964.25           1412       13938.00     60840.24
  130.03        2964.50           1416       15777.00     68888.08
  130.06        2964.75           1419       16970.00     74110.98
  130.10        2965.00           1422       18255.00     79738.47
  130.13        2965.25           1426       20025.00     87493.08
  130.16        2965.50           1429       21438.00     93686.22
  130.19        2965.75           1432       22704.00     99237.03
  130.22        2966.00           1436       24318.00    106316.30
  130.25        2966.25           1439       25610.00    111985.50
  130.28        2966.50           1442       26997.00    118073.60
  130.31        2966.75           1446       28112.00    122969.40
  130.35        2967.00           1449       28118.00    122995.70
  130.38        2967.25           1452       28126.00    123030.90
  130.41        2967.50           1456       28132.00    123057.20
  130.44        2967.75           1459       28221.00    123448.10
  130.47        2968.00           1462       27859.00    121858.40
  130.50        2968.25           1466       26780.00    117120.90
  130.53        2968.50           1469       25756.00    112626.20
  130.56        2968.75           1472       24541.00    107294.70
  130.59        2969.00           1476       22775.00     99548.39
  130.62        2969.25           1479       21521.00     94050.09
  130.66        2969.50           1482       20227.00     88378.31
  130.69        2969.75           1486       18254.00     79734.10
  130.72        2970.00           1489       17167.00     74973.60
  130.75        2970.25           1492       16029.00     69991.18
  130.78        2970.50           1496       14274.00     62310.36
  130.81        2970.75           1499       13015.00     56802.47
  130.84        2971.00           1502       11660.00     50876.64
  130.87        2971.25           1506        9996.00     43602.33
  130.90        2971.50           1509        8662.00     37772.94
  130.93        2971.75           1513        6976.00     30408.29
  130.96        2972.00           1516        5707.00     24867.28
  131.00        2972.25           1519        4319.00     18808.78
  131.03        2972.50           1523        2643.00     11496.12
  131.06        2972.75           1526        1521.00      6602.44
  131.09        2973.00           1529         623.00      2686.79
  131.12        2973.25           1533         345.00      1474.78
  131.15        2973.50           1536         259.00      1099.86
  131.18        2973.75           1539         233.00       986.52
  131.21        2974.00           1543         180.00       755.47
  131.24        2974.25           1546         143.00       594.17
  131.27        2974.50           1549         111.00       454.67
  131.30        2974.75           1553          82.00       328.25
  131.34        2975.00           1556          72.00       284.66
  131.37        2975.25           1559          55.00       210.55
  131.40        2975.50           1563          56.00       214.91
  131.43        2975.75           1566          61.00       236.71
  131.46        2976.00           1569          56.00       214.91
  131.49        2976.25           1573          50.00       188.75
  131.52        2976.50           1576          53.00       201.83
  131.55        2976.75           1579          47.00       175.68
  131.58        2977.00           1583          60.00       232.35
  131.61        2977.25           1586          54.00       206.19
  131.64        2977.50           1590          55.00       210.55
  131.67        2977.75           1593          49.00       184.40
  131.70        2978.00           1596          46.00       171.32
  131.73        2978.25           1600          67.00       262.86
  131.77        2978.50           1603          54.00       206.19
  131.80        2978.75           1606          53.00       201.83
  131.83        2979.00           1610          51.00       193.11
  131.86        2979.25           1613          46.00       171.32
  131.89        2979.50           1616          56.00       214.91
  131.92        2979.75           1620          56.00       214.91
  131.95        2980.00           1623          46.00       171.32
  131.98        2980.25           1626          47.00       175.68
  132.01        2980.50           1630          52.00       197.47
  132.04        2980.75           1633          46.00       171.32
  132.07        2981.00           1637          55.00       210.55
  132.10        2981.25           1640          44.00       162.60
  132.14        2981.50           1643          46.00       171.32
  132.17        2981.75           1647          50.00       188.75
  132.20        2982.00           1650          43.00       158.24
  132.23        2982.25           1653          52.00       197.47
  132.26        2982.50           1657          46.00       171.32
  132.29        2982.75           1660          50.00       188.75
  132.32        2983.00           1663          53.00       201.83
  132.35        2983.25           1667          40.00       145.16
  132.38        2983.50           1670          46.00       171.32
  132.41        2983.75           1673          52.00       197.47
  132.44        2984.00           1677          46.00       171.32
HS scan finished at 02:12:40
end
