************************************************************
  HS Scan of (1) Internal mercury lamp
************************************************************
Integration time is 0.2294 seconds per sample
dh260619El Arenosillo 37.1 6.73 3.072425pr1000
************************************************************
Dead Time -------------------------  3E-08 
Number of Cycles Used -------------  4 
Starting Wavelength (Angstroms) ---  2950 
Final Wavelength (Angstoms) -------  2984 
Wavelength Increment (Angstroms) --  .25 
Filter Wheel #1 Position ---------- (1) Ground quartz diffuser (ND=2.32)
Filter Wheel #2 Position ---------- (1) Neutral Density 0.494



************************************************************
HS scan start time = 02:18:31
Dark Count =  6.2 


Time (GMT)  Wavelength (Ang)  Step Number  Raw Counts  Counts/Second

  138.88        2950.00           1222          55.00       212.73
  138.94        2950.25           1226          57.00       221.45
  138.98        2950.50           1229          55.00       212.73
  139.01        2950.75           1232          59.00       230.17
  139.04        2951.00           1236          62.00       243.25
  139.07        2951.25           1239          49.00       186.57
  139.10        2951.50           1242          70.00       278.12
  139.13        2951.75           1246          53.00       204.01
  139.16        2952.00           1249          56.00       217.09
  139.19        2952.25           1252          51.00       195.29
  139.22        2952.50           1256          62.00       243.25
  139.25        2952.75           1259          58.00       225.81
  139.29        2953.00           1262          59.00       230.17
  139.32        2953.25           1266          53.00       204.01
  139.35        2953.50           1269          61.00       238.89
  139.38        2953.75           1272          64.00       251.96
  139.41        2954.00           1276          51.00       195.29
  139.44        2954.25           1279          50.00       190.93
  139.47        2954.50           1282          55.00       212.73
  139.50        2954.75           1286          65.00       256.32
  139.53        2955.00           1289          54.00       208.37
  139.56        2955.25           1292          58.00       225.81
  139.60        2955.50           1296          51.00       195.29
  139.63        2955.75           1299          53.00       204.01
  139.66        2956.00           1302          48.00       182.22
  139.69        2956.25           1306          52.00       199.65
  139.72        2956.50           1309          48.00       182.22
  139.75        2956.75           1312          52.00       199.65
  139.78        2957.00           1316          53.00       204.01
  139.81        2957.25           1319          48.00       182.22
  139.84        2957.50           1322          53.00       204.01
  139.87        2957.75           1326          52.00       199.65
  139.90        2958.00           1329          62.00       243.25
  139.94        2958.25           1332          51.00       195.29
  139.97        2958.50           1336          54.00       208.37
  140.00        2958.75           1339          53.00       204.01
  140.03        2959.00           1342          53.00       204.01
  140.06        2959.25           1346          51.00       195.29
  140.09        2959.50           1349          61.00       238.89
  140.12        2959.75           1352          63.00       247.60
  140.15        2960.00           1356          90.00       365.30
  140.18        2960.25           1359         117.00       483.01
  140.21        2960.50           1362         139.00       578.91
  140.24        2960.75           1366         183.00       770.72
  140.27        2961.00           1369         228.00       966.90
  140.31        2961.25           1372         259.00      1102.04
  140.34        2961.50           1376         337.00      1442.09
  140.37        2961.75           1379         474.00      2039.36
  140.40        2962.00           1382        1001.00      4337.09
  140.43        2962.25           1386        2566.00     11162.41
  140.46        2962.50           1389        3984.00     17349.05
  140.49        2962.75           1392        5293.00     23062.16
  140.52        2963.00           1396        7040.00     30689.97
  140.55        2963.25           1399        8411.00     36678.53
  140.59        2963.50           1402        9683.00     42236.57
  140.62        2963.75           1406       11549.00     50393.48
  140.65        2964.00           1409       12977.00     56638.44
  140.68        2964.25           1412       14314.00     62487.56
  140.71        2964.50           1416       16343.00     71367.99
  140.74        2964.75           1419       17757.00     77559.51
  140.77        2965.00           1422       18935.00     82719.41
  140.80        2965.25           1426       20787.00     90834.82
  140.83        2965.50           1429       22088.00     96538.13
  140.87        2965.75           1432       23479.00    102638.10
  140.90        2966.00           1436       25314.00    110688.70
  140.93        2966.25           1439       26638.00    116499.80
  140.96        2966.50           1442       27811.00    121649.80
  140.99        2966.75           1446       29195.00    127728.30
  141.02        2967.00           1449       29641.00    129687.60
  141.05        2967.25           1452       29924.00    130930.90
  141.08        2967.50           1456       29883.00    130750.80
  141.12        2967.75           1459       29853.00    130619.00
  141.15        2968.00           1462       29805.00    130408.10
  141.18        2968.25           1466       28849.00    126208.40
  141.21        2968.50           1469       27718.00    121241.40
  141.24        2968.75           1472       26476.00    115788.60
  141.27        2969.00           1476       24735.00    108148.10
  141.30        2969.25           1479       23378.00    102195.10
  141.33        2969.50           1482       22070.00     96459.21
  141.36        2969.75           1486       20350.00     88919.54
  141.39        2970.00           1489       18900.00     82566.08
  141.42        2970.25           1492       17455.00     76236.95
  141.45        2970.50           1496       15584.00     68045.48
  141.49        2970.75           1499       14178.00     61892.50
  141.52        2971.00           1502       12831.00     55999.85
  141.55        2971.25           1506       11062.00     48264.26
  141.58        2971.50           1509        9748.00     42520.64
  141.61        2971.75           1513        7852.00     34236.54
  141.64        2972.00           1516        6478.00     28235.77
  141.67        2972.25           1519        5026.00     21896.68
  141.70        2972.50           1523        3310.00     14408.15
  141.73        2972.75           1526        2081.00      9046.92
  141.76        2973.00           1529         894.00      3870.55
  141.79        2973.25           1533         388.00      1664.42
  141.82        2973.50           1536         285.00      1215.39
  141.85        2973.75           1539         243.00      1032.29
  141.89        2974.00           1543         209.00       884.07
  141.92        2974.25           1546         152.00       635.58
  141.95        2974.50           1549         116.00       478.65
  141.98        2974.75           1553          89.00       360.95
  142.01        2975.00           1556          73.00       291.20
  142.04        2975.25           1559          61.00       238.89
  142.07        2975.50           1563          55.00       212.73
  142.10        2975.75           1566          54.00       208.37
  142.13        2976.00           1569          54.00       208.37
  142.16        2976.25           1573          58.00       225.81
  142.19        2976.50           1576          60.00       234.53
  142.22        2976.75           1579          50.00       190.93
  142.25        2977.00           1583          50.00       190.93
  142.28        2977.25           1586          57.00       221.45
  142.31        2977.50           1590          57.00       221.45
  142.35        2977.75           1593          63.00       247.60
  142.38        2978.00           1596          54.00       208.37
  142.41        2978.25           1600          50.00       190.93
  142.44        2978.50           1603          53.00       204.01
  142.47        2978.75           1606          44.00       164.78
  142.50        2979.00           1610          51.00       195.29
  142.53        2979.25           1613          47.00       177.86
  142.56        2979.50           1616          53.00       204.01
  142.59        2979.75           1620          57.00       221.45
  142.62        2980.00           1623          45.00       169.14
  142.65        2980.25           1626          49.00       186.57
  142.68        2980.50           1630          55.00       212.73
  142.71        2980.75           1633          46.00       173.50
  142.74        2981.00           1637          56.00       217.09
  142.77        2981.25           1640          50.00       190.93
  142.80        2981.50           1643          50.00       190.93
  142.84        2981.75           1647          47.00       177.86
  142.87        2982.00           1650          54.00       208.37
  142.90        2982.25           1653          41.00       151.70
  142.93        2982.50           1657          51.00       195.29
  142.96        2982.75           1660          46.00       173.50
  142.99        2983.00           1663          52.00       199.65
  143.02        2983.25           1667          56.00       217.09
  143.05        2983.50           1670          49.00       186.57
  143.08        2983.75           1673          52.00       199.65
  143.11        2984.00           1677          48.00       182.22
HS scan finished at 02:23:20
end
************************************************************
  HS Scan of (1) Internal mercury lamp
************************************************************
Integration time is 0.2294 seconds per sample
dh260619El Arenosillo 37.1 6.73 3.126073pr1000
************************************************************
Dead Time -------------------------  3E-08 
Number of Cycles Used -------------  4 
Starting Wavelength (Angstroms) ---  2950 
Final Wavelength (Angstoms) -------  2984 
Wavelength Increment (Angstroms) --  .25 
Filter Wheel #1 Position ---------- (1) Ground quartz diffuser (ND=2.32)
Filter Wheel #2 Position ---------- (1) Neutral Density 0.494



************************************************************
HS scan start time = 20:50:17
Dark Count =  6.5 


Time (GMT)  Wavelength (Ang)  Step Number  Raw Counts  Counts/Second

 1250.66        2950.00           1222          55.00       211.42
 1250.73        2950.25           1226          61.00       237.58
 1250.76        2950.50           1229          52.00       198.34
 1250.79        2950.75           1232          56.00       215.78
 1250.82        2951.00           1236          55.00       211.42
 1250.85        2951.25           1239          51.00       193.99
 1250.88        2951.50           1242          53.00       202.70
 1250.91        2951.75           1246          52.00       198.34
 1250.94        2952.00           1249          58.00       224.50
 1250.98        2952.25           1252          55.00       211.42
 1251.01        2952.50           1256          50.00       189.63
 1251.04        2952.75           1259          54.00       207.06
 1251.07        2953.00           1262          52.00       198.34
 1251.10        2953.25           1266          58.00       224.50
 1251.13        2953.50           1269          52.00       198.34
 1251.16        2953.75           1272          53.00       202.70
 1251.19        2954.00           1276          55.00       211.42
 1251.22        2954.25           1279          57.00       220.14
 1251.25        2954.50           1282          58.00       224.50
 1251.29        2954.75           1286          59.00       228.86
 1251.32        2955.00           1289          55.00       211.42
 1251.35        2955.25           1292          58.00       224.50
 1251.38        2955.50           1296          58.00       224.50
 1251.41        2955.75           1299          52.00       198.34
 1251.44        2956.00           1302          59.00       228.86
 1251.47        2956.25           1306          55.00       211.42
 1251.50        2956.50           1309          44.00       163.47
 1251.53        2956.75           1312          48.00       180.91
 1251.56        2957.00           1316          58.00       224.50
 1251.59        2957.25           1319          58.00       224.50
 1251.63        2957.50           1322          56.00       215.78
 1251.66        2957.75           1326          54.00       207.06
 1251.69        2958.00           1329          52.00       198.34
 1251.72        2958.25           1332          56.00       215.78
 1251.75        2958.50           1336          60.00       233.22
 1251.78        2958.75           1339          59.00       228.86
 1251.81        2959.00           1342          60.00       233.22
 1251.84        2959.25           1346          53.00       202.70
 1251.87        2959.50           1349          70.00       276.81
 1251.90        2959.75           1352          68.00       268.09
 1251.93        2960.00           1356         100.00       407.59
 1251.96        2960.25           1359         140.00       581.96
 1252.00        2960.50           1362         165.00       690.95
 1252.03        2960.75           1366         202.00       852.24
 1252.06        2961.00           1369         238.00      1009.18
 1252.09        2961.25           1372         299.00      1275.11
 1252.12        2961.50           1376         341.00      1458.22
 1252.15        2961.75           1379         440.00      1889.82
 1252.18        2962.00           1382         829.00      3585.83
 1252.21        2962.25           1386        2288.00      9948.48
 1252.24        2962.50           1389        3653.00     15903.40
 1252.27        2962.75           1392        5035.00     21934.66
 1252.30        2963.00           1396        6788.00     29588.15
 1252.33        2963.25           1399        8265.00     36039.38
 1252.37        2963.50           1402        9614.00     41933.72
 1252.40        2963.75           1406       11554.00     50414.03
 1252.43        2964.00           1409       12741.00     55604.89
 1252.46        2964.25           1412       14288.00     62372.49
 1252.49        2964.50           1416       16201.00     70745.02
 1252.52        2964.75           1419       17416.00     76064.84
 1252.55        2965.00           1422       18801.00     82131.06
 1252.58        2965.25           1426       20785.00     90824.74
 1252.62        2965.50           1429       22135.00     96742.89
 1252.65        2965.75           1432       23791.00    104005.40
 1252.68        2966.00           1436       25663.00    112218.90
 1252.71        2966.25           1439       26689.00    116722.30
 1252.74        2966.50           1442       27798.00    121591.40
 1252.77        2966.75           1446       29465.00    128913.00
 1252.80        2967.00           1449       30120.00    131790.70
 1252.83        2967.25           1452       30078.00    131606.20
 1252.86        2967.50           1456       30026.00    131377.70
 1252.90        2967.75           1459       30003.00    131276.70
 1252.93        2968.00           1462       30053.00    131496.40
 1252.96        2968.25           1466       29313.00    128245.30
 1252.99        2968.50           1469       28177.00    123255.70
 1253.02        2968.75           1472       26884.00    117578.40
 1253.05        2969.00           1476       25124.00    109853.60
 1253.08        2969.25           1479       23852.00    104272.90
 1253.11        2969.50           1482       22404.00     97922.38
 1253.14        2969.75           1486       20471.00     89448.52
 1253.18        2970.00           1489       19275.00     84207.66
 1253.21        2970.25           1492       17845.00     77943.60
 1253.24        2970.50           1496       16075.00     70193.43
 1253.27        2970.75           1499       14790.00     64569.16
 1253.30        2971.00           1502       13363.00     58325.60
 1253.33        2971.25           1506       11285.00     49237.89
 1253.36        2971.50           1509        9987.00     43563.87
 1253.39        2971.75           1513        8186.00     35694.26
 1253.42        2972.00           1516        6786.00     29579.42
 1253.46        2972.25           1519        5452.00     23754.94
 1253.49        2972.50           1523        3593.00     15641.60
 1253.52        2972.75           1526        2278.00      9904.86
 1253.55        2973.00           1529        1110.00      4811.07
 1253.58        2973.25           1533         422.00      1811.35
 1253.61        2973.50           1536         294.00      1253.32
 1253.64        2973.75           1539         252.00      1070.22
 1253.67        2974.00           1543         218.00       922.00
 1253.71        2974.25           1546         166.00       695.31
 1253.74        2974.50           1549         124.00       512.21
 1253.77        2974.75           1553          91.00       368.36
 1253.80        2975.00           1556          72.00       285.53
 1253.83        2975.25           1559          64.00       250.66
 1253.86        2975.50           1563          59.00       228.86
 1253.89        2975.75           1566          49.00       185.27
 1253.92        2976.00           1569          50.00       189.63
 1253.95        2976.25           1573          46.00       172.19
 1253.98        2976.50           1576          52.00       198.34
 1254.01        2976.75           1579          58.00       224.50
 1254.04        2977.00           1583          53.00       202.70
 1254.07        2977.25           1586          52.00       198.34
 1254.11        2977.50           1590          54.00       207.06
 1254.14        2977.75           1593          55.00       211.42
 1254.17        2978.00           1596          51.00       193.99
 1254.20        2978.25           1600          47.00       176.55
 1254.23        2978.50           1603          46.00       172.19
 1254.26        2978.75           1606          48.00       180.91
 1254.29        2979.00           1610          48.00       180.91
 1254.32        2979.25           1613          46.00       172.19
 1254.35        2979.50           1616          49.00       185.27
 1254.38        2979.75           1620          45.00       167.83
 1254.41        2980.00           1623          55.00       211.42
 1254.44        2980.25           1626          58.00       224.50
 1254.48        2980.50           1630          55.00       211.42
 1254.51        2980.75           1633          50.00       189.63
 1254.54        2981.00           1637          49.00       185.27
 1254.57        2981.25           1640          48.00       180.91
 1254.60        2981.50           1643          43.00       159.11
 1254.63        2981.75           1647          50.00       189.63
 1254.66        2982.00           1650          58.00       224.50
 1254.69        2982.25           1653          52.00       198.34
 1254.72        2982.50           1657          55.00       211.42
 1254.75        2982.75           1660          55.00       211.42
 1254.78        2983.00           1663          44.00       163.47
 1254.81        2983.25           1667          46.00       172.19
 1254.84        2983.50           1670          47.00       176.55
 1254.88        2983.75           1673          46.00       172.19
 1254.91        2984.00           1677          46.00       172.19
HS scan finished at 20:55:07
end
