************************************************************
  HS Scan of (1) Internal mercury lamp
************************************************************
Integration time is 0.2294 seconds per sample
dh220618Manchester 53.47 2.23 2.804185pr1000
************************************************************
Dead Time -------------------------  3E-08 
Number of Cycles Used -------------  4 
Starting Wavelength (Angstroms) ---  2950 
Final Wavelength (Angstoms) -------  2984 
Wavelength Increment (Angstroms) --  .25 
Filter Wheel #1 Position ---------- (1) Ground quartz diffuser (ND=2.32)
Filter Wheel #2 Position ---------- (1) Neutral Density 0.494



************************************************************
HS scan start time = 01:34:44
Dark Count =  5.8 


Time (GMT)  Wavelength (Ang)  Step Number  Raw Counts  Counts/Second

   95.10        2950.00           1222          61.00       240.63
   95.16        2950.25           1226          61.00       240.63
   95.19        2950.50           1229          69.00       275.50
   95.23        2950.75           1232          55.00       214.47
   95.26        2951.00           1236          52.00       201.40
   95.29        2951.25           1239          59.00       231.91
   95.32        2951.50           1242          58.00       227.55
   95.35        2951.75           1246          50.00       192.68
   95.38        2952.00           1249          59.00       231.91
   95.41        2952.25           1252          56.00       218.83
   95.44        2952.50           1256          51.00       197.04
   95.47        2952.75           1259          52.00       201.40
   95.50        2953.00           1262          50.00       192.68
   95.53        2953.25           1266          59.00       231.91
   95.56        2953.50           1269          53.00       205.76
   95.60        2953.75           1272          57.00       223.19
   95.63        2954.00           1276          61.00       240.63
   95.66        2954.25           1279          50.00       192.68
   95.69        2954.50           1282          50.00       192.68
   95.72        2954.75           1286          48.00       183.96
   95.75        2955.00           1289          52.00       201.40
   95.78        2955.25           1292          51.00       197.04
   95.81        2955.50           1296          50.00       192.68
   95.84        2955.75           1299          51.00       197.04
   95.87        2956.00           1302          59.00       231.91
   95.90        2956.25           1306          48.00       183.96
   95.94        2956.50           1309          53.00       205.76
   95.97        2956.75           1312          59.00       231.91
   96.00        2957.00           1316          66.00       262.43
   96.03        2957.25           1319          53.00       205.76
   96.06        2957.50           1322          52.00       201.40
   96.09        2957.75           1326          55.00       214.47
   96.12        2958.00           1329          52.00       201.40
   96.15        2958.25           1332          57.00       223.19
   96.19        2958.50           1336          49.00       188.32
   96.22        2958.75           1339          51.00       197.04
   96.25        2959.00           1342          51.00       197.04
   96.28        2959.25           1346          47.00       179.60
   96.31        2959.50           1349          59.00       231.91
   96.34        2959.75           1352          66.00       262.43
   96.37        2960.00           1356          92.00       375.77
   96.40        2960.25           1359         119.00       493.47
   96.43        2960.50           1362         142.00       593.73
   96.46        2960.75           1366         186.00       785.55
   96.49        2961.00           1369         239.00      1016.60
   96.52        2961.25           1372         276.00      1177.90
   96.55        2961.50           1376         325.00      1391.51
   96.59        2961.75           1379         452.00      1945.19
   96.62        2962.00           1382         963.00      4173.15
   96.65        2962.25           1386        2458.00     10693.05
   96.68        2962.50           1389        3867.00     16840.24
   96.71        2962.75           1392        5136.00     22378.58
   96.74        2963.00           1396        6922.00     30176.39
   96.77        2963.25           1399        8263.00     36033.70
   96.80        2963.50           1402        9777.00     42649.14
   96.83        2963.75           1406       11618.00     50696.93
   96.87        2964.00           1409       12901.00     56307.77
   96.90        2964.25           1412       14516.00     63373.21
   96.93        2964.50           1416       16417.00     71693.71
   96.96        2964.75           1419       17737.00     77473.66
   96.99        2965.00           1422       19221.00     83974.14
   97.02        2965.25           1426       21275.00     92975.62
   97.05        2965.50           1429       22661.00     99052.40
   97.08        2965.75           1432       23908.00    104521.70
   97.12        2966.00           1436       25592.00    111910.40
   97.15        2966.25           1439       27069.00    118393.60
   97.18        2966.50           1442       28382.00    124159.10
   97.21        2966.75           1446       29717.00    130023.20
   97.24        2967.00           1449       30134.00    131855.30
   97.27        2967.25           1452       30180.00    132057.50
   97.30        2967.50           1456       30087.00    131648.80
   97.33        2967.75           1459       30263.00    132422.10
   97.36        2968.00           1462       30238.00    132312.30
   97.40        2968.25           1466       29380.00    128542.70
   97.43        2968.50           1469       28242.00    123544.20
   97.46        2968.75           1472       26819.00    117296.10
   97.49        2969.00           1476       25114.00    109812.80
   97.52        2969.25           1479       23772.00    103925.10
   97.55        2969.50           1482       22082.00     96513.57
   97.58        2969.75           1486       20496.00     89561.15
   97.61        2970.00           1489       19065.00     83290.68
   97.64        2970.25           1492       17751.00     77534.98
   97.67        2970.50           1496       15939.00     69601.16
   97.70        2970.75           1499       14611.00     63788.92
   97.74        2971.00           1502       13094.00     57151.96
   97.77        2971.25           1506       11056.00     48239.78
   97.80        2971.50           1509        9578.00     41779.45
   97.83        2971.75           1513        7823.00     34111.61
   97.86        2972.00           1516        6476.00     28228.78
   97.89        2972.25           1519        5140.00     22396.04
   97.92        2972.50           1523        3385.00     14737.12
   97.95        2972.75           1526        2104.00      9148.98
   97.98        2973.00           1529        1013.00      4391.16
   98.01        2973.25           1533         408.00      1753.36
   98.05        2973.50           1536         289.00      1234.57
   98.08        2973.75           1539         250.00      1064.55
   98.11        2974.00           1543         212.00       898.89
   98.14        2974.25           1546         155.00       650.41
   98.17        2974.50           1549         124.00       515.27
   98.20        2974.75           1553          85.00       345.25
   98.23        2975.00           1556          65.00       258.07
   98.26        2975.25           1559          55.00       214.47
   98.29        2975.50           1563          53.00       205.76
   98.32        2975.75           1566          61.00       240.63
   98.35        2976.00           1569          55.00       214.47
   98.38        2976.25           1573          58.00       227.55
   98.42        2976.50           1576          57.00       223.19
   98.45        2976.75           1579          47.00       179.60
   98.48        2977.00           1583          57.00       223.19
   98.51        2977.25           1586          58.00       227.55
   98.54        2977.50           1590          48.00       183.96
   98.57        2977.75           1593          55.00       214.47
   98.60        2978.00           1596          46.00       175.24
   98.63        2978.25           1600          51.00       197.04
   98.66        2978.50           1603          58.00       227.55
   98.69        2978.75           1606          52.00       201.40
   98.72        2979.00           1610          54.00       210.11
   98.75        2979.25           1613          49.00       188.32
   98.78        2979.50           1616          49.00       188.32
   98.82        2979.75           1620          51.00       197.04
   98.85        2980.00           1623          54.00       210.11
   98.88        2980.25           1626          46.00       175.24
   98.91        2980.50           1630          50.00       192.68
   98.94        2980.75           1633          57.00       223.19
   98.97        2981.00           1637          50.00       192.68
   99.00        2981.25           1640          59.00       231.91
   99.03        2981.50           1643          56.00       218.83
   99.06        2981.75           1647          48.00       183.96
   99.09        2982.00           1650          51.00       197.04
   99.12        2982.25           1653          52.00       201.40
   99.15        2982.50           1657          54.00       210.11
   99.18        2982.75           1660          50.00       192.68
   99.22        2983.00           1663          51.00       197.04
   99.25        2983.25           1667          48.00       183.96
   99.28        2983.50           1670          54.00       210.11
   99.31        2983.75           1673          50.00       192.68
   99.34        2984.00           1677          53.00       205.76
HS scan finished at 01:39:33
end
************************************************************
  HS Scan of (1) Internal mercury lamp
************************************************************
Integration time is 0.2294 seconds per sample
dh220618Manchester 53.47 2.23 2.804185pr1000
************************************************************
Dead Time -------------------------  3E-08 
Number of Cycles Used -------------  4 
Starting Wavelength (Angstroms) ---  2950 
Final Wavelength (Angstoms) -------  2984 
Wavelength Increment (Angstroms) --  .25 
Filter Wheel #1 Position ---------- (1) Ground quartz diffuser (ND=2.32)
Filter Wheel #2 Position ---------- (1) Neutral Density 0.494



************************************************************
HS scan start time = 21:42:05
Dark Count =  5.5 


Time (GMT)  Wavelength (Ang)  Step Number  Raw Counts  Counts/Second

 1302.45        2950.00           1222          62.00       246.30
 1302.52        2950.25           1226          53.00       207.06
 1302.55        2950.50           1229          57.00       224.50
 1302.58        2950.75           1232          58.00       228.86
 1302.61        2951.00           1236          54.00       211.42
 1302.64        2951.25           1239          52.00       202.70
 1302.67        2951.50           1242          52.00       202.70
 1302.70        2951.75           1246          54.00       211.42
 1302.73        2952.00           1249          55.00       215.78
 1302.76        2952.25           1252          56.00       220.14
 1302.79        2952.50           1256          59.00       233.22
 1302.82        2952.75           1259          59.00       233.22
 1302.85        2953.00           1262          55.00       215.78
 1302.88        2953.25           1266          55.00       215.78
 1302.91        2953.50           1269          62.00       246.30
 1302.94        2953.75           1272          56.00       220.14
 1302.98        2954.00           1276          65.00       259.37
 1303.01        2954.25           1279          57.00       224.50
 1303.04        2954.50           1282          57.00       224.50
 1303.07        2954.75           1286          57.00       224.50
 1303.10        2955.00           1289          56.00       220.14
 1303.13        2955.25           1292          49.00       189.63
 1303.16        2955.50           1296          50.00       193.99
 1303.19        2955.75           1299          57.00       224.50
 1303.22        2956.00           1302          55.00       215.78
 1303.26        2956.25           1306          43.00       163.47
 1303.29        2956.50           1309          59.00       233.22
 1303.32        2956.75           1312          58.00       228.86
 1303.35        2957.00           1316          56.00       220.14
 1303.38        2957.25           1319          62.00       246.30
 1303.41        2957.50           1322          54.00       211.42
 1303.44        2957.75           1326          54.00       211.42
 1303.47        2958.00           1329          59.00       233.22
 1303.50        2958.25           1332          47.00       180.91
 1303.53        2958.50           1336          50.00       193.99
 1303.57        2958.75           1339          48.00       185.27
 1303.60        2959.00           1342          56.00       220.14
 1303.63        2959.25           1346          62.00       246.30
 1303.66        2959.50           1349          66.00       263.73
 1303.69        2959.75           1352          72.00       289.89
 1303.72        2960.00           1356         107.00       442.46
 1303.75        2960.25           1359         146.00       612.48
 1303.78        2960.50           1362         167.00       704.03
 1303.81        2960.75           1366         228.00       969.95
 1303.84        2961.00           1369         259.00      1105.09
 1303.87        2961.25           1372         289.00      1235.88
 1303.90        2961.50           1376         361.00      1549.77
 1303.93        2961.75           1379         541.00      2334.51
 1303.96        2962.00           1382        1225.00      5316.89
 1304.00        2962.25           1386        2888.00     12570.13
 1304.03        2962.50           1389        4291.00     18691.82
 1304.06        2962.75           1392        5640.00     24580.02
 1304.09        2963.00           1396        7423.00     32365.76
 1304.12        2963.25           1399        8898.00     38809.33
 1304.15        2963.50           1402       10209.00     44538.55
 1304.18        2963.75           1406       12202.00     53251.96
 1304.21        2964.00           1409       13494.00     58903.04
 1304.24        2964.25           1412       14878.00     64958.64
 1304.28        2964.50           1416       16820.00     73459.45
 1304.31        2964.75           1419       18252.00     79730.60
 1304.34        2965.00           1422       19599.00     85631.65
 1304.37        2965.25           1426       21558.00     94217.55
 1304.40        2965.50           1429       22953.00    100334.30
 1304.43        2965.75           1432       24413.00    106738.40
 1304.46        2966.00           1436       26399.00    115453.70
 1304.49        2966.25           1439       27518.00    120366.30
 1304.52        2966.50           1442       28951.00    126659.50
 1304.56        2966.75           1446       30145.00    131905.00
 1304.59        2967.00           1449       30248.00    132357.60
 1304.62        2967.25           1452       30506.00    133491.30
 1304.65        2967.50           1456       30492.00    133429.70
 1304.68        2967.75           1459       30486.00    133403.40
 1304.71        2968.00           1462       30236.00    132304.80
 1304.74        2968.25           1466       29112.00    127366.70
 1304.77        2968.50           1469       28055.00    122724.40
 1304.80        2968.75           1472       26622.00    116432.60
 1304.84        2969.00           1476       24763.00    108274.00
 1304.87        2969.25           1479       23384.00    102224.50
 1304.90        2969.50           1482       21882.00     95638.00
 1304.93        2969.75           1486       19958.00     87204.74
 1304.96        2970.00           1489       18774.00     82017.18
 1304.99        2970.25           1492       17478.00     76340.73
 1305.02        2970.50           1496       15685.00     68490.63
 1305.05        2970.75           1499       14319.00     62512.51
 1305.08        2971.00           1502       12823.00     55967.92
 1305.12        2971.25           1506       10892.00     47524.12
 1305.15        2971.50           1509        9384.00     40932.97
 1305.18        2971.75           1513        7624.00     33243.69
 1305.21        2972.00           1516        6139.00     26758.61
 1305.24        2972.25           1519        4734.00     20625.23
 1305.27        2972.50           1523        3002.00     13067.46
 1305.30        2972.75           1526        1645.00      7148.44
 1305.33        2973.00           1529         743.00      3215.22
 1305.36        2973.25           1533         373.00      1602.08
 1305.40        2973.50           1536         300.00      1283.83
 1305.43        2973.75           1539         255.00      1087.66
 1305.46        2974.00           1543         218.00       926.36
 1305.49        2974.25           1546         152.00       638.63
 1305.52        2974.50           1549         135.00       564.53
 1305.55        2974.75           1553          82.00       333.48
 1305.58        2975.00           1556          69.00       276.81
 1305.61        2975.25           1559          64.00       255.02
 1305.64        2975.50           1563          52.00       202.70
 1305.67        2975.75           1566          51.00       198.34
 1305.70        2976.00           1569          52.00       202.70
 1305.73        2976.25           1573          51.00       198.34
 1305.76        2976.50           1576          58.00       228.86
 1305.80        2976.75           1579          48.00       185.27
 1305.83        2977.00           1583          62.00       246.30
 1305.86        2977.25           1586          54.00       211.42
 1305.89        2977.50           1590          47.00       180.91
 1305.92        2977.75           1593          52.00       202.70
 1305.95        2978.00           1596          47.00       180.91
 1305.98        2978.25           1600          39.00       146.03
 1306.01        2978.50           1603          57.00       224.50
 1306.04        2978.75           1606          59.00       233.22
 1306.07        2979.00           1610          44.00       167.83
 1306.11        2979.25           1613          49.00       189.63
 1306.14        2979.50           1616          45.00       172.19
 1306.17        2979.75           1620          56.00       220.14
 1306.20        2980.00           1623          41.00       154.75
 1306.23        2980.25           1626          51.00       198.34
 1306.26        2980.50           1630          49.00       189.63
 1306.29        2980.75           1633          50.00       193.99
 1306.32        2981.00           1637          49.00       189.63
 1306.35        2981.25           1640          48.00       185.27
 1306.38        2981.50           1643          42.00       159.11
 1306.41        2981.75           1647          54.00       211.42
 1306.44        2982.00           1650          48.00       185.27
 1306.48        2982.25           1653          50.00       193.99
 1306.51        2982.50           1657          50.00       193.99
 1306.54        2982.75           1660          50.00       193.99
 1306.57        2983.00           1663          49.00       189.63
 1306.60        2983.25           1667          48.00       185.27
 1306.63        2983.50           1670          47.00       180.91
 1306.66        2983.75           1673          52.00       202.70
 1306.69        2984.00           1677          58.00       228.86
HS scan finished at 21:46:54
end
