************************************************************
  HS Scan of (1) Internal mercury lamp
************************************************************
Integration time is 0.2294 seconds per sample
dh280619El Arenosillo 37.1 6.73 3.179721pr1000
************************************************************
Dead Time -------------------------  3E-08 
Number of Cycles Used -------------  4 
Starting Wavelength (Angstroms) ---  2950 
Final Wavelength (Angstoms) -------  2984 
Wavelength Increment (Angstroms) --  .25 
Filter Wheel #1 Position ---------- (1) Ground quartz diffuser (ND=2.32)
Filter Wheel #2 Position ---------- (1) Neutral Density 0.494



************************************************************
HS scan start time = 02:58:52
Dark Count =  6.9 


Time (GMT)  Wavelength (Ang)  Step Number  Raw Counts  Counts/Second

  179.23        2950.00           1222          53.00       200.96
  179.29        2950.25           1226          58.00       222.76
  179.33        2950.50           1229          60.00       231.48
  179.36        2950.75           1232          50.00       187.88
  179.39        2951.00           1236          55.00       209.68
  179.42        2951.25           1239          59.00       227.12
  179.45        2951.50           1242          55.00       209.68
  179.48        2951.75           1246          53.00       200.96
  179.51        2952.00           1249          55.00       209.68
  179.54        2952.25           1252          54.00       205.32
  179.57        2952.50           1256          57.00       218.40
  179.61        2952.75           1259          52.00       196.60
  179.64        2953.00           1262          52.00       196.60
  179.67        2953.25           1266          57.00       218.40
  179.70        2953.50           1269          55.00       209.68
  179.73        2953.75           1272          53.00       200.96
  179.76        2954.00           1276          48.00       179.16
  179.79        2954.25           1279          54.00       205.32
  179.82        2954.50           1282          58.00       222.76
  179.85        2954.75           1286          52.00       196.60
  179.88        2955.00           1289          52.00       196.60
  179.91        2955.25           1292          47.00       174.80
  179.94        2955.50           1296          54.00       205.32
  179.97        2955.75           1299          55.00       209.68
  180.01        2956.00           1302          58.00       222.76
  180.04        2956.25           1306          53.00       200.96
  180.07        2956.50           1309          55.00       209.68
  180.10        2956.75           1312          49.00       183.52
  180.13        2957.00           1316          55.00       209.68
  180.16        2957.25           1319          51.00       192.24
  180.19        2957.50           1322          56.00       214.04
  180.22        2957.75           1326          59.00       227.12
  180.25        2958.00           1329          52.00       196.60
  180.28        2958.25           1332          52.00       196.60
  180.31        2958.50           1336          59.00       227.12
  180.34        2958.75           1339          45.00       166.09
  180.37        2959.00           1342          61.00       235.83
  180.41        2959.25           1346          56.00       214.04
  180.44        2959.50           1349          66.00       257.63
  180.47        2959.75           1352          87.00       349.18
  180.50        2960.00           1356         100.00       405.85
  180.53        2960.25           1359         140.00       580.22
  180.56        2960.50           1362         183.00       767.67
  180.59        2960.75           1366         223.00       942.05
  180.62        2961.00           1369         273.00      1160.02
  180.65        2961.25           1372         311.00      1325.68
  180.68        2961.50           1376         384.00      1643.93
  180.71        2961.75           1379         503.00      2162.74
  180.75        2962.00           1382        1150.00      4983.74
  180.78        2962.25           1386        2771.00     12053.62
  180.81        2962.50           1389        4208.00     18323.50
  180.84        2962.75           1392        5660.00     24661.22
  180.87        2963.00           1396        7567.00     32988.61
  180.90        2963.25           1399        9085.00     39620.30
  180.93        2963.50           1402       10290.00     44886.48
  180.96        2963.75           1406       12304.00     53691.91
  180.99        2964.00           1409       13679.00     59706.24
  181.02        2964.25           1412       15175.00     66252.31
  181.05        2964.50           1416       16813.00     73422.66
  181.09        2964.75           1419       18449.00     80587.36
  181.12        2965.00           1422       19571.00     85502.82
  181.15        2965.25           1426       21605.00     94417.46
  181.18        2965.50           1429       22925.00    100205.30
  181.21        2965.75           1432       24493.00    107083.20
  181.24        2966.00           1436       26290.00    114969.10
  181.27        2966.25           1439       27557.00    120531.40
  181.30        2966.50           1442       28961.00    126697.30
  181.33        2966.75           1446       30326.00    132694.10
  181.36        2967.00           1449       30707.00    134368.40
  181.40        2967.25           1452       30855.00    135018.80
  181.43        2967.50           1456       30566.00    133748.80
  181.46        2967.75           1459       30570.00    133766.40
  181.49        2968.00           1462       30520.00    133546.60
  181.52        2968.25           1466       29723.00    130044.70
  181.55        2968.50           1469       28256.00    123600.90
  181.58        2968.75           1472       26972.00    117962.90
  181.61        2969.00           1476       25020.00    109395.50
  181.64        2969.25           1479       23552.00    102955.30
  181.67        2969.50           1482       22064.00     96429.82
  181.70        2969.75           1486       20102.00     87829.63
  181.74        2970.00           1489       18883.00     82488.54
  181.77        2970.25           1492       17430.00     76124.40
  181.80        2970.50           1496       15510.00     67718.51
  181.83        2970.75           1499       14325.00     62532.64
  181.86        2971.00           1502       12844.00     56053.64
  181.89        2971.25           1506       11044.00     48182.50
  181.92        2971.50           1509        9459.00     41254.60
  181.95        2971.75           1513        7617.00     33207.00
  181.98        2972.00           1516        6254.00     27254.62
  182.01        2972.25           1519        4769.00     20771.88
  182.04        2972.50           1523        3060.00     13314.39
  182.08        2972.75           1526        1662.00      7216.47
  182.11        2973.00           1529         617.00      2659.76
  182.14        2973.25           1533         327.00      1395.44
  182.17        2973.50           1536         276.00      1173.10
  182.20        2973.75           1539         213.00       898.45
  182.23        2974.00           1543         181.00       758.95
  182.26        2974.25           1546         138.00       571.50
  182.29        2974.50           1549         106.00       432.00
  182.32        2974.75           1553          61.00       235.83
  182.35        2975.00           1556          60.00       231.48
  182.38        2975.25           1559          58.00       222.76
  182.41        2975.50           1563          49.00       183.52
  182.44        2975.75           1566          53.00       200.96
  182.47        2976.00           1569          55.00       209.68
  182.50        2976.25           1573          62.00       240.19
  182.53        2976.50           1576          53.00       200.96
  182.56        2976.75           1579          53.00       200.96
  182.59        2977.00           1583          54.00       205.32
  182.63        2977.25           1586          48.00       179.16
  182.66        2977.50           1590          52.00       196.60
  182.69        2977.75           1593          53.00       200.96
  182.72        2978.00           1596          51.00       192.24
  182.75        2978.25           1600          57.00       218.40
  182.78        2978.50           1603          51.00       192.24
  182.81        2978.75           1606          47.00       174.80
  182.84        2979.00           1610          44.00       161.73
  182.87        2979.25           1613          55.00       209.68
  182.90        2979.50           1616          46.00       170.45
  182.93        2979.75           1620          47.00       174.80
  182.96        2980.00           1623          51.00       192.24
  183.00        2980.25           1626          72.00       283.79
  183.03        2980.50           1630          53.00       200.96
  183.06        2980.75           1633          52.00       196.60
  183.09        2981.00           1637          50.00       187.88
  183.12        2981.25           1640          52.00       196.60
  183.15        2981.50           1643          44.00       161.73
  183.18        2981.75           1647          57.00       218.40
  183.21        2982.00           1650          51.00       192.24
  183.24        2982.25           1653          45.00       166.09
  183.27        2982.50           1657          47.00       174.80
  183.30        2982.75           1660          45.00       166.09
  183.33        2983.00           1663          50.00       187.88
  183.36        2983.25           1667          50.00       187.88
  183.40        2983.50           1670          51.00       192.24
  183.43        2983.75           1673          49.00       183.52
  183.46        2984.00           1677          51.00       192.24
HS scan finished at 03:03:41
end
