************************************************************
  HS Scan of (1) Internal mercury lamp
************************************************************
Integration time is 0.2294 seconds per sample
dh290618Manchester 53.47 2.23 2.857833pr1000
************************************************************
Dead Time -------------------------  3E-08 
Number of Cycles Used -------------  4 
Starting Wavelength (Angstroms) ---  2950 
Final Wavelength (Angstoms) -------  2984 
Wavelength Increment (Angstroms) --  .25 
Filter Wheel #1 Position ---------- (1) Ground quartz diffuser (ND=2.32)
Filter Wheel #2 Position ---------- (1) Neutral Density 0.494



************************************************************
HS scan start time = 01:39:12
Dark Count =  7.6 


Time (GMT)  Wavelength (Ang)  Step Number  Raw Counts  Counts/Second

   99.57        2950.00           1222          55.00       206.63
   99.64        2950.25           1226          55.00       206.63
   99.67        2950.50           1229          47.00       171.75
   99.70        2950.75           1232          60.00       228.42
   99.73        2951.00           1236          49.00       180.47
   99.76        2951.25           1239          49.00       180.47
   99.80        2951.50           1242          60.00       228.42
   99.83        2951.75           1246          56.00       210.99
   99.86        2952.00           1249          51.00       189.19
   99.89        2952.25           1252          58.00       219.71
   99.92        2952.50           1256          56.00       210.99
   99.95        2952.75           1259          56.00       210.99
   99.98        2953.00           1262          59.00       224.06
  100.01        2953.25           1266          52.00       193.55
  100.04        2953.50           1269          57.00       215.35
  100.07        2953.75           1272          57.00       215.35
  100.10        2954.00           1276          57.00       215.35
  100.13        2954.25           1279          54.00       202.27
  100.17        2954.50           1282          51.00       189.19
  100.20        2954.75           1286          65.00       250.22
  100.23        2955.00           1289          54.00       202.27
  100.26        2955.25           1292          52.00       193.55
  100.29        2955.50           1296          58.00       219.71
  100.32        2955.75           1299          56.00       210.99
  100.35        2956.00           1302          55.00       206.63
  100.38        2956.25           1306          52.00       193.55
  100.41        2956.50           1309          53.00       197.91
  100.44        2956.75           1312          59.00       224.06
  100.48        2957.00           1316          48.00       176.11
  100.51        2957.25           1319          51.00       189.19
  100.54        2957.50           1322          55.00       206.63
  100.57        2957.75           1326          58.00       219.71
  100.60        2958.00           1329          51.00       189.19
  100.63        2958.25           1332          55.00       206.63
  100.66        2958.50           1336          60.00       228.42
  100.69        2958.75           1339          67.00       258.94
  100.72        2959.00           1342          58.00       219.71
  100.75        2959.25           1346          61.00       232.78
  100.78        2959.50           1349          55.00       206.63
  100.81        2959.75           1352          86.00       341.76
  100.85        2960.00           1356         119.00       485.62
  100.88        2960.25           1359         141.00       581.53
  100.91        2960.50           1362         175.00       729.75
  100.94        2960.75           1366         230.00       969.51
  100.97        2961.00           1369         283.00      1200.57
  101.00        2961.25           1372         303.00      1287.76
  101.03        2961.50           1376         381.00      1627.80
  101.06        2961.75           1379         672.00      2896.50
  101.09        2962.00           1382        1531.00      6642.13
  101.13        2962.25           1386        3284.00     14288.60
  101.16        2962.50           1389        4736.00     20624.79
  101.19        2962.75           1392        6202.00     27024.52
  101.22        2963.00           1396        8004.00     34894.40
  101.25        2963.25           1399        9431.00     41129.19
  101.28        2963.50           1402       10827.00     47230.78
  101.31        2963.75           1406       12758.00     55674.44
  101.34        2964.00           1409       14155.00     61785.74
  101.37        2964.25           1412       15523.00     67772.36
  101.40        2964.50           1416       17424.00     76095.06
  101.44        2964.75           1419       18896.00     82542.43
  101.47        2965.00           1422       20424.00     89237.71
  101.50        2965.25           1426       22404.00     97917.56
  101.53        2965.50           1429       23862.00    104312.00
  101.56        2965.75           1432       25230.00    110313.90
  101.59        2966.00           1436       27086.00    118460.40
  101.62        2966.25           1439       28249.00    123567.10
  101.65        2966.50           1442       29721.00    130032.90
  101.68        2966.75           1446       30740.00    134510.30
  101.72        2967.00           1449       30906.00    135239.80
  101.75        2967.25           1452       31024.00    135758.40
  101.78        2967.50           1456       30907.00    135244.20
  101.81        2967.75           1459       30813.00    134831.10
  101.84        2968.00           1462       30587.00    133838.00
  101.87        2968.25           1466       29313.00    128240.50
  101.90        2968.50           1469       28073.00    122794.20
  101.93        2968.75           1472       26653.00    116559.50
  101.97        2969.00           1476       24922.00    108962.40
  102.00        2969.25           1479       23640.00    103338.20
  102.03        2969.50           1482       22101.00     96588.99
  102.06        2969.75           1486       20217.00     88330.55
  102.09        2970.00           1489       18900.00     82559.95
  102.12        2970.25           1492       17594.00     76839.53
  102.15        2970.50           1496       15621.00     68201.31
  102.18        2970.75           1499       14166.00     61833.87
  102.21        2971.00           1502       12577.00     54882.80
  102.25        2971.25           1506       10720.00     46763.03
  102.28        2971.50           1509        9180.00     40032.36
  102.31        2971.75           1513        7344.00     32011.55
  102.34        2972.00           1516        5867.00     25561.88
  102.37        2972.25           1519        4479.00     19503.13
  102.40        2972.50           1523        2735.00     11893.52
  102.43        2972.75           1526        1435.00      6223.48
  102.46        2973.00           1529         613.00      2639.27
  102.49        2973.25           1533         349.00      1488.30
  102.53        2973.50           1536         298.00      1265.96
  102.56        2973.75           1539         242.00      1021.83
  102.59        2974.00           1543         208.00       873.61
  102.62        2974.25           1546         158.00       655.64
  102.65        2974.50           1549         124.00       507.42
  102.68        2974.75           1553          80.00       315.61
  102.71        2975.00           1556          61.00       232.78
  102.74        2975.25           1559          59.00       224.06
  102.77        2975.50           1563          55.00       206.63
  102.81        2975.75           1566          56.00       210.99
  102.84        2976.00           1569          47.00       171.75
  102.87        2976.25           1573          46.00       167.39
  102.90        2976.50           1576          51.00       189.19
  102.93        2976.75           1579          53.00       197.91
  102.96        2977.00           1583          47.00       171.75
  102.99        2977.25           1586          54.00       202.27
  103.02        2977.50           1590          56.00       210.99
  103.05        2977.75           1593          49.00       180.47
  103.09        2978.00           1596          53.00       197.91
  103.12        2978.25           1600          45.00       163.03
  103.15        2978.50           1603          45.00       163.03
  103.18        2978.75           1606          50.00       184.83
  103.21        2979.00           1610          51.00       189.19
  103.24        2979.25           1613          47.00       171.75
  103.27        2979.50           1616          48.00       176.11
  103.30        2979.75           1620          56.00       210.99
  103.33        2980.00           1623          56.00       210.99
  103.36        2980.25           1626          53.00       197.91
  103.39        2980.50           1630          54.00       202.27
  103.43        2980.75           1633          52.00       193.55
  103.46        2981.00           1637          49.00       180.47
  103.49        2981.25           1640          55.00       206.63
  103.52        2981.50           1643          50.00       184.83
  103.55        2981.75           1647          56.00       210.99
  103.58        2982.00           1650          47.00       171.75
  103.61        2982.25           1653          46.00       167.39
  103.64        2982.50           1657          42.00       149.96
  103.68        2982.75           1660          46.00       167.39
  103.71        2983.00           1663          49.00       180.47
  103.74        2983.25           1667          53.00       197.91
  103.77        2983.50           1670          37.00       128.16
  103.80        2983.75           1673          48.00       176.11
  103.83        2984.00           1677          47.00       171.75
HS scan finished at 01:44:03
end
************************************************************
  HS Scan of (1) Internal mercury lamp
************************************************************
Integration time is 0.2294 seconds per sample
dh290618Manchester 53.47 2.23 3.072425pr1000
************************************************************
Dead Time -------------------------  3E-08 
Number of Cycles Used -------------  4 
Starting Wavelength (Angstroms) ---  2950 
Final Wavelength (Angstoms) -------  2984 
Wavelength Increment (Angstroms) --  .25 
Filter Wheel #1 Position ---------- (1) Ground quartz diffuser (ND=2.32)
Filter Wheel #2 Position ---------- (1) Neutral Density 0.494



************************************************************
HS scan start time = 21:42:08
Dark Count =  6.8 


Time (GMT)  Wavelength (Ang)  Step Number  Raw Counts  Counts/Second

 1302.50        2950.00           1222          50.00       188.32
 1302.56        2950.25           1226          57.00       218.83
 1302.60        2950.50           1229          54.00       205.76
 1302.63        2950.75           1232          51.00       192.68
 1302.66        2951.00           1236          49.00       183.96
 1302.69        2951.25           1239          62.00       240.63
 1302.72        2951.50           1242          57.00       218.83
 1302.75        2951.75           1246          52.00       197.04
 1302.78        2952.00           1249          63.00       244.99
 1302.81        2952.25           1252          56.00       214.47
 1302.84        2952.50           1256          62.00       240.63
 1302.87        2952.75           1259          57.00       218.83
 1302.90        2953.00           1262          60.00       231.91
 1302.93        2953.25           1266          62.00       240.63
 1302.97        2953.50           1269          57.00       218.83
 1303.00        2953.75           1272          55.00       210.11
 1303.03        2954.00           1276          56.00       214.47
 1303.06        2954.25           1279          51.00       192.68
 1303.09        2954.50           1282          55.00       210.11
 1303.12        2954.75           1286          50.00       188.32
 1303.15        2955.00           1289          54.00       205.76
 1303.18        2955.25           1292          58.00       223.19
 1303.21        2955.50           1296          52.00       197.04
 1303.25        2955.75           1299          58.00       223.19
 1303.28        2956.00           1302          52.00       197.04
 1303.31        2956.25           1306          52.00       197.04
 1303.34        2956.50           1309          59.00       227.55
 1303.37        2956.75           1312          53.00       201.40
 1303.40        2957.00           1316          52.00       197.04
 1303.43        2957.25           1319          48.00       179.60
 1303.46        2957.50           1322          62.00       240.63
 1303.49        2957.75           1326          53.00       201.40
 1303.53        2958.00           1329          51.00       192.68
 1303.56        2958.25           1332          56.00       214.47
 1303.59        2958.50           1336          64.00       249.35
 1303.62        2958.75           1339          51.00       192.68
 1303.65        2959.00           1342          48.00       179.60
 1303.68        2959.25           1346          54.00       205.76
 1303.71        2959.50           1349          59.00       227.55
 1303.74        2959.75           1352          74.00       292.94
 1303.77        2960.00           1356          95.00       384.49
 1303.80        2960.25           1359         136.00       563.22
 1303.83        2960.50           1362         172.00       720.16
 1303.86        2960.75           1366         231.00       977.36
 1303.90        2961.00           1369         254.00      1077.63
 1303.93        2961.25           1372         291.00      1238.93
 1303.96        2961.50           1376         366.00      1565.90
 1303.99        2961.75           1379         534.00      2298.33
 1304.02        2962.00           1382        1209.00      5241.45
 1304.05        2962.25           1386        2870.00     12485.93
 1304.08        2962.50           1389        4287.00     18668.69
 1304.11        2962.75           1392        5861.00     25539.18
 1304.14        2963.00           1396        7849.00     34220.82
 1304.18        2963.25           1399        9405.00     41019.06
 1304.21        2963.50           1402       10929.00     47680.19
 1304.24        2963.75           1406       12875.00     56189.67
 1304.27        2964.00           1409       14505.00     63320.70
 1304.30        2964.25           1412       16040.00     70038.91
 1304.33        2964.50           1416       18061.00     78888.31
 1304.36        2964.75           1419       19686.00     86007.15
 1304.39        2965.00           1422       21137.00     92366.31
 1304.42        2965.25           1426       23216.00    101482.00
 1304.46        2965.50           1429       24857.00    108680.70
 1304.49        2965.75           1432       26354.00    115250.50
 1304.52        2966.00           1436       28465.00    124519.20
 1304.55        2966.25           1439       29891.00    130783.30
 1304.58        2966.50           1442       31255.00    136777.20
 1304.61        2966.75           1446       33159.00    145147.70
 1304.64        2967.00           1449       33507.00    146678.00
 1304.67        2967.25           1452       33609.00    147126.60
 1304.70        2967.50           1456       33528.00    146770.40
 1304.74        2967.75           1459       33561.00    146915.50
 1304.77        2968.00           1462       33447.00    146414.20
 1304.80        2968.25           1466       32831.00    143705.40
 1304.83        2968.50           1469       31411.00    137462.90
 1304.86        2968.75           1472       29798.00    130374.70
 1304.89        2969.00           1476       27781.00    121515.40
 1304.92        2969.25           1479       26319.00    115096.80
 1304.95        2969.50           1482       24737.00    108154.20
 1304.98        2969.75           1486       22830.00     99789.12
 1305.02        2970.00           1489       21291.00     93041.38
 1305.05        2970.25           1492       19738.00     86235.01
 1305.08        2970.50           1496       17772.00     77622.57
 1305.11        2970.75           1499       16343.00     71365.36
 1305.14        2971.00           1502       14606.00     63762.66
 1305.17        2971.25           1506       12453.00     54343.98
 1305.20        2971.50           1509       10991.00     47951.24
 1305.23        2971.75           1513        8899.00     38808.02
 1305.26        2972.00           1516        7312.00     31875.28
 1305.30        2972.25           1519        5723.00     24936.70
 1305.33        2972.50           1523        3699.00     16102.81
 1305.36        2972.75           1526        2242.00      9746.53
 1305.39        2973.00           1529        1055.00      4569.94
 1305.42        2973.25           1533         474.00      2036.74
 1305.45        2973.50           1536         364.00      1557.18
 1305.48        2973.75           1539         316.00      1347.92
 1305.51        2974.00           1543         261.00      1108.15
 1305.54        2974.25           1546         189.00       794.26
 1305.58        2974.50           1549         151.00       628.61
 1305.61        2974.75           1553         108.00       441.16
 1305.64        2975.00           1556          83.00       332.17
 1305.67        2975.25           1559          56.00       214.47
 1305.70        2975.50           1563          55.00       210.11
 1305.73        2975.75           1566          49.00       183.96
 1305.76        2976.00           1569          58.00       223.19
 1305.79        2976.25           1573          56.00       214.47
 1305.82        2976.50           1576          56.00       214.47
 1305.85        2976.75           1579          54.00       205.76
 1305.89        2977.00           1583          52.00       197.04
 1305.92        2977.25           1586          51.00       192.68
 1305.95        2977.50           1590          50.00       188.32
 1305.98        2977.75           1593          49.00       183.96
 1306.01        2978.00           1596          51.00       192.68
 1306.04        2978.25           1600          52.00       197.04
 1306.07        2978.50           1603          52.00       197.04
 1306.10        2978.75           1606          59.00       227.55
 1306.13        2979.00           1610          63.00       244.99
 1306.16        2979.25           1613          48.00       179.60
 1306.20        2979.50           1616          45.00       166.52
 1306.23        2979.75           1620          55.00       210.11
 1306.26        2980.00           1623          56.00       214.47
 1306.29        2980.25           1626          50.00       188.32
 1306.32        2980.50           1630          57.00       218.83
 1306.35        2980.75           1633          53.00       201.40
 1306.38        2981.00           1637          57.00       218.83
 1306.41        2981.25           1640          50.00       188.32
 1306.44        2981.50           1643          49.00       183.96
 1306.47        2981.75           1647          46.00       170.88
 1306.50        2982.00           1650          55.00       210.11
 1306.53        2982.25           1653          45.00       166.52
 1306.56        2982.50           1657          60.00       231.91
 1306.59        2982.75           1660          54.00       205.76
 1306.62        2983.00           1663          48.00       179.60
 1306.66        2983.25           1667          58.00       223.19
 1306.69        2983.50           1670          49.00       183.96
 1306.72        2983.75           1673          41.00       149.09
 1306.75        2984.00           1677          53.00       201.40
HS scan finished at 21:46:58
end
