************************************************************
  HS Scan of (1) Internal mercury lamp
************************************************************
Integration time is 0.2294 seconds per sample
dh010717Manchester 53.47 2.23 2.857833pr1000
************************************************************
Dead Time -------------------------  3E-08 
Number of Cycles Used -------------  4 
Starting Wavelength (Angstroms) ---  2950 
Final Wavelength (Angstoms) -------  2984 
Wavelength Increment (Angstroms) --  .25 
Filter Wheel #1 Position ---------- (1) Ground quartz diffuser (ND=2.32)
Filter Wheel #2 Position ---------- (1) Neutral Density 0.494



************************************************************
HS scan start time = 01:29:22
Dark Count =  8.399999 


Time (GMT)  Wavelength (Ang)  Step Number  Raw Counts  Counts/Second

   89.74        2950.00           1222          56.00       207.50
   89.81        2950.25           1226          47.00       168.27
   89.84        2950.50           1229          47.00       168.27
   89.87        2950.75           1232          46.00       163.91
   89.90        2951.00           1236          47.00       168.27
   89.93        2951.25           1239          49.00       176.98
   89.96        2951.50           1242          42.00       146.47
   89.99        2951.75           1246          45.00       159.55
   90.02        2952.00           1249          41.00       142.11
   90.05        2952.25           1252          48.00       172.63
   90.08        2952.50           1256          52.00       190.06
   90.11        2952.75           1259          44.00       155.19
   90.15        2953.00           1262          48.00       172.63
   90.18        2953.25           1266          39.00       133.39
   90.21        2953.50           1269          37.00       124.67
   90.24        2953.75           1272          45.00       159.55
   90.27        2954.00           1276          55.00       203.14
   90.30        2954.25           1279          41.00       142.11
   90.33        2954.50           1282          39.00       133.39
   90.36        2954.75           1286          37.00       124.67
   90.39        2955.00           1289          45.00       159.55
   90.42        2955.25           1292          52.00       190.06
   90.46        2955.50           1296          44.00       155.19
   90.49        2955.75           1299          63.00       238.01
   90.52        2956.00           1302          44.00       155.19
   90.55        2956.25           1306          38.00       129.03
   90.58        2956.50           1309          48.00       172.63
   90.61        2956.75           1312          44.00       155.19
   90.64        2957.00           1316          40.00       137.75
   90.67        2957.25           1319          54.00       198.78
   90.70        2957.50           1322          50.00       181.34
   90.73        2957.75           1326          53.00       194.42
   90.76        2958.00           1329          37.00       124.67
   90.79        2958.25           1332          44.00       155.19
   90.83        2958.50           1336          50.00       181.34
   90.86        2958.75           1339          51.00       185.70
   90.89        2959.00           1342          37.00       124.67
   90.92        2959.25           1346          43.00       150.83
   90.95        2959.50           1349          53.00       194.42
   90.98        2959.75           1352          59.00       220.58
   91.01        2960.00           1356         106.00       425.46
   91.04        2960.25           1359         133.00       543.16
   91.07        2960.50           1362         166.00       687.02
   91.10        2960.75           1366         242.00      1018.34
   91.13        2961.00           1369         284.00      1201.44
   91.16        2961.25           1372         323.00      1371.46
   91.20        2961.50           1376         411.00      1755.11
   91.23        2961.75           1379         583.00      2504.98
   91.26        2962.00           1382        1131.00      4894.35
   91.29        2962.25           1386        2760.00     11999.09
   91.32        2962.50           1389        4457.00     19403.62
   91.35        2962.75           1392        6042.00     26322.44
   91.38        2963.00           1396        8336.00     36341.26
   91.41        2963.25           1399        9952.00     43402.60
   91.44        2963.50           1402       11647.00     50812.36
   91.47        2963.75           1406       13972.00     60981.57
   91.51        2964.00           1409       15830.00     69112.63
   91.54        2964.25           1412       17599.00     76857.91
   91.57        2964.50           1416       19986.00     87314.72
   91.60        2964.75           1419       21898.00     95695.44
   91.63        2965.00           1422       23621.00    103251.30
   91.66        2965.25           1426       26049.00    113904.70
   91.69        2965.50           1429       27872.00    121908.00
   91.72        2965.75           1432       29612.00    129550.50
   91.75        2966.00           1436       31840.00    139341.50
   91.78        2966.25           1439       33584.00    147009.60
   91.82        2966.50           1442       35094.00    153651.70
   91.85        2966.75           1446       36782.00    161079.90
   91.88        2967.00           1449       37162.00    162752.60
   91.91        2967.25           1452       37460.00    164064.50
   91.94        2967.50           1456       37441.00    163980.90
   91.97        2967.75           1459       37312.00    163412.90
   92.00        2968.00           1462       36980.00    161951.50
   92.03        2968.25           1466       36170.00    158386.40
   92.06        2968.50           1469       34559.00    151298.10
   92.10        2968.75           1472       33572.00    146956.90
   92.13        2969.00           1476       31136.00    136247.10
   92.16        2969.25           1479       29373.00    128500.50
   92.19        2969.50           1482       27693.00    121122.00
   92.22        2969.75           1486       25407.00    111087.10
   92.25        2970.00           1489       23853.00    104269.00
   92.28        2970.25           1492       22087.00     96524.09
   92.31        2970.50           1496       19646.00     85824.88
   92.34        2970.75           1499       17843.00     77926.52
   92.37        2971.00           1502       16354.00     71406.50
   92.40        2971.25           1506       14015.00     61169.69
   92.43        2971.50           1509       12173.00     53112.46
   92.46        2971.75           1513        9829.00     42865.03
   92.50        2972.00           1516        8062.00     35144.27
   92.53        2972.25           1519        6349.00     27662.88
   92.56        2972.50           1523        4275.00     18609.34
   92.59        2972.75           1526        2712.00     11789.70
   92.62        2973.00           1529        1351.00      5853.69
   92.65        2973.25           1533         499.00      2138.76
   92.68        2973.50           1536         329.00      1397.62
   92.71        2973.75           1539         279.00      1179.64
   92.74        2974.00           1543         229.00       961.67
   92.77        2974.25           1546         176.00       730.62
   92.81        2974.50           1549         131.00       534.45
   92.84        2974.75           1553          78.00       303.40
   92.87        2975.00           1556          59.00       220.58
   92.90        2975.25           1559          53.00       194.42
   92.93        2975.50           1563          47.00       168.27
   92.96        2975.75           1566          44.00       155.19
   92.99        2976.00           1569          47.00       168.27
   93.02        2976.25           1573          49.00       176.98
   93.05        2976.50           1576          49.00       176.98
   93.08        2976.75           1579          44.00       155.19
   93.11        2977.00           1583          45.00       159.55
   93.14        2977.25           1586          46.00       163.91
   93.17        2977.50           1590          40.00       137.75
   93.20        2977.75           1593          45.00       159.55
   93.24        2978.00           1596          42.00       146.47
   93.27        2978.25           1600          48.00       172.63
   93.30        2978.50           1603          45.00       159.55
   93.33        2978.75           1606          44.00       155.19
   93.36        2979.00           1610          49.00       176.98
   93.39        2979.25           1613          43.00       150.83
   93.42        2979.50           1616          42.00       146.47
   93.45        2979.75           1620          43.00       150.83
   93.48        2980.00           1623          46.00       163.91
   93.51        2980.25           1626          47.00       168.27
   93.54        2980.50           1630          45.00       159.55
   93.57        2980.75           1633          39.00       133.39
   93.60        2981.00           1637          46.00       163.91
   93.63        2981.25           1640          44.00       155.19
   93.67        2981.50           1643          35.00       115.96
   93.70        2981.75           1647          45.00       159.55
   93.73        2982.00           1650          46.00       163.91
   93.76        2982.25           1653          44.00       155.19
   93.79        2982.50           1657          42.00       146.47
   93.82        2982.75           1660          42.00       146.47
   93.85        2983.00           1663          46.00       163.91
   93.88        2983.25           1667          39.00       133.39
   93.91        2983.50           1670          50.00       181.34
   93.94        2983.75           1673          49.00       176.98
   93.97        2984.00           1677          46.00       163.91
HS scan finished at 01:34:11
end
************************************************************
  HS Scan of (1) Internal mercury lamp
************************************************************
Integration time is 0.2294 seconds per sample
dh010717Manchester 53.47 2.23 2.804185pr1000
************************************************************
Dead Time -------------------------  3E-08 
Number of Cycles Used -------------  4 
Starting Wavelength (Angstroms) ---  2950 
Final Wavelength (Angstoms) -------  2984 
Wavelength Increment (Angstroms) --  .25 
Filter Wheel #1 Position ---------- (1) Ground quartz diffuser (ND=2.32)
Filter Wheel #2 Position ---------- (1) Neutral Density 0.494



************************************************************
HS scan start time = 21:42:03
Dark Count =  8.3 


Time (GMT)  Wavelength (Ang)  Step Number  Raw Counts  Counts/Second

 1302.42        2950.00           1222          47.00       168.70
 1302.49        2950.25           1226          45.00       159.98
 1302.52        2950.50           1229          45.00       159.98
 1302.55        2950.75           1232          43.00       151.26
 1302.58        2951.00           1236          42.00       146.91
 1302.61        2951.25           1239          44.00       155.62
 1302.64        2951.50           1242          39.00       133.83
 1302.67        2951.75           1246          46.00       164.34
 1302.70        2952.00           1249          44.00       155.62
 1302.74        2952.25           1252          41.00       142.55
 1302.77        2952.50           1256          46.00       164.34
 1302.80        2952.75           1259          51.00       186.14
 1302.83        2953.00           1262          49.00       177.42
 1302.86        2953.25           1266          43.00       151.26
 1302.89        2953.50           1269          42.00       146.91
 1302.92        2953.75           1272          37.00       125.11
 1302.95        2954.00           1276          38.00       129.47
 1302.98        2954.25           1279          42.00       146.91
 1303.01        2954.50           1282          44.00       155.62
 1303.04        2954.75           1286          45.00       159.98
 1303.08        2955.00           1289          44.00       155.62
 1303.11        2955.25           1292          45.00       159.98
 1303.14        2955.50           1296          42.00       146.91
 1303.17        2955.75           1299          42.00       146.91
 1303.20        2956.00           1302          41.00       142.55
 1303.23        2956.25           1306          40.00       138.19
 1303.26        2956.50           1309          47.00       168.70
 1303.29        2956.75           1312          39.00       133.83
 1303.32        2957.00           1316          42.00       146.91
 1303.35        2957.25           1319          36.00       120.75
 1303.38        2957.50           1322          51.00       186.14
 1303.41        2957.75           1326          43.00       151.26
 1303.44        2958.00           1329          43.00       151.26
 1303.47        2958.25           1332          48.00       173.06
 1303.50        2958.50           1336          46.00       164.34
 1303.53        2958.75           1339          47.00       168.70
 1303.57        2959.00           1342          44.00       155.62
 1303.60        2959.25           1346          51.00       186.14
 1303.63        2959.50           1349          57.00       212.29
 1303.66        2959.75           1352          72.00       277.68
 1303.69        2960.00           1356         100.00       399.74
 1303.72        2960.25           1359         135.00       552.32
 1303.75        2960.50           1362         176.00       731.05
 1303.78        2960.75           1366         226.00       949.02
 1303.81        2961.00           1369         278.00      1175.72
 1303.84        2961.25           1372         318.00      1350.10
 1303.87        2961.50           1376         387.00      1650.91
 1303.90        2961.75           1379         525.00      2252.55
 1303.94        2962.00           1382        1012.00      4375.90
 1303.97        2962.25           1386        2569.00     11166.34
 1304.00        2962.50           1389        4102.00     17854.81
 1304.03        2962.75           1392        5759.00     25087.32
 1304.06        2963.00           1396        7917.00     34511.31
 1304.09        2963.25           1399        9607.00     41895.26
 1304.12        2963.50           1402       11334.00     49444.26
 1304.15        2963.75           1406       13451.00     58702.68
 1304.18        2964.00           1409       15258.00     66609.44
 1304.22        2964.25           1412       16846.00     73561.03
 1304.25        2964.50           1416       19047.00     83200.87
 1304.28        2964.75           1419       20878.00     91224.47
 1304.31        2965.00           1422       22418.00     97975.88
 1304.34        2965.25           1426       24590.00    107502.60
 1304.37        2965.50           1429       26351.00    115230.70
 1304.40        2965.75           1432       28023.00    122571.50
 1304.43        2966.00           1436       30217.00    132209.10
 1304.46        2966.25           1439       31742.00    138911.20
 1304.49        2966.50           1442       33273.00    145642.40
 1304.53        2966.75           1446       34829.00    152486.30
 1304.56        2967.00           1449       35561.00    155706.90
 1304.59        2967.25           1452       35640.00    156054.50
 1304.62        2967.50           1456       35616.00    155948.90
 1304.65        2967.75           1459       35838.00    156925.80
 1304.68        2968.00           1462       35641.00    156058.90
 1304.71        2968.25           1466       34892.00    152763.40
 1304.74        2968.50           1469       33578.00    146983.70
 1304.77        2968.75           1472       32009.00    140084.90
 1304.80        2969.00           1476       29935.00    130970.00
 1304.84        2969.25           1479       28386.00    124165.70
 1304.87        2969.50           1482       26722.00    116859.30
 1304.90        2969.75           1486       24759.00    108244.10
 1304.93        2970.00           1489       23036.00    100686.00
 1304.96        2970.25           1492       21540.00     94126.35
 1304.99        2970.50           1496       19149.00     83647.75
 1305.02        2970.75           1499       17462.00     76258.40
 1305.05        2971.00           1502       15754.00     68780.40
 1305.08        2971.25           1506       13495.00     58895.17
 1305.11        2971.50           1509       11783.00     51407.47
 1305.14        2971.75           1513        9847.00     42944.14
 1305.17        2972.00           1516        8163.00     35585.92
 1305.21        2972.25           1519        6436.00     28043.20
 1305.24        2972.50           1523        4399.00     19150.93
 1305.27        2972.75           1526        2849.00     12387.78
 1305.30        2973.00           1529        1431.00      6202.99
 1305.33        2973.25           1533         529.00      2269.99
 1305.36        2973.50           1536         368.00      1568.08
 1305.39        2973.75           1539         303.00      1284.71
 1305.42        2974.00           1543         252.00      1062.37
 1305.45        2974.25           1546         194.00       809.52
 1305.48        2974.50           1549         125.00       508.73
 1305.52        2974.75           1553          85.00       334.35
 1305.55        2975.00           1556          59.00       221.01
 1305.58        2975.25           1559          61.00       229.73
 1305.61        2975.50           1563          53.00       194.86
 1305.64        2975.75           1566          48.00       173.06
 1305.67        2976.00           1569          40.00       138.19
 1305.70        2976.25           1573          44.00       155.62
 1305.73        2976.50           1576          43.00       151.26
 1305.76        2976.75           1579          44.00       155.62
 1305.80        2977.00           1583          39.00       133.83
 1305.83        2977.25           1586          45.00       159.98
 1305.86        2977.50           1590          40.00       138.19
 1305.89        2977.75           1593          48.00       173.06
 1305.92        2978.00           1596          46.00       164.34
 1305.95        2978.25           1600          46.00       164.34
 1305.98        2978.50           1603          43.00       151.26
 1306.01        2978.75           1606          48.00       173.06
 1306.04        2979.00           1610          37.00       125.11
 1306.07        2979.25           1613          44.00       155.62
 1306.11        2979.50           1616          39.00       133.83
 1306.14        2979.75           1620          43.00       151.26
 1306.17        2980.00           1623          46.00       164.34
 1306.20        2980.25           1626          43.00       151.26
 1306.23        2980.50           1630          49.00       177.42
 1306.26        2980.75           1633          46.00       164.34
 1306.29        2981.00           1637          40.00       138.19
 1306.32        2981.25           1640          40.00       138.19
 1306.35        2981.50           1643          43.00       151.26
 1306.38        2981.75           1647          53.00       194.86
 1306.42        2982.00           1650          39.00       133.83
 1306.45        2982.25           1653          51.00       186.14
 1306.48        2982.50           1657          47.00       168.70
 1306.51        2982.75           1660          48.00       173.06
 1306.54        2983.00           1663          37.00       125.11
 1306.57        2983.25           1667          39.00       133.83
 1306.60        2983.50           1670          43.00       151.26
 1306.63        2983.75           1673          39.00       133.83
 1306.66        2984.00           1677          38.00       129.47
HS scan finished at 21:46:53
end
