************************************************************
  HS Scan of (1) Internal mercury lamp
************************************************************
Integration time is 0.2294 seconds per sample
dh040718Manchester 53.47 2.23 2.804185pr1000
************************************************************
Dead Time -------------------------  3E-08 
Number of Cycles Used -------------  4 
Starting Wavelength (Angstroms) ---  2950 
Final Wavelength (Angstoms) -------  2984 
Wavelength Increment (Angstroms) --  .25 
Filter Wheel #1 Position ---------- (1) Ground quartz diffuser (ND=2.32)
Filter Wheel #2 Position ---------- (1) Neutral Density 0.494



************************************************************
HS scan start time = 01:42:09
Dark Count =  8.100001 


Time (GMT)  Wavelength (Ang)  Step Number  Raw Counts  Counts/Second

  102.52        2950.00           1222          54.00       200.09
  102.59        2950.25           1226          55.00       204.45
  102.62        2950.50           1229          49.00       178.29
  102.65        2950.75           1232          57.00       213.17
  102.68        2951.00           1236          55.00       204.45
  102.71        2951.25           1239          52.00       191.37
  102.74        2951.50           1242          56.00       208.81
  102.77        2951.75           1246          50.00       182.65
  102.80        2952.00           1249          57.00       213.17
  102.83        2952.25           1252          57.00       213.17
  102.86        2952.50           1256          57.00       213.17
  102.89        2952.75           1259          59.00       221.88
  102.93        2953.00           1262          50.00       182.65
  102.96        2953.25           1266          55.00       204.45
  102.99        2953.50           1269          55.00       204.45
  103.02        2953.75           1272          47.00       169.57
  103.05        2954.00           1276          49.00       178.29
  103.08        2954.25           1279          59.00       221.88
  103.11        2954.50           1282          54.00       200.09
  103.14        2954.75           1286          54.00       200.09
  103.17        2955.00           1289          63.00       239.32
  103.20        2955.25           1292          49.00       178.29
  103.23        2955.50           1296          54.00       200.09
  103.26        2955.75           1299          55.00       204.45
  103.29        2956.00           1302          57.00       213.17
  103.32        2956.25           1306          46.00       165.21
  103.36        2956.50           1309          58.00       217.53
  103.39        2956.75           1312          53.00       195.73
  103.42        2957.00           1316          58.00       217.53
  103.45        2957.25           1319          57.00       213.17
  103.48        2957.50           1322          52.00       191.37
  103.51        2957.75           1326          61.00       230.60
  103.54        2958.00           1329          50.00       182.65
  103.57        2958.25           1332          59.00       221.88
  103.60        2958.50           1336          57.00       213.17
  103.64        2958.75           1339          60.00       226.24
  103.67        2959.00           1342          52.00       191.37
  103.70        2959.25           1346          55.00       204.45
  103.73        2959.50           1349          69.00       265.48
  103.76        2959.75           1352          77.00       300.35
  103.79        2960.00           1356         119.00       483.44
  103.82        2960.25           1359         162.00       670.89
  103.85        2960.50           1362         175.00       727.57
  103.88        2960.75           1366         239.00      1006.57
  103.91        2961.00           1369         284.00      1202.75
  103.95        2961.25           1372         291.00      1233.26
  103.98        2961.50           1376         359.00      1529.71
  104.01        2961.75           1379         476.00      2039.79
  104.04        2962.00           1382         936.00      4045.39
  104.07        2962.25           1386        2490.00     10822.61
  104.10        2962.50           1389        3926.00     17087.66
  104.13        2962.75           1392        5277.00     22984.02
  104.16        2963.00           1396        7108.00     30978.65
  104.19        2963.25           1399        8517.00     37133.33
  104.23        2963.50           1402       10040.00     43788.53
  104.26        2963.75           1406       11922.00     52016.16
  104.29        2964.00           1409       13197.00     57592.45
  104.32        2964.25           1412       14555.00     63533.80
  104.35        2964.50           1416       16533.00     72191.50
  104.38        2964.75           1419       17896.00     78159.96
  104.41        2965.00           1422       19330.00     84441.62
  104.44        2965.25           1426       21341.00     93254.86
  104.47        2965.50           1429       22632.00     98915.16
  104.51        2965.75           1432       24366.00    106520.80
  104.54        2966.00           1436       26190.00    114524.90
  104.57        2966.25           1439       27432.00    119977.30
  104.60        2966.50           1442       28722.00    125642.30
  104.63        2966.75           1446       30029.00    131383.90
  104.66        2967.00           1449       30453.00    133246.90
  104.69        2967.25           1452       30242.00    132319.80
  104.72        2967.50           1456       30438.00    133181.00
  104.75        2967.75           1459       30358.00    132829.50
  104.79        2968.00           1462       30291.00    132535.10
  104.82        2968.25           1466       29147.00    127509.10
  104.85        2968.50           1469       27783.00    121518.50
  104.88        2968.75           1472       26665.00    116609.90
  104.91        2969.00           1476       24752.00    108214.30
  104.94        2969.25           1479       23431.00    102419.30
  104.97        2969.50           1482       22074.00     96468.41
  105.00        2969.75           1486       20257.00     88503.64
  105.03        2970.00           1489       18763.00     81957.60
  105.07        2970.25           1492       17257.00     75361.56
  105.10        2970.50           1496       15573.00     67989.02
  105.13        2970.75           1499       14057.00     61354.77
  105.16        2971.00           1502       12771.00     55729.10
  105.19        2971.25           1506       10740.00     46848.28
  105.22        2971.50           1509        9166.00     39969.00
  105.25        2971.75           1513        7449.00     32467.97
  105.28        2972.00           1516        5950.00     25922.07
  105.31        2972.25           1519        4749.00     20679.35
  105.35        2972.50           1523        2995.00     13025.58
  105.38        2972.75           1526        1696.00      7359.52
  105.41        2973.00           1529         788.00      3400.09
  105.44        2973.25           1533         359.00      1529.71
  105.47        2973.50           1536         274.00      1159.15
  105.50        2973.75           1539         246.00      1037.09
  105.53        2974.00           1543         178.00       740.64
  105.56        2974.25           1546         125.00       509.60
  105.59        2974.50           1549         108.00       435.49
  105.62        2974.75           1553          74.00       287.27
  105.66        2975.00           1556          67.00       256.76
  105.69        2975.25           1559          57.00       213.17
  105.72        2975.50           1563          60.00       226.24
  105.75        2975.75           1566          53.00       195.73
  105.78        2976.00           1569          48.00       173.93
  105.81        2976.25           1573          53.00       195.73
  105.84        2976.50           1576          55.00       204.45
  105.87        2976.75           1579          54.00       200.09
  105.90        2977.00           1583          50.00       182.65
  105.93        2977.25           1586          51.00       187.01
  105.96        2977.50           1590          56.00       208.81
  106.00        2977.75           1593          48.00       173.93
  106.03        2978.00           1596          53.00       195.73
  106.06        2978.25           1600          54.00       200.09
  106.09        2978.50           1603          55.00       204.45
  106.12        2978.75           1606          51.00       187.01
  106.15        2979.00           1610          56.00       208.81
  106.18        2979.25           1613          51.00       187.01
  106.21        2979.50           1616          52.00       191.37
  106.24        2979.75           1620          46.00       165.21
  106.27        2980.00           1623          43.00       152.14
  106.31        2980.25           1626          49.00       178.29
  106.34        2980.50           1630          51.00       187.01
  106.37        2980.75           1633          55.00       204.45
  106.40        2981.00           1637          59.00       221.88
  106.43        2981.25           1640          49.00       178.29
  106.46        2981.50           1643          51.00       187.01
  106.49        2981.75           1647          47.00       169.57
  106.52        2982.00           1650          47.00       169.57
  106.55        2982.25           1653          48.00       173.93
  106.58        2982.50           1657          47.00       169.57
  106.62        2982.75           1660          48.00       173.93
  106.65        2983.00           1663          51.00       187.01
  106.68        2983.25           1667          50.00       182.65
  106.71        2983.50           1670          50.00       182.65
  106.74        2983.75           1673          52.00       191.37
  106.77        2984.00           1677          49.00       178.29
HS scan finished at 01:46:59
end
************************************************************
  HS Scan of (1) Internal mercury lamp
************************************************************
Integration time is 0.2294 seconds per sample
dh040718Manchester 53.47 2.23 3.233369pr1000
************************************************************
Dead Time -------------------------  3E-08 
Number of Cycles Used -------------  4 
Starting Wavelength (Angstroms) ---  2950 
Final Wavelength (Angstoms) -------  2984 
Wavelength Increment (Angstroms) --  .25 
Filter Wheel #1 Position ---------- (1) Ground quartz diffuser (ND=2.32)
Filter Wheel #2 Position ---------- (1) Neutral Density 0.494



************************************************************
HS scan start time = 21:42:06
Dark Count =  4.9 


Time (GMT)  Wavelength (Ang)  Step Number  Raw Counts  Counts/Second

 1302.46        2950.00           1222          64.00       257.63
 1302.53        2950.25           1226          53.00       209.68
 1302.56        2950.50           1229          64.00       257.63
 1302.59        2950.75           1232          52.00       205.32
 1302.62        2951.00           1236          52.00       205.32
 1302.66        2951.25           1239          55.00       218.40
 1302.69        2951.50           1242          51.00       200.96
 1302.72        2951.75           1246          48.00       187.88
 1302.75        2952.00           1249          48.00       187.88
 1302.78        2952.25           1252          56.00       222.76
 1302.81        2952.50           1256          54.00       214.04
 1302.84        2952.75           1259          49.00       192.24
 1302.87        2953.00           1262          51.00       200.96
 1302.90        2953.25           1266          59.00       235.83
 1302.93        2953.50           1269          51.00       200.96
 1302.97        2953.75           1272          47.00       183.52
 1303.00        2954.00           1276          46.00       179.16
 1303.03        2954.25           1279          52.00       205.32
 1303.06        2954.50           1282          59.00       235.83
 1303.09        2954.75           1286          49.00       192.24
 1303.12        2955.00           1289          50.00       196.60
 1303.15        2955.25           1292          55.00       218.40
 1303.18        2955.50           1296          49.00       192.24
 1303.21        2955.75           1299          52.00       205.32
 1303.25        2956.00           1302          50.00       196.60
 1303.28        2956.25           1306          58.00       231.48
 1303.31        2956.50           1309          68.00       275.07
 1303.34        2956.75           1312          56.00       222.76
 1303.37        2957.00           1316          51.00       200.96
 1303.40        2957.25           1319          56.00       222.76
 1303.43        2957.50           1322          54.00       214.04
 1303.46        2957.75           1326          54.00       214.04
 1303.49        2958.00           1329          58.00       231.48
 1303.52        2958.25           1332          54.00       214.04
 1303.56        2958.50           1336          53.00       209.68
 1303.59        2958.75           1339          59.00       235.83
 1303.62        2959.00           1342          51.00       200.96
 1303.65        2959.25           1346          52.00       205.32
 1303.68        2959.50           1349          63.00       253.27
 1303.71        2959.75           1352          74.00       301.22
 1303.74        2960.00           1356         108.00       449.44
 1303.77        2960.25           1359         137.00       575.86
 1303.80        2960.50           1362         178.00       754.59
 1303.83        2960.75           1366         239.00      1020.52
 1303.87        2961.00           1369         267.00      1142.59
 1303.90        2961.25           1372         330.00      1417.24
 1303.93        2961.50           1376         399.00      1718.05
 1303.96        2961.75           1379         687.00      2973.67
 1303.99        2962.00           1382        1530.00      6649.54
 1304.02        2962.25           1386        3468.00     15103.18
 1304.05        2962.50           1389        5144.00     22417.43
 1304.08        2962.75           1392        6614.00     28835.31
 1304.11        2963.00           1396        8704.00     37964.31
 1304.15        2963.25           1399       10323.00     45039.46
 1304.18        2963.50           1402       11854.00     51732.80
 1304.21        2963.75           1406       13952.00     60909.37
 1304.24        2964.00           1409       15770.00     68865.31
 1304.27        2964.25           1412       17290.00     75520.08
 1304.30        2964.50           1416       19453.00     84994.56
 1304.33        2964.75           1419       21006.00     91800.42
 1304.36        2965.00           1422       22360.00     97736.46
 1304.39        2965.25           1426       24700.00    108000.20
 1304.43        2965.50           1429       26132.00    114284.40
 1304.46        2965.75           1432       27815.00    121673.10
 1304.49        2966.00           1436       30232.00    132289.90
 1304.52        2966.25           1439       31642.00    138486.50
 1304.55        2966.50           1442       33117.00    144971.40
 1304.58        2966.75           1446       34588.00    151441.10
 1304.61        2967.00           1449       34848.00    152584.90
 1304.64        2967.25           1452       34710.00    151977.80
 1304.67        2967.50           1456       34777.00    152272.50
 1304.71        2967.75           1459       34782.00    152294.50
 1304.74        2968.00           1462       34612.00    151546.60
 1304.77        2968.25           1466       33337.00    145938.80
 1304.80        2968.50           1469       31750.00    138961.30
 1304.83        2968.75           1472       30393.00    132997.40
 1304.86        2969.00           1476       28248.00    123574.50
 1304.89        2969.25           1479       26604.00    116356.20
 1304.92        2969.50           1482       24840.00    108614.50
 1304.95        2969.75           1486       22976.00    100437.70
 1304.98        2970.00           1489       21422.00     93623.97
 1305.01        2970.25           1492       19867.00     86808.61
 1305.05        2970.50           1496       17636.00     77035.28
 1305.08        2970.75           1499       16078.00     70213.56
 1305.11        2971.00           1502       14619.00     63827.86
 1305.14        2971.25           1506       12302.00     53691.91
 1305.17        2971.50           1509       10685.00     46621.83
 1305.20        2971.75           1513        8578.00     37413.81
 1305.23        2972.00           1516        7103.00     30970.79
 1305.26        2972.25           1519        5304.00     23115.85
 1305.29        2972.50           1523        3179.00     13842.28
 1305.33        2972.75           1526        1680.00      7303.69
 1305.36        2973.00           1529         707.00      3060.87
 1305.39        2973.25           1533         401.00      1726.77
 1305.42        2973.50           1536         336.00      1443.39
 1305.45        2973.75           1539         261.00      1116.43
 1305.48        2974.00           1543         221.00       942.05
 1305.51        2974.25           1546         161.00       680.48
 1305.54        2974.50           1549         125.00       523.55
 1305.57        2974.75           1553          85.00       349.18
 1305.60        2975.00           1556          67.00       270.71
 1305.63        2975.25           1559          60.00       240.19
 1305.66        2975.50           1563          57.00       227.12
 1305.70        2975.75           1566          54.00       214.04
 1305.73        2976.00           1569          52.00       205.32
 1305.76        2976.25           1573          58.00       231.48
 1305.79        2976.50           1576          61.00       244.55
 1305.82        2976.75           1579          67.00       270.71
 1305.85        2977.00           1583          54.00       214.04
 1305.88        2977.25           1586          50.00       196.60
 1305.91        2977.50           1590          54.00       214.04
 1305.94        2977.75           1593          52.00       205.32
 1305.97        2978.00           1596          50.00       196.60
 1306.00        2978.25           1600          47.00       183.52
 1306.04        2978.50           1603          50.00       196.60
 1306.07        2978.75           1606          46.00       179.16
 1306.10        2979.00           1610          49.00       192.24
 1306.13        2979.25           1613          52.00       205.32
 1306.16        2979.50           1616          52.00       205.32
 1306.19        2979.75           1620          46.00       179.16
 1306.22        2980.00           1623          50.00       196.60
 1306.25        2980.25           1626          51.00       200.96
 1306.28        2980.50           1630          58.00       231.48
 1306.31        2980.75           1633          51.00       200.96
 1306.35        2981.00           1637          48.00       187.88
 1306.38        2981.25           1640          44.00       170.45
 1306.41        2981.50           1643          54.00       214.04
 1306.44        2981.75           1647          48.00       187.88
 1306.47        2982.00           1650          53.00       209.68
 1306.50        2982.25           1653          52.00       205.32
 1306.53        2982.50           1657          55.00       218.40
 1306.56        2982.75           1660          49.00       192.24
 1306.59        2983.00           1663          49.00       192.24
 1306.63        2983.25           1667          55.00       218.40
 1306.66        2983.50           1670          48.00       187.88
 1306.69        2983.75           1673          52.00       205.32
 1306.72        2984.00           1677          46.00       179.16
HS scan finished at 21:46:56
end
