************************************************************
  HS Scan of (1) Internal mercury lamp
************************************************************
Integration time is 0.2294 seconds per sample
dh060717Manchester 53.47 2.23 2.965129pr1000
************************************************************
Dead Time -------------------------  3E-08 
Number of Cycles Used -------------  4 
Starting Wavelength (Angstroms) ---  2950 
Final Wavelength (Angstoms) -------  2984 
Wavelength Increment (Angstroms) --  .25 
Filter Wheel #1 Position ---------- (1) Ground quartz diffuser (ND=2.32)
Filter Wheel #2 Position ---------- (1) Neutral Density 0.494



************************************************************
HS scan start time = 01:37:20
Dark Count =  6.9 


Time (GMT)  Wavelength (Ang)  Step Number  Raw Counts  Counts/Second

   97.70        2950.00           1222          40.00       144.29
   97.77        2950.25           1226          44.00       161.73
   97.80        2950.50           1229          51.00       192.24
   97.83        2950.75           1232          44.00       161.73
   97.86        2951.00           1236          42.00       153.01
   97.89        2951.25           1239          43.00       157.37
   97.92        2951.50           1242          37.00       131.21
   97.95        2951.75           1246          46.00       170.45
   97.99        2952.00           1249          43.00       157.37
   98.02        2952.25           1252          38.00       135.57
   98.05        2952.50           1256          51.00       192.24
   98.08        2952.75           1259          37.00       131.21
   98.11        2953.00           1262          40.00       144.29
   98.14        2953.25           1266          43.00       157.37
   98.17        2953.50           1269          48.00       179.16
   98.20        2953.75           1272          40.00       144.29
   98.23        2954.00           1276          39.00       139.93
   98.26        2954.25           1279          48.00       179.16
   98.29        2954.50           1282          44.00       161.73
   98.32        2954.75           1286          46.00       170.45
   98.35        2955.00           1289          44.00       161.73
   98.38        2955.25           1292          43.00       157.37
   98.42        2955.50           1296          44.00       161.73
   98.45        2955.75           1299          44.00       161.73
   98.48        2956.00           1302          39.00       139.93
   98.51        2956.25           1306          43.00       157.37
   98.54        2956.50           1309          44.00       161.73
   98.57        2956.75           1312          45.00       166.09
   98.60        2957.00           1316          39.00       139.93
   98.63        2957.25           1319          39.00       139.93
   98.66        2957.50           1322          43.00       157.37
   98.69        2957.75           1326          40.00       144.29
   98.72        2958.00           1329          42.00       153.01
   98.75        2958.25           1332          49.00       183.52
   98.79        2958.50           1336          48.00       179.16
   98.82        2958.75           1339          47.00       174.80
   98.85        2959.00           1342          41.00       148.65
   98.88        2959.25           1346          45.00       166.09
   98.91        2959.50           1349          63.00       244.55
   98.94        2959.75           1352          92.00       370.97
   98.97        2960.00           1356         133.00       549.70
   99.00        2960.25           1359         183.00       767.67
   99.03        2960.50           1362         214.00       902.81
   99.06        2960.75           1366         276.00      1173.10
   99.09        2961.00           1369         367.00      1569.82
   99.12        2961.25           1372         389.00      1665.73
   99.16        2961.50           1376         583.00      2511.52
   99.19        2961.75           1379        1035.00      4482.29
   99.22        2962.00           1382        2098.00      9118.01
   99.25        2962.25           1386        4329.00     18851.55
   99.28        2962.50           1389        6050.00     26363.91
   99.31        2962.75           1392        7889.00     34395.11
   99.34        2963.00           1396       10163.00     44331.37
   99.37        2963.25           1399       11805.00     51509.79
   99.40        2963.50           1402       13614.00     59421.88
   99.43        2963.75           1406       16078.00     70204.81
   99.47        2964.00           1409       17882.00     78103.90
   99.50        2964.25           1412       19776.00     86401.09
   99.53        2964.50           1416       21994.00     96122.91
   99.56        2964.75           1419       24149.00    105574.10
   99.59        2965.00           1422       26048.00    113906.90
   99.62        2965.25           1426       28485.00    124606.60
   99.65        2965.50           1429       30439.00    133190.70
   99.68        2965.75           1432       32242.00    141115.30
   99.71        2966.00           1436       34628.00    151608.20
   99.75        2966.25           1439       36255.00    158767.10
   99.78        2966.50           1442       37781.00    165484.30
   99.81        2966.75           1446       39327.00    172292.40
   99.84        2967.00           1449       39528.00    173177.70
   99.87        2967.25           1452       39439.00    172785.70
   99.90        2967.50           1456       39650.00    173715.10
   99.93        2967.75           1459       39438.00    172781.30
   99.96        2968.00           1462       38934.00    170561.40
   99.99        2968.25           1466       37779.00    165475.50
  100.02        2968.50           1469       36215.00    158591.00
  100.06        2968.75           1472       34264.00    150007.00
  100.09        2969.00           1476       32113.00    140548.20
  100.12        2969.25           1479       30321.00    132672.20
  100.15        2969.50           1482       28269.00    123658.00
  100.18        2969.75           1486       25981.00    113612.80
  100.21        2970.00           1489       24335.00    106390.00
  100.24        2970.25           1492       22437.00     98065.32
  100.27        2970.50           1496       19979.00     87290.62
  100.30        2970.75           1499       18007.00     78651.37
  100.33        2971.00           1502       16161.00     70568.16
  100.36        2971.25           1506       13774.00     60121.86
  100.40        2971.50           1509       11868.00     51785.27
  100.43        2971.75           1513        9524.00     41538.65
  100.46        2972.00           1516        7732.00     33709.32
  100.49        2972.25           1519        6067.00     26438.14
  100.52        2972.50           1523        3701.00     16111.10
  100.55        2972.75           1526        2028.00      8812.70
  100.58        2973.00           1529         934.00      4041.90
  100.61        2973.25           1533         428.00      1835.76
  100.64        2973.50           1536         306.00      1303.89
  100.68        2973.75           1539         256.00      1085.91
  100.71        2974.00           1543         219.00       924.61
  100.74        2974.25           1546         132.00       545.34
  100.77        2974.50           1549         102.00       414.56
  100.80        2974.75           1553          69.00       270.71
  100.83        2975.00           1556          52.00       196.60
  100.86        2975.25           1559          51.00       192.24
  100.89        2975.50           1563          40.00       144.29
  100.92        2975.75           1566          44.00       161.73
  100.95        2976.00           1569          45.00       166.09
  100.99        2976.25           1573          42.00       153.01
  101.02        2976.50           1576          40.00       144.29
  101.05        2976.75           1579          43.00       157.37
  101.08        2977.00           1583          47.00       174.80
  101.11        2977.25           1586          53.00       200.96
  101.14        2977.50           1590          39.00       139.93
  101.17        2977.75           1593          41.00       148.65
  101.20        2978.00           1596          53.00       200.96
  101.23        2978.25           1600          41.00       148.65
  101.26        2978.50           1603          43.00       157.37
  101.30        2978.75           1606          41.00       148.65
  101.33        2979.00           1610          53.00       200.96
  101.36        2979.25           1613          44.00       161.73
  101.39        2979.50           1616          44.00       161.73
  101.42        2979.75           1620          40.00       144.29
  101.45        2980.00           1623          39.00       139.93
  101.48        2980.25           1626          46.00       170.45
  101.51        2980.50           1630          41.00       148.65
  101.54        2980.75           1633          36.00       126.85
  101.57        2981.00           1637          40.00       144.29
  101.60        2981.25           1640          36.00       126.85
  101.63        2981.50           1643          51.00       192.24
  101.67        2981.75           1647          39.00       139.93
  101.70        2982.00           1650          43.00       157.37
  101.73        2982.25           1653          42.00       153.01
  101.76        2982.50           1657          45.00       166.09
  101.79        2982.75           1660          44.00       161.73
  101.82        2983.00           1663          39.00       139.93
  101.85        2983.25           1667          51.00       192.24
  101.88        2983.50           1670          46.00       170.45
  101.91        2983.75           1673          43.00       157.37
  101.94        2984.00           1677          38.00       135.57
HS scan finished at 01:42:10
end
************************************************************
  HS Scan of (1) Internal mercury lamp
************************************************************
Integration time is 0.2294 seconds per sample
dh060717Manchester 53.47 2.23 3.072425pr1000
************************************************************
Dead Time -------------------------  3E-08 
Number of Cycles Used -------------  4 
Starting Wavelength (Angstroms) ---  2950 
Final Wavelength (Angstoms) -------  2984 
Wavelength Increment (Angstroms) --  .25 
Filter Wheel #1 Position ---------- (1) Ground quartz diffuser (ND=2.32)
Filter Wheel #2 Position ---------- (1) Neutral Density 0.494



************************************************************
HS scan start time = 21:42:00
Dark Count =  6.2 


Time (GMT)  Wavelength (Ang)  Step Number  Raw Counts  Counts/Second

 1302.37        2950.00           1222          46.00       173.50
 1302.44        2950.25           1226          45.00       169.14
 1302.47        2950.50           1229          42.00       156.06
 1302.50        2950.75           1232          42.00       156.06
 1302.53        2951.00           1236          37.00       134.26
 1302.56        2951.25           1239          44.00       164.78
 1302.59        2951.50           1242          42.00       156.06
 1302.62        2951.75           1246          49.00       186.57
 1302.66        2952.00           1249          40.00       147.34
 1302.69        2952.25           1252          43.00       160.42
 1302.72        2952.50           1256          40.00       147.34
 1302.75        2952.75           1259          40.00       147.34
 1302.78        2953.00           1262          43.00       160.42
 1302.81        2953.25           1266          43.00       160.42
 1302.84        2953.50           1269          39.00       142.98
 1302.87        2953.75           1272          37.00       134.26
 1302.90        2954.00           1276          42.00       156.06
 1302.93        2954.25           1279          46.00       173.50
 1302.96        2954.50           1282          49.00       186.57
 1302.99        2954.75           1286          48.00       182.22
 1303.03        2955.00           1289          38.00       138.62
 1303.06        2955.25           1292          42.00       156.06
 1303.09        2955.50           1296          43.00       160.42
 1303.12        2955.75           1299          39.00       142.98
 1303.15        2956.00           1302          43.00       160.42
 1303.18        2956.25           1306          43.00       160.42
 1303.21        2956.50           1309          46.00       173.50
 1303.24        2956.75           1312          46.00       173.50
 1303.27        2957.00           1316          43.00       160.42
 1303.30        2957.25           1319          36.00       129.90
 1303.33        2957.50           1322          56.00       217.09
 1303.36        2957.75           1326          51.00       195.29
 1303.39        2958.00           1329          48.00       182.22
 1303.42        2958.25           1332          54.00       208.37
 1303.46        2958.50           1336          42.00       156.06
 1303.49        2958.75           1339          43.00       160.42
 1303.52        2959.00           1342          41.00       151.70
 1303.55        2959.25           1346          53.00       204.01
 1303.58        2959.50           1349          55.00       212.73
 1303.61        2959.75           1352          66.00       260.68
 1303.64        2960.00           1356         110.00       452.49
 1303.67        2960.25           1359         165.00       692.26
 1303.70        2960.50           1362         193.00       814.32
 1303.73        2960.75           1366         272.00      1158.72
 1303.76        2961.00           1369         318.00      1359.25
 1303.79        2961.25           1372         374.00      1603.39
 1303.82        2961.50           1376         502.00      2161.43
 1303.86        2961.75           1379         816.00      3530.45
 1303.89        2962.00           1382        1815.00      7886.78
 1303.92        2962.25           1386        3986.00     17357.77
 1303.95        2962.50           1389        5779.00     25183.80
 1303.98        2962.75           1392        7468.00     32559.25
 1304.01        2963.00           1396        9858.00     43001.39
 1304.04        2963.25           1399       11804.00     51508.48
 1304.07        2963.50           1402       13636.00     59521.18
 1304.10        2963.75           1406       16137.00     70466.16
 1304.13        2964.00           1409       18196.00     79482.25
 1304.17        2964.25           1412       20012.00     87438.31
 1304.20        2964.50           1416       22382.00     97827.22
 1304.23        2964.75           1419       24186.00    105739.40
 1304.26        2965.00           1422       25974.00    113585.20
 1304.29        2965.25           1426       28397.00    124223.20
 1304.32        2965.50           1429       30235.00    132297.40
 1304.35        2965.75           1432       32268.00    141232.70
 1304.38        2966.00           1436       34635.00    151642.10
 1304.41        2966.25           1439       36678.00    160631.90
 1304.45        2966.50           1442       38279.00    167680.10
 1304.48        2966.75           1446       40139.00    175872.30
 1304.51        2967.00           1449       40467.00    177317.40
 1304.54        2967.25           1452       40462.00    177295.40
 1304.57        2967.50           1456       40521.00    177555.30
 1304.60        2967.75           1459       40420.00    177110.30
 1304.63        2968.00           1462       40085.00    175634.40
 1304.66        2968.25           1466       39321.00    172269.00
 1304.70        2968.50           1469       37543.00    164439.60
 1304.73        2968.75           1472       35933.00    157353.10
 1304.76        2969.00           1476       33400.00    146210.10
 1304.79        2969.25           1479       31403.00    137430.30
 1304.82        2969.50           1482       29611.00    129555.80
 1304.85        2969.75           1486       27058.00    118343.60
 1304.88        2970.00           1489       25198.00    110179.60
 1304.91        2970.25           1492       23503.00    102743.40
 1304.94        2970.50           1496       20973.00     91650.08
 1304.97        2970.75           1499       19107.00     83472.95
 1305.00        2971.00           1502       17292.00     75523.15
 1305.03        2971.25           1506       14954.00     65288.17
 1305.06        2971.50           1509       12789.00     55816.14
 1305.10        2971.75           1513       10420.00     45457.77
 1305.13        2972.00           1516        8568.00     37364.44
 1305.16        2972.25           1519        6660.00     29030.50
 1305.19        2972.50           1523        4263.00     18566.57
 1305.22        2972.75           1526        2477.00     10774.19
 1305.25        2973.00           1529        1035.00      4485.35
 1305.28        2973.25           1533         465.00      2000.12
 1305.31        2973.50           1536         369.00      1581.59
 1305.34        2973.75           1539         306.00      1306.94
 1305.37        2974.00           1543         239.00      1014.85
 1305.40        2974.25           1546         155.00       648.66
 1305.43        2974.50           1549         112.00       461.21
 1305.47        2974.75           1553          82.00       330.43
 1305.50        2975.00           1556          63.00       247.60
 1305.53        2975.25           1559          46.00       173.50
 1305.56        2975.50           1563          44.00       164.78
 1305.59        2975.75           1566          42.00       156.06
 1305.62        2976.00           1569          44.00       164.78
 1305.65        2976.25           1573          41.00       151.70
 1305.68        2976.50           1576          41.00       151.70
 1305.71        2976.75           1579          44.00       164.78
 1305.74        2977.00           1583          43.00       160.42
 1305.77        2977.25           1586          41.00       151.70
 1305.80        2977.50           1590          49.00       186.57
 1305.83        2977.75           1593          41.00       151.70
 1305.87        2978.00           1596          46.00       173.50
 1305.90        2978.25           1600          49.00       186.57
 1305.93        2978.50           1603          45.00       169.14
 1305.96        2978.75           1606          38.00       138.62
 1305.99        2979.00           1610          50.00       190.93
 1306.02        2979.25           1613          40.00       147.34
 1306.05        2979.50           1616          42.00       156.06
 1306.08        2979.75           1620          46.00       173.50
 1306.11        2980.00           1623          44.00       164.78
 1306.14        2980.25           1626          40.00       147.34
 1306.18        2980.50           1630          48.00       182.22
 1306.21        2980.75           1633          43.00       160.42
 1306.24        2981.00           1637          38.00       138.62
 1306.27        2981.25           1640          42.00       156.06
 1306.30        2981.50           1643          41.00       151.70
 1306.33        2981.75           1647          41.00       151.70
 1306.36        2982.00           1650          50.00       190.93
 1306.39        2982.25           1653          44.00       164.78
 1306.42        2982.50           1657          43.00       160.42
 1306.45        2982.75           1660          48.00       182.22
 1306.48        2983.00           1663          36.00       129.90
 1306.51        2983.25           1667          39.00       142.98
 1306.54        2983.50           1670          38.00       138.62
 1306.58        2983.75           1673          41.00       151.70
 1306.61        2984.00           1677          45.00       169.14
HS scan finished at 21:46:49
end
