************************************************************
  HS Scan of (1) Internal mercury lamp
************************************************************
Integration time is 0.2294 seconds per sample
dh050717Manchester 53.47 2.23 3.018777pr1000
************************************************************
Dead Time -------------------------  3E-08 
Number of Cycles Used -------------  4 
Starting Wavelength (Angstroms) ---  2950 
Final Wavelength (Angstoms) -------  2984 
Wavelength Increment (Angstroms) --  .25 
Filter Wheel #1 Position ---------- (1) Ground quartz diffuser (ND=2.32)
Filter Wheel #2 Position ---------- (1) Neutral Density 0.494



************************************************************
HS scan start time = 02:18:49
Dark Count =  5.1 


Time (GMT)  Wavelength (Ang)  Step Number  Raw Counts  Counts/Second

  139.18        2950.00           1222          39.00       147.78
  139.25        2950.25           1226          43.00       165.21
  139.28        2950.50           1229          41.00       156.50
  139.31        2950.75           1232          39.00       147.78
  139.34        2951.00           1236          40.00       152.14
  139.37        2951.25           1239          33.00       121.62
  139.40        2951.50           1242          38.00       143.42
  139.44        2951.75           1246          45.00       173.93
  139.47        2952.00           1249          45.00       173.93
  139.50        2952.25           1252          47.00       182.65
  139.53        2952.50           1256          46.00       178.29
  139.56        2952.75           1259          45.00       173.93
  139.59        2953.00           1262          36.00       134.70
  139.62        2953.25           1266          45.00       173.93
  139.65        2953.50           1269          45.00       173.93
  139.68        2953.75           1272          39.00       147.78
  139.71        2954.00           1276          41.00       156.50
  139.74        2954.25           1279          41.00       156.50
  139.77        2954.50           1282          45.00       173.93
  139.80        2954.75           1286          40.00       152.14
  139.84        2955.00           1289          43.00       165.21
  139.87        2955.25           1292          50.00       195.73
  139.90        2955.50           1296          44.00       169.57
  139.93        2955.75           1299          49.00       191.37
  139.96        2956.00           1302          36.00       134.70
  139.99        2956.25           1306          37.00       139.06
  140.02        2956.50           1309          47.00       182.65
  140.05        2956.75           1312          34.00       125.98
  140.08        2957.00           1316          42.00       160.86
  140.11        2957.25           1319          40.00       152.14
  140.14        2957.50           1322          42.00       160.86
  140.18        2957.75           1326          45.00       173.93
  140.21        2958.00           1329          46.00       178.29
  140.24        2958.25           1332          54.00       213.17
  140.27        2958.50           1336          42.00       160.86
  140.30        2958.75           1339          44.00       169.57
  140.33        2959.00           1342          50.00       195.73
  140.36        2959.25           1346          46.00       178.29
  140.39        2959.50           1349          55.00       217.53
  140.42        2959.75           1352          78.00       317.79
  140.45        2960.00           1356         120.00       500.88
  140.48        2960.25           1359         161.00       679.61
  140.51        2960.50           1362         224.00       954.26
  140.54        2960.75           1366         277.00      1185.31
  140.58        2961.00           1369         316.00      1355.33
  140.61        2961.25           1372         359.00      1542.79
  140.64        2961.50           1376         570.00      2462.69
  140.67        2961.75           1379        1088.00      4721.24
  140.70        2962.00           1382        2284.00      9937.14
  140.73        2962.25           1386        4470.00     19474.76
  140.76        2962.50           1389        6252.00     27253.75
  140.79        2962.75           1392        8062.00     35158.69
  140.82        2963.00           1396       10481.00     45729.22
  140.85        2963.25           1399       12195.00     53223.11
  140.89        2963.50           1402       14155.00     61796.68
  140.92        2963.75           1406       16733.00     73080.27
  140.95        2964.00           1409       18548.00     81028.90
  140.98        2964.25           1412       20429.00     89270.59
  141.01        2964.50           1416       22721.00     99318.60
  141.04        2964.75           1419       24470.00    106990.20
  141.07        2965.00           1422       26565.00    116184.10
  141.10        2965.25           1426       28757.00    125809.20
  141.13        2965.50           1429       30544.00    133660.00
  141.16        2965.75           1432       32691.00    143097.30
  141.19        2966.00           1436       34874.00    152698.40
  141.22        2966.25           1439       36647.00    160500.30
  141.26        2966.50           1442       38241.00    167517.60
  141.29        2966.75           1446       39297.00    172168.10
  141.32        2967.00           1449       39619.00    173586.40
  141.35        2967.25           1452       39508.00    173097.50
  141.38        2967.50           1456       39509.00    173101.90
  141.41        2967.75           1459       39429.00    172749.50
  141.44        2968.00           1462       38987.00    170802.80
  141.47        2968.25           1466       37030.00    162186.10
  141.50        2968.50           1469       35394.00    154986.20
  141.54        2968.75           1472       33740.00    147710.20
  141.57        2969.00           1476       31554.00    138098.90
  141.60        2969.25           1479       29489.00    129024.60
  141.63        2969.50           1482       27675.00    121057.40
  141.66        2969.75           1486       25396.00    111053.30
  141.69        2970.00           1489       23723.00    103713.20
  141.72        2970.25           1492       21849.00     95495.09
  141.75        2970.50           1496       19735.00     86229.31
  141.78        2970.75           1499       17585.00     76811.06
  141.81        2971.00           1502       15865.00     69280.29
  141.85        2971.25           1506       13209.00     57658.07
  141.88        2971.50           1509       11494.00     50157.81
  141.91        2971.75           1513        9161.00     39960.26
  141.94        2972.00           1516        7264.00     31673.07
  141.97        2972.25           1519        5615.00     24472.63
  142.00        2972.50           1523        3310.00     14412.94
  142.03        2972.75           1526        1658.00      7206.88
  142.06        2973.00           1529         676.00      2924.84
  142.09        2973.25           1533         373.00      1603.83
  142.13        2973.50           1536         316.00      1355.33
  142.16        2973.75           1539         264.00      1128.63
  142.19        2974.00           1543         198.00       840.91
  142.22        2974.25           1546         138.00       579.35
  142.25        2974.50           1549         108.00       448.57
  142.28        2974.75           1553          61.00       243.68
  142.31        2975.00           1556          57.00       226.24
  142.34        2975.25           1559          46.00       178.29
  142.37        2975.50           1563          46.00       178.29
  142.41        2975.75           1566          48.00       187.01
  142.44        2976.00           1569          49.00       191.37
  142.47        2976.25           1573          41.00       156.50
  142.50        2976.50           1576          42.00       160.86
  142.53        2976.75           1579          45.00       173.93
  142.56        2977.00           1583          38.00       143.42
  142.59        2977.25           1586          46.00       178.29
  142.62        2977.50           1590          43.00       165.21
  142.65        2977.75           1593          39.00       147.78
  142.68        2978.00           1596          40.00       152.14
  142.71        2978.25           1600          42.00       160.86
  142.74        2978.50           1603          42.00       160.86
  142.77        2978.75           1606          48.00       187.01
  142.81        2979.00           1610          38.00       143.42
  142.84        2979.25           1613          47.00       182.65
  142.87        2979.50           1616          42.00       160.86
  142.90        2979.75           1620          41.00       156.50
  142.93        2980.00           1623          46.00       178.29
  142.96        2980.25           1626          47.00       182.65
  142.99        2980.50           1630          39.00       147.78
  143.02        2980.75           1633          55.00       217.53
  143.05        2981.00           1637          41.00       156.50
  143.08        2981.25           1640          38.00       143.42
  143.11        2981.50           1643          45.00       173.93
  143.14        2981.75           1647          34.00       125.98
  143.18        2982.00           1650          38.00       143.42
  143.21        2982.25           1653          46.00       178.29
  143.24        2982.50           1657          40.00       152.14
  143.27        2982.75           1660          41.00       156.50
  143.30        2983.00           1663          42.00       160.86
  143.33        2983.25           1667          39.00       147.78
  143.36        2983.50           1670          47.00       182.65
  143.39        2983.75           1673          36.00       134.70
  143.42        2984.00           1677          39.00       147.78
HS scan finished at 02:23:38
end
************************************************************
  HS Scan of (1) Internal mercury lamp
************************************************************
Integration time is 0.2294 seconds per sample
dh050717Manchester 53.47 2.23 3.018777pr1000
************************************************************
Dead Time -------------------------  3E-08 
Number of Cycles Used -------------  4 
Starting Wavelength (Angstroms) ---  2950 
Final Wavelength (Angstoms) -------  2984 
Wavelength Increment (Angstroms) --  .25 
Filter Wheel #1 Position ---------- (1) Ground quartz diffuser (ND=2.32)
Filter Wheel #2 Position ---------- (1) Neutral Density 0.494



************************************************************
HS scan start time = 21:42:01
Dark Count =  4.8 


Time (GMT)  Wavelength (Ang)  Step Number  Raw Counts  Counts/Second

 1302.39        2950.00           1222          39.00       149.09
 1302.46        2950.25           1226          49.00       192.68
 1302.49        2950.50           1229          42.00       162.16
 1302.52        2950.75           1232          37.00       140.37
 1302.55        2951.00           1236          37.00       140.37
 1302.58        2951.25           1239          35.00       131.65
 1302.61        2951.50           1242          42.00       162.16
 1302.64        2951.75           1246          41.00       157.80
 1302.67        2952.00           1249          44.00       170.88
 1302.71        2952.25           1252          38.00       144.73
 1302.74        2952.50           1256          70.00       284.22
 1302.77        2952.75           1259          48.00       188.32
 1302.80        2953.00           1262          47.00       183.96
 1302.83        2953.25           1266          44.00       170.88
 1302.86        2953.50           1269          49.00       192.68
 1302.89        2953.75           1272          42.00       162.16
 1302.92        2954.00           1276          40.00       153.44
 1302.95        2954.25           1279          44.00       170.88
 1302.98        2954.50           1282          42.00       162.16
 1303.01        2954.75           1286          42.00       162.16
 1303.05        2955.00           1289          45.00       175.24
 1303.08        2955.25           1292          38.00       144.73
 1303.11        2955.50           1296          41.00       157.80
 1303.14        2955.75           1299          39.00       149.09
 1303.17        2956.00           1302          37.00       140.37
 1303.20        2956.25           1306          45.00       175.24
 1303.23        2956.50           1309          39.00       149.09
 1303.26        2956.75           1312          44.00       170.88
 1303.29        2957.00           1316          46.00       179.60
 1303.32        2957.25           1319          43.00       166.52
 1303.35        2957.50           1322          36.00       136.01
 1303.38        2957.75           1326          36.00       136.01
 1303.41        2958.00           1329          42.00       162.16
 1303.45        2958.25           1332          42.00       162.16
 1303.48        2958.50           1336          46.00       179.60
 1303.51        2958.75           1339          41.00       157.80
 1303.54        2959.00           1342          42.00       162.16
 1303.57        2959.25           1346          51.00       201.40
 1303.60        2959.50           1349          75.00       306.02
 1303.63        2959.75           1352          88.00       362.69
 1303.66        2960.00           1356         126.00       528.34
 1303.69        2960.25           1359         161.00       680.92
 1303.72        2960.50           1362         202.00       859.66
 1303.75        2960.75           1366         283.00      1212.77
 1303.78        2961.00           1369         344.00      1478.71
 1303.81        2961.25           1372         381.00      1640.01
 1303.84        2961.50           1376         466.00      2010.58
 1303.87        2961.75           1379         667.00      2886.91
 1303.91        2962.00           1382        1288.00      5594.66
 1303.94        2962.25           1386        3142.00     13681.29
 1303.97        2962.50           1389        4988.00     21736.93
 1304.00        2962.75           1392        6707.00     29241.86
 1304.03        2963.00           1396        9346.00     40769.97
 1304.06        2963.25           1399       11107.00     48467.11
 1304.09        2963.50           1402       12920.00     56395.24
 1304.12        2963.75           1406       15411.00     67294.40
 1304.15        2964.00           1409       17245.00     75323.46
 1304.19        2964.25           1412       19151.00     83671.84
 1304.22        2964.50           1416       21742.00     95027.28
 1304.25        2964.75           1419       23378.00    102201.30
 1304.28        2965.00           1422       25152.00    109983.90
 1304.31        2965.25           1426       27721.00    121260.70
 1304.34        2965.50           1429       29878.00    130734.90
 1304.37        2965.75           1432       31798.00    139172.70
 1304.40        2966.00           1436       33912.00    148468.00
 1304.43        2966.25           1439       35974.00    157539.70
 1304.47        2966.50           1442       37589.00    164648.30
 1304.50        2966.75           1446       39303.00    172195.90
 1304.53        2967.00           1449       39762.00    174217.70
 1304.56        2967.25           1452       39795.00    174363.10
 1304.59        2967.50           1456       39857.00    174636.20
 1304.62        2967.75           1459       39890.00    174781.60
 1304.65        2968.00           1462       39600.00    173504.10
 1304.68        2968.25           1466       38779.00    169888.10
 1304.71        2968.50           1469       37255.00    163177.90
 1304.75        2968.75           1472       35434.00    155163.50
 1304.78        2969.00           1476       32898.00    144008.80
 1304.81        2969.25           1479       31077.00    136003.70
 1304.84        2969.50           1482       29159.00    127576.30
 1304.87        2969.75           1486       26431.00    115597.20
 1304.90        2970.00           1489       24896.00    108860.60
 1304.93        2970.25           1492       23069.00    100846.10
 1304.96        2970.50           1496       20765.00     90744.52
 1304.99        2970.75           1499       18991.00     82970.87
 1305.02        2971.00           1502       17372.00     75879.60
 1305.06        2971.25           1506       14961.00     65324.94
 1305.09        2971.50           1509       12913.00     56364.64
 1305.12        2971.75           1513       10377.00     45275.93
 1305.15        2972.00           1516        8470.00     36942.40
 1305.18        2972.25           1519        6459.00     28158.91
 1305.21        2972.50           1523        4116.00     17931.18
 1305.24        2972.75           1526        2464.00     10723.59
 1305.27        2973.00           1529        1112.00      4827.20
 1305.30        2973.25           1533         466.00      2010.58
 1305.34        2973.50           1536         335.00      1439.47
 1305.37        2973.75           1539         284.00      1217.13
 1305.40        2974.00           1543         223.00       951.20
 1305.43        2974.25           1546         163.00       689.64
 1305.46        2974.50           1549         121.00       506.55
 1305.49        2974.75           1553          79.00       323.46
 1305.52        2975.00           1556          63.00       253.71
 1305.55        2975.25           1559          49.00       192.68
 1305.58        2975.50           1563          49.00       192.68
 1305.61        2975.75           1566          41.00       157.80
 1305.65        2976.00           1569          44.00       170.88
 1305.68        2976.25           1573          49.00       192.68
 1305.71        2976.50           1576          51.00       201.40
 1305.74        2976.75           1579          46.00       179.60
 1305.77        2977.00           1583          43.00       166.52
 1305.80        2977.25           1586          38.00       144.73
 1305.83        2977.50           1590          39.00       149.09
 1305.86        2977.75           1593          39.00       149.09
 1305.89        2978.00           1596          45.00       175.24
 1305.92        2978.25           1600          46.00       179.60
 1305.95        2978.50           1603          45.00       175.24
 1305.98        2978.75           1606          41.00       157.80
 1306.01        2979.00           1610          43.00       166.52
 1306.05        2979.25           1613          38.00       144.73
 1306.08        2979.50           1616          44.00       170.88
 1306.11        2979.75           1620          42.00       162.16
 1306.14        2980.00           1623          42.00       162.16
 1306.17        2980.25           1626          47.00       183.96
 1306.20        2980.50           1630          44.00       170.88
 1306.23        2980.75           1633          41.00       157.80
 1306.26        2981.00           1637          37.00       140.37
 1306.29        2981.25           1640          38.00       144.73
 1306.32        2981.50           1643          42.00       162.16
 1306.35        2981.75           1647          43.00       166.52
 1306.38        2982.00           1650          45.00       175.24
 1306.41        2982.25           1653          40.00       153.44
 1306.44        2982.50           1657          46.00       179.60
 1306.47        2982.75           1660          39.00       149.09
 1306.51        2983.00           1663          37.00       140.37
 1306.54        2983.25           1667          42.00       162.16
 1306.57        2983.50           1670          36.00       136.01
 1306.60        2983.75           1673          36.00       136.01
 1306.63        2984.00           1677          45.00       175.24
HS scan finished at 21:46:51
end
