************************************************************
  HS Scan of (1) Internal mercury lamp
************************************************************
Integration time is 0.2294 seconds per sample
dh070717Manchester 53.47 2.23 2.911481pr1000
************************************************************
Dead Time -------------------------  3E-08 
Number of Cycles Used -------------  4 
Starting Wavelength (Angstroms) ---  2950 
Final Wavelength (Angstoms) -------  2984 
Wavelength Increment (Angstroms) --  .25 
Filter Wheel #1 Position ---------- (1) Ground quartz diffuser (ND=2.32)
Filter Wheel #2 Position ---------- (1) Neutral Density 0.494



************************************************************
HS scan start time = 01:29:14
Dark Count =  5 


Time (GMT)  Wavelength (Ang)  Step Number  Raw Counts  Counts/Second

   89.61        2950.00           1222          39.00       148.21
   89.67        2950.25           1226          41.00       156.93
   89.70        2950.50           1229          45.00       174.37
   89.73        2950.75           1232          41.00       156.93
   89.77        2951.00           1236          45.00       174.37
   89.80        2951.25           1239          42.00       161.29
   89.83        2951.50           1242          45.00       174.37
   89.86        2951.75           1246          47.00       183.09
   89.89        2952.00           1249          42.00       161.29
   89.92        2952.25           1252          40.00       152.57
   89.95        2952.50           1256          53.00       209.24
   89.98        2952.75           1259          41.00       156.93
   90.01        2953.00           1262          43.00       165.65
   90.05        2953.25           1266          41.00       156.93
   90.08        2953.50           1269          47.00       183.09
   90.11        2953.75           1272          52.00       204.88
   90.14        2954.00           1276          46.00       178.73
   90.17        2954.25           1279          38.00       143.85
   90.20        2954.50           1282          41.00       156.93
   90.23        2954.75           1286          49.00       191.81
   90.26        2955.00           1289          36.00       135.14
   90.29        2955.25           1292          42.00       161.29
   90.32        2955.50           1296          45.00       174.37
   90.35        2955.75           1299          35.00       130.78
   90.38        2956.00           1302          40.00       152.57
   90.41        2956.25           1306          42.00       161.29
   90.45        2956.50           1309          38.00       143.85
   90.48        2956.75           1312          43.00       165.65
   90.51        2957.00           1316          49.00       191.81
   90.54        2957.25           1319          46.00       178.73
   90.57        2957.50           1322          43.00       165.65
   90.60        2957.75           1326          49.00       191.81
   90.63        2958.00           1329          42.00       161.29
   90.66        2958.25           1332          42.00       161.29
   90.69        2958.50           1336          40.00       152.57
   90.72        2958.75           1339          39.00       148.21
   90.75        2959.00           1342          45.00       174.37
   90.79        2959.25           1346          50.00       196.17
   90.82        2959.50           1349          57.00       226.68
   90.85        2959.75           1352          74.00       300.79
   90.88        2960.00           1356         115.00       479.52
   90.91        2960.25           1359         145.00       610.30
   90.94        2960.50           1362         205.00       871.86
   90.97        2960.75           1366         261.00      1115.99
   91.00        2961.00           1369         306.00      1312.17
   91.03        2961.25           1372         358.00      1538.87
   91.06        2961.50           1376         437.00      1883.28
   91.09        2961.75           1379         556.00      2402.09
   91.13        2962.00           1382         996.00      4320.53
   91.16        2962.25           1386        2584.00     11246.17
   91.19        2962.50           1389        4253.00     18528.17
   91.22        2962.75           1392        5951.00     25939.97
   91.25        2963.00           1396        8243.00     35949.83
   91.28        2963.25           1399        9863.00     43028.48
   91.31        2963.50           1402       11670.00     50927.80
   91.34        2963.75           1406       14070.00     61425.21
   91.37        2964.00           1409       15984.00     69801.65
   91.40        2964.25           1412       17741.00     77494.69
   91.43        2964.50           1416       20080.00     87741.56
   91.47        2964.75           1419       22014.00     96218.92
   91.50        2965.00           1422       23814.00    104112.80
   91.53        2965.25           1426       26200.00    114582.40
   91.56        2965.50           1429       27819.00    121690.20
   91.59        2965.75           1432       29344.00    128388.10
   91.62        2966.00           1436       31673.00    138622.40
   91.65        2966.25           1439       33559.00    146914.60
   91.68        2966.50           1442       35123.00    153794.30
   91.71        2966.75           1446       36934.00    161764.00
   91.75        2967.00           1449       37806.00    165602.70
   91.78        2967.25           1452       37931.00    166153.10
   91.81        2967.50           1456       38182.00    167258.30
   91.84        2967.75           1459       37680.00    165048.00
   91.87        2968.00           1462       37976.00    166351.20
   91.90        2968.25           1466       37074.00    162380.20
   91.93        2968.50           1469       35850.00    156993.10
   91.96        2968.75           1472       34378.00    150516.90
   92.00        2969.00           1476       31902.00    139629.00
   92.03        2969.25           1479       30136.00    131867.60
   92.06        2969.50           1482       28352.00    124030.90
   92.09        2969.75           1486       26062.00    113976.70
   92.12        2970.00           1489       24333.00    106389.60
   92.15        2970.25           1492       22569.00     98652.48
   92.18        2970.50           1496       20350.00     88924.80
   92.21        2970.75           1499       18834.00     82282.21
   92.24        2971.00           1502       17049.00     74464.34
   92.27        2971.25           1506       14730.00     64313.16
   92.31        2971.50           1509       12945.00     56503.73
   92.34        2971.75           1513       10624.00     46354.74
   92.37        2972.00           1516        8802.00     38392.06
   92.40        2972.25           1519        7072.00     30834.96
   92.43        2972.50           1523        4756.00     20723.43
   92.46        2972.75           1526        3170.00     13802.58
   92.49        2973.00           1529        1665.00      7237.84
   92.52        2973.25           1533         578.00      2498.01
   92.55        2973.50           1536         375.00      1612.98
   92.58        2973.75           1539         288.00      1233.70
   92.61        2974.00           1543         224.00       954.69
   92.64        2974.25           1546         154.00       649.53
   92.68        2974.50           1549         118.00       492.60
   92.71        2974.75           1553          76.00       309.51
   92.74        2975.00           1556          55.00       217.96
   92.77        2975.25           1559          60.00       239.76
   92.80        2975.50           1563          50.00       196.17
   92.83        2975.75           1566          51.00       200.52
   92.86        2976.00           1569          46.00       178.73
   92.89        2976.25           1573          51.00       200.52
   92.92        2976.50           1576          50.00       196.17
   92.95        2976.75           1579          52.00       204.88
   92.98        2977.00           1583          41.00       156.93
   93.01        2977.25           1586          43.00       165.65
   93.04        2977.50           1590          43.00       165.65
   93.08        2977.75           1593          48.00       187.45
   93.11        2978.00           1596          47.00       183.09
   93.14        2978.25           1600          68.00       274.63
   93.17        2978.50           1603          47.00       183.09
   93.20        2978.75           1606          42.00       161.29
   93.23        2979.00           1610          39.00       148.21
   93.26        2979.25           1613          50.00       196.17
   93.29        2979.50           1616          49.00       191.81
   93.32        2979.75           1620          44.00       170.01
   93.35        2980.00           1623          43.00       165.65
   93.38        2980.25           1626          40.00       152.57
   93.42        2980.50           1630          38.00       143.85
   93.45        2980.75           1633          37.00       139.49
   93.48        2981.00           1637          39.00       148.21
   93.51        2981.25           1640          41.00       156.93
   93.54        2981.50           1643          42.00       161.29
   93.57        2981.75           1647          36.00       135.14
   93.60        2982.00           1650          35.00       130.78
   93.63        2982.25           1653          42.00       161.29
   93.66        2982.50           1657          52.00       204.88
   93.69        2982.75           1660          35.00       130.78
   93.72        2983.00           1663          46.00       178.73
   93.75        2983.25           1667          46.00       178.73
   93.79        2983.50           1670          36.00       135.14
   93.82        2983.75           1673          42.00       161.29
   93.85        2984.00           1677          41.00       156.93
HS scan finished at 01:34:04
end
************************************************************
  HS Scan of (1) Internal mercury lamp
************************************************************
Integration time is 0.2294 seconds per sample
dh070717Manchester 53.47 2.23 2.857833pr1000
************************************************************
Dead Time -------------------------  3E-08 
Number of Cycles Used -------------  4 
Starting Wavelength (Angstroms) ---  2950 
Final Wavelength (Angstoms) -------  2984 
Wavelength Increment (Angstroms) --  .25 
Filter Wheel #1 Position ---------- (1) Ground quartz diffuser (ND=2.32)
Filter Wheel #2 Position ---------- (1) Neutral Density 0.494



************************************************************
HS scan start time = 21:42:02
Dark Count =  6.7 


Time (GMT)  Wavelength (Ang)  Step Number  Raw Counts  Counts/Second

 1302.41        2950.00           1222          47.00       175.68
 1302.48        2950.25           1226          37.00       132.08
 1302.51        2950.50           1229          45.00       166.96
 1302.54        2950.75           1232          39.00       140.80
 1302.57        2951.00           1236          40.00       145.16
 1302.60        2951.25           1239          47.00       175.68
 1302.63        2951.50           1242          51.00       193.11
 1302.66        2951.75           1246          44.00       162.60
 1302.69        2952.00           1249          38.00       136.44
 1302.72        2952.25           1252          40.00       145.16
 1302.75        2952.50           1256          44.00       162.60
 1302.79        2952.75           1259          42.00       153.88
 1302.82        2953.00           1262          40.00       145.16
 1302.85        2953.25           1266          47.00       175.68
 1302.88        2953.50           1269          40.00       145.16
 1302.91        2953.75           1272          39.00       140.80
 1302.94        2954.00           1276          43.00       158.24
 1302.97        2954.25           1279          33.00       114.65
 1303.00        2954.50           1282          39.00       140.80
 1303.03        2954.75           1286          43.00       158.24
 1303.06        2955.00           1289          40.00       145.16
 1303.09        2955.25           1292          45.00       166.96
 1303.12        2955.50           1296          45.00       166.96
 1303.15        2955.75           1299          40.00       145.16
 1303.18        2956.00           1302          50.00       188.75
 1303.22        2956.25           1306          39.00       140.80
 1303.25        2956.50           1309          43.00       158.24
 1303.28        2956.75           1312          44.00       162.60
 1303.31        2957.00           1316          45.00       166.96
 1303.34        2957.25           1319          46.00       171.32
 1303.37        2957.50           1322          41.00       149.52
 1303.40        2957.75           1326          42.00       153.88
 1303.43        2958.00           1329          44.00       162.60
 1303.46        2958.25           1332          44.00       162.60
 1303.49        2958.50           1336          41.00       149.52
 1303.53        2958.75           1339          41.00       149.52
 1303.56        2959.00           1342          40.00       145.16
 1303.59        2959.25           1346          49.00       184.40
 1303.62        2959.50           1349          53.00       201.83
 1303.65        2959.75           1352          75.00       297.74
 1303.68        2960.00           1356         119.00       489.55
 1303.71        2960.25           1359         141.00       585.45
 1303.74        2960.50           1362         206.00       868.81
 1303.77        2960.75           1366         265.00      1126.02
 1303.80        2961.00           1369         294.00      1252.44
 1303.83        2961.25           1372         347.00      1483.50
 1303.86        2961.50           1376         446.00      1915.11
 1303.89        2961.75           1379         796.00      3441.07
 1303.93        2962.00           1382        1583.00      6872.82
 1303.96        2962.25           1386        3401.00     14803.00
 1303.99        2962.50           1389        4884.00     21274.69
 1304.02        2962.75           1392        6350.00     27674.67
 1304.05        2963.00           1396        8572.00     37379.74
 1304.08        2963.25           1399       10405.00     45390.02
 1304.11        2963.50           1402       11940.00     52100.99
 1304.14        2963.75           1406       14419.00     62944.83
 1304.17        2964.00           1409       15918.00     69505.29
 1304.20        2964.25           1412       17668.00     77167.55
 1304.23        2964.50           1416       20290.00     88654.39
 1304.27        2964.75           1419       21849.00     95488.06
 1304.30        2965.00           1422       23890.00    104438.80
 1304.33        2965.25           1426       25892.00    113223.10
 1304.36        2965.50           1429       27481.00    120198.60
 1304.39        2965.75           1432       29224.00    127853.50
 1304.42        2966.00           1436       31501.00    137858.90
 1304.45        2966.25           1439       33036.00    144607.30
 1304.48        2966.50           1442       34577.00    151384.80
 1304.51        2966.75           1446       35932.00    157346.50
 1304.54        2967.00           1449       36368.00    159265.30
 1304.58        2967.25           1452       36460.00    159670.20
 1304.61        2967.50           1456       36507.00    159877.00
 1304.64        2967.75           1459       36538.00    160013.50
 1304.67        2968.00           1462       36440.00    159582.10
 1304.70        2968.25           1466       35093.00    153654.80
 1304.73        2968.50           1469       33813.00    148024.20
 1304.76        2968.75           1472       32350.00    141591.00
 1304.79        2969.00           1476       30232.00    132282.00
 1304.82        2969.25           1479       28712.00    125604.50
 1304.86        2969.50           1482       26891.00    117608.20
 1304.89        2969.75           1486       24827.00    108549.50
 1304.92        2970.00           1489       23092.00    100938.60
 1304.95        2970.25           1492       21292.00     93046.21
 1304.98        2970.50           1496       19026.00     83115.90
 1305.01        2970.75           1499       17304.00     75573.50
 1305.04        2971.00           1502       15699.00     68546.66
 1305.07        2971.25           1506       13358.00     58302.85
 1305.10        2971.50           1509       11674.00     50937.85
 1305.14        2971.75           1513        9516.00     41504.57
 1305.17        2972.00           1516        7651.00     33356.38
 1305.20        2972.25           1519        6054.00     26382.25
 1305.23        2972.50           1523        4063.00     17691.60
 1305.26        2972.75           1526        2523.00     10972.66
 1305.29        2973.00           1529        1269.00      5503.52
 1305.32        2973.25           1533         474.00      2037.18
 1305.35        2973.50           1536         346.00      1479.14
 1305.38        2973.75           1539         286.00      1217.57
 1305.41        2974.00           1543         226.00       956.00
 1305.44        2974.25           1546         168.00       703.15
 1305.47        2974.50           1549         115.00       472.11
 1305.50        2974.75           1553          81.00       323.89
 1305.54        2975.00           1556          58.00       223.63
 1305.57        2975.25           1559          46.00       171.32
 1305.60        2975.50           1563          51.00       193.11
 1305.63        2975.75           1566          52.00       197.47
 1305.66        2976.00           1569          42.00       153.88
 1305.69        2976.25           1573          38.00       136.44
 1305.72        2976.50           1576          42.00       153.88
 1305.75        2976.75           1579          38.00       136.44
 1305.78        2977.00           1583          39.00       140.80
 1305.81        2977.25           1586          47.00       175.68
 1305.84        2977.50           1590          45.00       166.96
 1305.87        2977.75           1593          41.00       149.52
 1305.91        2978.00           1596          51.00       193.11
 1305.94        2978.25           1600          42.00       153.88
 1305.97        2978.50           1603          53.00       201.83
 1306.00        2978.75           1606          36.00       127.72
 1306.03        2979.00           1610          46.00       171.32
 1306.06        2979.25           1613          45.00       166.96
 1306.09        2979.50           1616          45.00       166.96
 1306.12        2979.75           1620          50.00       188.75
 1306.15        2980.00           1623          38.00       136.44
 1306.18        2980.25           1626          53.00       201.83
 1306.21        2980.50           1630          41.00       149.52
 1306.24        2980.75           1633          41.00       149.52
 1306.27        2981.00           1637          43.00       158.24
 1306.31        2981.25           1640          45.00       166.96
 1306.34        2981.50           1643          46.00       171.32
 1306.37        2981.75           1647          46.00       171.32
 1306.40        2982.00           1650          39.00       140.80
 1306.43        2982.25           1653          38.00       136.44
 1306.46        2982.50           1657          45.00       166.96
 1306.49        2982.75           1660          49.00       184.40
 1306.52        2983.00           1663          44.00       162.60
 1306.55        2983.25           1667          35.00       123.37
 1306.58        2983.50           1670          46.00       171.32
 1306.61        2983.75           1673          40.00       145.16
 1306.64        2984.00           1677          49.00       184.40
HS scan finished at 21:46:52
end
