************************************************************
  HS Scan of (1) Internal mercury lamp
************************************************************
Integration time is 0.2294 seconds per sample
dh030717Manchester 53.47 2.23 2.857833pr1000
************************************************************
Dead Time -------------------------  3E-08 
Number of Cycles Used -------------  4 
Starting Wavelength (Angstroms) ---  2950 
Final Wavelength (Angstoms) -------  2984 
Wavelength Increment (Angstroms) --  .25 
Filter Wheel #1 Position ---------- (1) Ground quartz diffuser (ND=2.32)
Filter Wheel #2 Position ---------- (1) Neutral Density 0.494



************************************************************
HS scan start time = 01:41:23
Dark Count =  5.2 


Time (GMT)  Wavelength (Ang)  Step Number  Raw Counts  Counts/Second

  101.75        2950.00           1222          47.00       182.22
  101.82        2950.25           1226          39.00       147.34
  101.85        2950.50           1229          46.00       177.86
  101.88        2950.75           1232          46.00       177.86
  101.91        2951.00           1236          45.00       173.50
  101.94        2951.25           1239          44.00       169.14
  101.97        2951.50           1242          51.00       199.65
  102.00        2951.75           1246          44.00       169.14
  102.03        2952.00           1249          41.00       156.06
  102.06        2952.25           1252          48.00       186.57
  102.10        2952.50           1256          40.00       151.70
  102.13        2952.75           1259          44.00       169.14
  102.16        2953.00           1262          44.00       169.14
  102.19        2953.25           1266          49.00       190.93
  102.22        2953.50           1269          45.00       173.50
  102.25        2953.75           1272          47.00       182.22
  102.28        2954.00           1276          46.00       177.86
  102.31        2954.25           1279          45.00       173.50
  102.34        2954.50           1282          38.00       142.98
  102.37        2954.75           1286          44.00       169.14
  102.40        2955.00           1289          45.00       173.50
  102.43        2955.25           1292          42.00       160.42
  102.46        2955.50           1296          39.00       147.34
  102.49        2955.75           1299          47.00       182.22
  102.53        2956.00           1302          44.00       169.14
  102.56        2956.25           1306          53.00       208.37
  102.59        2956.50           1309          45.00       173.50
  102.62        2956.75           1312          38.00       142.98
  102.65        2957.00           1316          51.00       199.65
  102.68        2957.25           1319          45.00       173.50
  102.71        2957.50           1322          44.00       169.14
  102.74        2957.75           1326          42.00       160.42
  102.77        2958.00           1329          42.00       160.42
  102.80        2958.25           1332          38.00       142.98
  102.83        2958.50           1336          41.00       156.06
  102.87        2958.75           1339          43.00       164.78
  102.90        2959.00           1342          41.00       156.06
  102.93        2959.25           1346          41.00       156.06
  102.96        2959.50           1349          45.00       173.50
  102.99        2959.75           1352          62.00       247.60
  103.02        2960.00           1356          82.00       334.79
  103.05        2960.25           1359         140.00       587.63
  103.08        2960.50           1362         158.00       666.10
  103.11        2960.75           1366         213.00       905.87
  103.14        2961.00           1369         258.00      1102.04
  103.17        2961.25           1372         322.00      1381.05
  103.20        2961.50           1376         454.00      1956.52
  103.23        2961.75           1379         740.00      3203.45
  103.27        2962.00           1382        1573.00      6835.75
  103.30        2962.25           1386        3472.00     15119.32
  103.33        2962.50           1389        5040.00     21962.16
  103.36        2962.75           1392        6574.00     28659.33
  103.39        2963.00           1396        8734.00     38094.08
  103.42        2963.25           1399       10328.00     45060.00
  103.45        2963.50           1402       12077.00     52706.65
  103.48        2963.75           1406       14531.00     63441.47
  103.51        2964.00           1409       16226.00     70860.16
  103.54        2964.25           1412       18171.00     79377.12
  103.57        2964.50           1416       20368.00     89002.81
  103.61        2964.75           1419       22000.00     96156.69
  103.64        2965.00           1422       23824.00    104155.80
  103.67        2965.25           1426       26025.00    113813.40
  103.70        2965.50           1429       27812.00    121658.60
  103.73        2965.75           1432       29388.00    128580.50
  103.76        2966.00           1436       31366.00    137272.10
  103.79        2966.25           1439       33086.00    144833.70
  103.82        2966.50           1442       34779.00    152280.00
  103.85        2966.75           1446       35955.00    157454.30
  103.88        2967.00           1449       36374.00    159298.30
  103.91        2967.25           1452       36265.00    158818.60
  103.95        2967.50           1456       36277.00    158871.40
  103.98        2967.75           1459       36211.00    158580.90
  104.01        2968.00           1462       36020.00    157740.40
  104.04        2968.25           1466       34880.00    152724.30
  104.07        2968.50           1469       33347.00    145981.40
  104.10        2968.75           1472       31803.00    139192.90
  104.13        2969.00           1476       29702.00    129959.90
  104.16        2969.25           1479       28026.00    122598.30
  104.19        2969.50           1482       26274.00    114906.30
  104.23        2969.75           1486       23883.00    104414.60
  104.26        2970.00           1489       22288.00     97419.44
  104.29        2970.25           1492       20724.00     90563.07
  104.32        2970.50           1496       18613.00     81313.20
  104.35        2970.75           1499       16884.00     73740.99
  104.38        2971.00           1502       15245.00     66566.11
  104.41        2971.25           1506       12947.00     56511.60
  104.44        2971.50           1509       11229.00     48998.74
  104.47        2971.75           1513        8950.00     39037.85
  104.50        2972.00           1516        7429.00     32393.28
  104.53        2972.25           1519        5906.00     25742.63
  104.57        2972.50           1523        3698.00     16105.43
  104.60        2972.75           1526        2123.00      9234.47
  104.63        2973.00           1529        1008.00      4371.98
  104.66        2973.25           1533         452.00      1947.80
  104.69        2973.50           1536         357.00      1533.64
  104.72        2973.75           1539         315.00      1350.53
  104.75        2974.00           1543         263.00      1123.84
  104.78        2974.25           1546         190.00       805.60
  104.81        2974.50           1549         151.00       635.58
  104.84        2974.75           1553         100.00       413.26
  104.87        2975.00           1556          70.00       282.48
  104.90        2975.25           1559          59.00       234.53
  104.94        2975.50           1563          51.00       199.65
  104.97        2975.75           1566          50.00       195.29
  105.00        2976.00           1569          54.00       212.73
  105.03        2976.25           1573          46.00       177.86
  105.06        2976.50           1576          46.00       177.86
  105.09        2976.75           1579          47.00       182.22
  105.12        2977.00           1583          42.00       160.42
  105.15        2977.25           1586          45.00       173.50
  105.18        2977.50           1590          44.00       169.14
  105.21        2977.75           1593          51.00       199.65
  105.24        2978.00           1596          40.00       151.70
  105.28        2978.25           1600          45.00       173.50
  105.31        2978.50           1603          45.00       173.50
  105.34        2978.75           1606          41.00       156.06
  105.37        2979.00           1610          39.00       147.34
  105.40        2979.25           1613          42.00       160.42
  105.43        2979.50           1616          37.00       138.62
  105.46        2979.75           1620          44.00       169.14
  105.49        2980.00           1623          52.00       204.01
  105.52        2980.25           1626          39.00       147.34
  105.55        2980.50           1630          40.00       151.70
  105.58        2980.75           1633          41.00       156.06
  105.61        2981.00           1637          39.00       147.34
  105.65        2981.25           1640          42.00       160.42
  105.68        2981.50           1643          41.00       156.06
  105.71        2981.75           1647          44.00       169.14
  105.74        2982.00           1650          44.00       169.14
  105.77        2982.25           1653          43.00       164.78
  105.80        2982.50           1657          44.00       169.14
  105.83        2982.75           1660          39.00       147.34
  105.86        2983.00           1663          46.00       177.86
  105.89        2983.25           1667          37.00       138.62
  105.92        2983.50           1670          44.00       169.14
  105.96        2983.75           1673          35.00       129.90
  105.99        2984.00           1677          39.00       147.34
HS scan finished at 01:46:12
end
************************************************************
  HS Scan of (1) Internal mercury lamp
************************************************************
Integration time is 0.2294 seconds per sample
dh030717Manchester 53.47 2.23 2.857833pr1000
************************************************************
Dead Time -------------------------  3E-08 
Number of Cycles Used -------------  4 
Starting Wavelength (Angstroms) ---  2950 
Final Wavelength (Angstoms) -------  2984 
Wavelength Increment (Angstroms) --  .25 
Filter Wheel #1 Position ---------- (1) Ground quartz diffuser (ND=2.32)
Filter Wheel #2 Position ---------- (1) Neutral Density 0.494



************************************************************
HS scan start time = 21:42:00
Dark Count =  6.6 


Time (GMT)  Wavelength (Ang)  Step Number  Raw Counts  Counts/Second

 1302.37        2950.00           1222          38.00       136.88
 1302.43        2950.25           1226          47.00       176.11
 1302.46        2950.50           1229          47.00       176.11
 1302.49        2950.75           1232          48.00       180.47
 1302.52        2951.00           1236          39.00       141.24
 1302.56        2951.25           1239          43.00       158.68
 1302.59        2951.50           1242          44.00       163.03
 1302.62        2951.75           1246          44.00       163.03
 1302.65        2952.00           1249          50.00       189.19
 1302.68        2952.25           1252          46.00       171.75
 1302.71        2952.50           1256          40.00       145.60
 1302.74        2952.75           1259          41.00       149.96
 1302.77        2953.00           1262          39.00       141.24
 1302.80        2953.25           1266          43.00       158.68
 1302.83        2953.50           1269          37.00       132.52
 1302.86        2953.75           1272          47.00       176.11
 1302.89        2954.00           1276          42.00       154.32
 1302.92        2954.25           1279          47.00       176.11
 1302.95        2954.50           1282          43.00       158.68
 1302.98        2954.75           1286          47.00       176.11
 1303.01        2955.00           1289          44.00       163.03
 1303.05        2955.25           1292          64.00       250.22
 1303.08        2955.50           1296          39.00       141.24
 1303.11        2955.75           1299          44.00       163.03
 1303.14        2956.00           1302          45.00       167.39
 1303.17        2956.25           1306          43.00       158.68
 1303.20        2956.50           1309          43.00       158.68
 1303.23        2956.75           1312          45.00       167.39
 1303.26        2957.00           1316          42.00       154.32
 1303.29        2957.25           1319          41.00       149.96
 1303.32        2957.50           1322          45.00       167.39
 1303.35        2957.75           1326          40.00       145.60
 1303.38        2958.00           1329          48.00       180.47
 1303.41        2958.25           1332          38.00       136.88
 1303.44        2958.50           1336          41.00       149.96
 1303.47        2958.75           1339          58.00       224.06
 1303.50        2959.00           1342          47.00       176.11
 1303.53        2959.25           1346          46.00       171.75
 1303.56        2959.50           1349          61.00       237.14
 1303.59        2959.75           1352          79.00       315.61
 1303.62        2960.00           1356         107.00       437.67
 1303.66        2960.25           1359         148.00       616.40
 1303.69        2960.50           1362         175.00       734.11
 1303.72        2960.75           1366         236.00      1000.03
 1303.75        2961.00           1369         287.00      1222.36
 1303.78        2961.25           1372         340.00      1453.42
 1303.81        2961.50           1376         426.00      1828.35
 1303.84        2961.75           1379         586.00      2525.91
 1303.87        2962.00           1382        1137.00      4928.37
 1303.90        2962.25           1386        2769.00     12046.20
 1303.93        2962.50           1389        4426.00     19276.18
 1303.96        2962.75           1392        5958.00     25963.54
 1303.99        2963.00           1396        8174.00     35641.40
 1304.02        2963.25           1399       10047.00     43825.68
 1304.05        2963.50           1402       11706.00     51078.21
 1304.09        2963.75           1406       13978.00     61015.69
 1304.12        2964.00           1409       15728.00     68674.03
 1304.15        2964.25           1412       17494.00     76405.97
 1304.18        2964.50           1416       19911.00     86993.97
 1304.21        2964.75           1419       21642.00     94580.98
 1304.24        2965.00           1422       23340.00    102026.70
 1304.27        2965.25           1426       25562.00    111775.20
 1304.30        2965.50           1429       27369.00    119707.20
 1304.33        2965.75           1432       29236.00    127906.60
 1304.36        2966.00           1436       31376.00    137309.90
 1304.39        2966.25           1439       33106.00    144915.50
 1304.42        2966.50           1442       34463.00    150883.70
 1304.45        2966.75           1446       36213.00    158583.50
 1304.48        2967.00           1449       36532.00    159987.50
 1304.51        2967.25           1452       36824.00    161272.70
 1304.54        2967.50           1456       37014.00    162109.00
 1304.58        2967.75           1459       36743.00    160916.20
 1304.61        2968.00           1462       36690.00    160682.90
 1304.64        2968.25           1466       35771.00    156638.40
 1304.67        2968.50           1469       34464.00    150888.10
 1304.70        2968.75           1472       32876.00    143904.10
 1304.73        2969.00           1476       30461.00    133288.70
 1304.76        2969.25           1479       28738.00    125719.10
 1304.79        2969.50           1482       26876.00    117542.80
 1304.82        2969.75           1486       24679.00    107900.60
 1304.85        2970.00           1489       23225.00    101522.30
 1304.88        2970.25           1492       21450.00     93739.27
 1304.91        2970.50           1496       19432.00     84895.11
 1304.95        2970.75           1499       17714.00     77369.43
 1304.98        2971.00           1502       15845.00     69186.18
 1305.01        2971.25           1506       13773.00     60118.80
 1305.04        2971.50           1509       12017.00     52438.15
 1305.07        2971.75           1513        9798.00     42737.41
 1305.10        2972.00           1516        8002.00     34890.03
 1305.13        2972.25           1519        6253.00     27251.57
 1305.16        2972.50           1523        4070.00     17722.58
 1305.19        2972.75           1526        2574.00     11195.57
 1305.22        2973.00           1529        1203.00      5216.16
 1305.25        2973.25           1533         483.00      2076.85
 1305.28        2973.50           1536         338.00      1444.70
 1305.31        2973.75           1539         264.00      1122.10
 1305.35        2974.00           1543         231.00       978.23
 1305.38        2974.25           1546         166.00       694.87
 1305.41        2974.50           1549         119.00       489.98
 1305.44        2974.75           1553          83.00       333.05
 1305.47        2975.00           1556          67.00       263.30
 1305.50        2975.25           1559          47.00       176.11
 1305.53        2975.50           1563          43.00       158.68
 1305.56        2975.75           1566          48.00       180.47
 1305.59        2976.00           1569          41.00       149.96
 1305.62        2976.25           1573          52.00       197.91
 1305.65        2976.50           1576          47.00       176.11
 1305.68        2976.75           1579          47.00       176.11
 1305.71        2977.00           1583          43.00       158.68
 1305.74        2977.25           1586          42.00       154.32
 1305.78        2977.50           1590          41.00       149.96
 1305.81        2977.75           1593          47.00       176.11
 1305.84        2978.00           1596          45.00       167.39
 1305.87        2978.25           1600          44.00       163.03
 1305.90        2978.50           1603          40.00       145.60
 1305.93        2978.75           1606          42.00       154.32
 1305.96        2979.00           1610          41.00       149.96
 1305.99        2979.25           1613          44.00       163.03
 1306.02        2979.50           1616          39.00       141.24
 1306.05        2979.75           1620          42.00       154.32
 1306.08        2980.00           1623          50.00       189.19
 1306.11        2980.25           1626          48.00       180.47
 1306.14        2980.50           1630          51.00       193.55
 1306.17        2980.75           1633          46.00       171.75
 1306.20        2981.00           1637          33.00       115.08
 1306.23        2981.25           1640          41.00       149.96
 1306.27        2981.50           1643          33.00       115.08
 1306.30        2981.75           1647          40.00       145.60
 1306.33        2982.00           1650          44.00       163.03
 1306.36        2982.25           1653          51.00       193.55
 1306.39        2982.50           1657          42.00       154.32
 1306.42        2982.75           1660          41.00       149.96
 1306.45        2983.00           1663          49.00       184.83
 1306.48        2983.25           1667          41.00       149.96
 1306.51        2983.50           1670          39.00       141.24
 1306.54        2983.75           1673          46.00       171.75
 1306.57        2984.00           1677          39.00       141.24
HS scan finished at 21:46:48
end
