************************************************************
  HS Scan of (1) Internal mercury lamp
************************************************************
Integration time is 0.2294 seconds per sample
dh050718Manchester 53.47 2.23 2.965129pr1000
************************************************************
Dead Time -------------------------  3E-08 
Number of Cycles Used -------------  4 
Starting Wavelength (Angstroms) ---  2950 
Final Wavelength (Angstoms) -------  2984 
Wavelength Increment (Angstroms) --  .25 
Filter Wheel #1 Position ---------- (1) Ground quartz diffuser (ND=2.32)
Filter Wheel #2 Position ---------- (1) Neutral Density 0.494



************************************************************
HS scan start time = 02:20:07
Dark Count =  7.7 


Time (GMT)  Wavelength (Ang)  Step Number  Raw Counts  Counts/Second

  140.49        2950.00           1222          51.00       188.75
  140.56        2950.25           1226          46.00       166.96
  140.59        2950.50           1229          50.00       184.40
  140.62        2950.75           1232          60.00       227.99
  140.65        2951.00           1236          56.00       210.55
  140.68        2951.25           1239          53.00       197.47
  140.71        2951.50           1242          55.00       206.19
  140.74        2951.75           1246          53.00       197.47
  140.78        2952.00           1249          51.00       188.75
  140.81        2952.25           1252          57.00       214.91
  140.84        2952.50           1256          47.00       171.32
  140.87        2952.75           1259          50.00       184.40
  140.90        2953.00           1262          51.00       188.75
  140.93        2953.25           1266          58.00       219.27
  140.96        2953.50           1269          49.00       180.04
  140.99        2953.75           1272          49.00       180.04
  141.02        2954.00           1276          54.00       201.83
  141.05        2954.25           1279          54.00       201.83
  141.08        2954.50           1282          48.00       175.68
  141.11        2954.75           1286          63.00       241.07
  141.14        2955.00           1289          53.00       197.47
  141.17        2955.25           1292          49.00       180.04
  141.21        2955.50           1296          56.00       210.55
  141.24        2955.75           1299          50.00       184.40
  141.27        2956.00           1302          58.00       219.27
  141.30        2956.25           1306          54.00       201.83
  141.33        2956.50           1309          58.00       219.27
  141.36        2956.75           1312          54.00       201.83
  141.39        2957.00           1316          54.00       201.83
  141.42        2957.25           1319          63.00       241.07
  141.45        2957.50           1322          52.00       193.11
  141.48        2957.75           1326          60.00       227.99
  141.52        2958.00           1329          50.00       184.40
  141.55        2958.25           1332          55.00       206.19
  141.58        2958.50           1336          56.00       210.55
  141.61        2958.75           1339          53.00       197.47
  141.64        2959.00           1342          52.00       193.11
  141.67        2959.25           1346          56.00       210.55
  141.70        2959.50           1349          61.00       232.35
  141.73        2959.75           1352          73.00       284.66
  141.76        2960.00           1356          92.00       367.48
  141.79        2960.25           1359         129.00       528.78
  141.82        2960.50           1362         158.00       655.20
  141.86        2960.75           1366         202.00       847.01
  141.89        2961.00           1369         230.00       969.08
  141.92        2961.25           1372         281.00      1191.41
  141.95        2961.50           1376         350.00      1492.22
  141.98        2961.75           1379         466.00      1997.94
  142.01        2962.00           1382        1001.00      4330.55
  142.04        2962.25           1386        2662.00     11574.64
  142.07        2962.50           1389        4131.00     17983.98
  142.10        2962.75           1392        5480.00     23871.93
  142.13        2963.00           1396        7450.00     32474.08
  142.17        2963.25           1399        8969.00     39109.94
  142.20        2963.50           1402       10276.00     44821.78
  142.23        2963.75           1406       12247.00     53439.14
  142.26        2964.00           1409       13857.00     60481.48
  142.29        2964.25           1412       15394.00     67207.30
  142.32        2964.50           1416       17649.00     77079.96
  142.35        2964.75           1419       19100.00     83435.71
  142.38        2965.00           1422       20602.00     90017.40
  142.41        2965.25           1426       22798.00     99644.87
  142.45        2965.50           1429       24180.00    105706.50
  142.48        2965.75           1432       25778.00    112718.40
  142.51        2966.00           1436       27650.00    120936.20
  142.54        2966.25           1439       29327.00    128301.50
  142.57        2966.50           1442       30592.00    133859.50
  142.60        2966.75           1446       32136.00    140645.80
  142.63        2967.00           1449       32641.00    142866.00
  142.66        2967.25           1452       32368.00    141665.80
  142.69        2967.50           1456       32598.00    142677.00
  142.73        2967.75           1459       32554.00    142483.50
  142.76        2968.00           1462       32474.00    142131.80
  142.79        2968.25           1466       31555.00    138091.80
  142.82        2968.50           1469       30294.00    132550.00
  142.85        2968.75           1472       28816.00    126056.90
  142.88        2969.00           1476       27038.00    118249.20
  142.91        2969.25           1479       25410.00    111103.40
  142.94        2969.50           1482       24184.00    105724.10
  142.98        2969.75           1486       21911.00     95755.50
  143.01        2970.00           1489       20513.00     89627.34
  143.04        2970.25           1492       19108.00     83470.75
  143.07        2970.50           1496       17008.00     74272.99
  143.10        2970.75           1499       15613.00     68165.85
  143.13        2971.00           1502       14052.00     61334.64
  143.16        2971.25           1506       12123.00     52896.87
  143.19        2971.50           1509       10603.00     46251.15
  143.22        2971.75           1513        8632.00     37637.51
  143.26        2972.00           1516        7236.00     31539.42
  143.29        2972.25           1519        5675.00     24723.21
  143.32        2972.50           1523        3816.00     16609.41
  143.35        2972.75           1526        2379.00     10340.17
  143.38        2973.00           1529        1063.00      4600.90
  143.41        2973.25           1533         421.00      1801.75
  143.44        2973.50           1536         318.00      1352.71
  143.47        2973.75           1539         275.00      1165.25
  143.50        2974.00           1543         221.00       929.84
  143.53        2974.25           1546         164.00       681.36
  143.56        2974.50           1549         138.00       568.01
  143.60        2974.75           1553          88.00       350.05
  143.63        2975.00           1556          66.00       254.14
  143.66        2975.25           1559          66.00       254.14
  143.69        2975.50           1563          53.00       197.47
  143.72        2975.75           1566          50.00       184.40
  143.75        2976.00           1569          51.00       188.75
  143.78        2976.25           1573          53.00       197.47
  143.81        2976.50           1576          56.00       210.55
  143.84        2976.75           1579          50.00       184.40
  143.88        2977.00           1583          56.00       210.55
  143.91        2977.25           1586          54.00       201.83
  143.94        2977.50           1590          49.00       180.04
  143.97        2977.75           1593          52.00       193.11
  144.00        2978.00           1596          51.00       188.75
  144.03        2978.25           1600          56.00       210.55
  144.06        2978.50           1603          53.00       197.47
  144.09        2978.75           1606          60.00       227.99
  144.12        2979.00           1610          51.00       188.75
  144.15        2979.25           1613          53.00       197.47
  144.19        2979.50           1616          47.00       171.32
  144.22        2979.75           1620          55.00       206.19
  144.25        2980.00           1623          53.00       197.47
  144.28        2980.25           1626          49.00       180.04
  144.31        2980.50           1630          51.00       188.75
  144.34        2980.75           1633          50.00       184.40
  144.37        2981.00           1637          53.00       197.47
  144.40        2981.25           1640          54.00       201.83
  144.43        2981.50           1643          52.00       193.11
  144.47        2981.75           1647          47.00       171.32
  144.50        2982.00           1650          49.00       180.04
  144.53        2982.25           1653          55.00       206.19
  144.56        2982.50           1657          44.00       158.24
  144.59        2982.75           1660          42.00       149.52
  144.62        2983.00           1663          48.00       175.68
  144.65        2983.25           1667          52.00       193.11
  144.68        2983.50           1670          51.00       188.75
  144.71        2983.75           1673          49.00       180.04
  144.74        2984.00           1677          55.00       206.19
HS scan finished at 02:24:58
end
************************************************************
  HS Scan of (1) Internal mercury lamp
************************************************************
Integration time is 0.2294 seconds per sample
dh050718Manchester 53.47 2.23 2.965129pr1000
************************************************************
Dead Time -------------------------  3E-08 
Number of Cycles Used -------------  4 
Starting Wavelength (Angstroms) ---  2950 
Final Wavelength (Angstoms) -------  2984 
Wavelength Increment (Angstroms) --  .25 
Filter Wheel #1 Position ---------- (1) Ground quartz diffuser (ND=2.32)
Filter Wheel #2 Position ---------- (1) Neutral Density 0.494



************************************************************
HS scan start time = 21:42:04
Dark Count =  6.9 


Time (GMT)  Wavelength (Ang)  Step Number  Raw Counts  Counts/Second

 1302.43        2950.00           1222          54.00       205.32
 1302.50        2950.25           1226          55.00       209.68
 1302.53        2950.50           1229          56.00       214.04
 1302.56        2950.75           1232          57.00       218.40
 1302.59        2951.00           1236          58.00       222.76
 1302.62        2951.25           1239          56.00       214.04
 1302.65        2951.50           1242          58.00       222.76
 1302.69        2951.75           1246          53.00       200.96
 1302.72        2952.00           1249          56.00       214.04
 1302.75        2952.25           1252          59.00       227.12
 1302.78        2952.50           1256          57.00       218.40
 1302.81        2952.75           1259          54.00       205.32
 1302.84        2953.00           1262          54.00       205.32
 1302.87        2953.25           1266          54.00       205.32
 1302.90        2953.50           1269          54.00       205.32
 1302.93        2953.75           1272          52.00       196.60
 1302.97        2954.00           1276          68.00       266.35
 1303.00        2954.25           1279          60.00       231.48
 1303.03        2954.50           1282          55.00       209.68
 1303.06        2954.75           1286          56.00       214.04
 1303.09        2955.00           1289          56.00       214.04
 1303.12        2955.25           1292          59.00       227.12
 1303.15        2955.50           1296          52.00       196.60
 1303.18        2955.75           1299          53.00       200.96
 1303.21        2956.00           1302          51.00       192.24
 1303.25        2956.25           1306          51.00       192.24
 1303.28        2956.50           1309          49.00       183.52
 1303.31        2956.75           1312          65.00       253.27
 1303.34        2957.00           1316          52.00       196.60
 1303.37        2957.25           1319          62.00       240.19
 1303.40        2957.50           1322          60.00       231.48
 1303.43        2957.75           1326          52.00       196.60
 1303.46        2958.00           1329          53.00       200.96
 1303.49        2958.25           1332          52.00       196.60
 1303.53        2958.50           1336          50.00       187.88
 1303.56        2958.75           1339          58.00       222.76
 1303.59        2959.00           1342          55.00       209.68
 1303.62        2959.25           1346          55.00       209.68
 1303.65        2959.50           1349          70.00       275.07
 1303.68        2959.75           1352          84.00       336.10
 1303.71        2960.00           1356         112.00       458.16
 1303.74        2960.25           1359         143.00       593.30
 1303.77        2960.50           1362         183.00       767.67
 1303.80        2960.75           1366         240.00      1016.16
 1303.84        2961.00           1369         263.00      1116.43
 1303.87        2961.25           1372         309.00      1316.97
 1303.90        2961.50           1376         368.00      1574.18
 1303.93        2961.75           1379         493.00      2119.14
 1303.96        2962.00           1382        1027.00      4447.41
 1303.99        2962.25           1386        2513.00     10928.17
 1304.02        2962.50           1389        4058.00     17668.91
 1304.05        2962.75           1392        5470.00     23831.77
 1304.08        2963.00           1396        7557.00     32944.93
 1304.12        2963.25           1399        9087.00     39629.04
 1304.15        2963.50           1402       10478.00     45708.24
 1304.18        2963.75           1406       12521.00     54640.94
 1304.21        2964.00           1409       14050.00     61329.39
 1304.24        2964.25           1412       15507.00     67705.38
 1304.27        2964.50           1416       17402.00     76001.78
 1304.30        2964.75           1419       18983.00     82926.63
 1304.33        2965.00           1422       20355.00     88938.38
 1304.36        2965.25           1426       22414.00     97964.48
 1304.40        2965.50           1429       23983.00    104845.80
 1304.43        2965.75           1432       25370.00    110931.30
 1304.46        2966.00           1436       27356.00    119648.90
 1304.49        2966.25           1439       28833.00    126135.10
 1304.52        2966.50           1442       30311.00    132628.20
 1304.55        2966.75           1446       31783.00    139097.60
 1304.58        2967.00           1449       32398.00    141801.20
 1304.61        2967.25           1452       32300.00    141370.30
 1304.64        2967.50           1456       32527.00    142368.30
 1304.68        2967.75           1459       32278.00    141273.60
 1304.71        2968.00           1462       32384.00    141739.60
 1304.74        2968.25           1466       31599.00    138288.80
 1304.77        2968.50           1469       30384.00    132949.00
 1304.80        2968.75           1472       29022.00    126965.30
 1304.83        2969.00           1476       26865.00    117493.20
 1304.86        2969.25           1479       25474.00    111387.70
 1304.89        2969.50           1482       23877.00    104380.80
 1304.92        2969.75           1486       21845.00     95469.64
 1304.96        2970.00           1489       20249.00     88473.84
 1304.99        2970.25           1492       18913.00     82619.96
 1305.02        2970.50           1496       16938.00     73969.99
 1305.05        2970.75           1499       15531.00     67810.43
 1305.08        2971.00           1502       14018.00     61189.38
 1305.11        2971.25           1506       12091.00     52760.43
 1305.14        2971.50           1509       10520.00     45891.82
 1305.17        2971.75           1513        8567.00     37357.01
 1305.21        2972.00           1516        7185.00     31320.18
 1305.24        2972.25           1519        5587.00     24342.53
 1305.27        2972.50           1523        3628.00     15792.57
 1305.30        2972.75           1526        2244.00      9754.82
 1305.33        2973.00           1529         929.00      4020.10
 1305.36        2973.25           1533         421.00      1805.24
 1305.39        2973.50           1536         296.00      1260.29
 1305.42        2973.75           1539         269.00      1142.59
 1305.45        2974.00           1543         209.00       881.02
 1305.48        2974.25           1546         161.00       671.77
 1305.51        2974.50           1549         122.00       501.75
 1305.55        2974.75           1553          91.00       366.61
 1305.58        2975.00           1556          74.00       292.50
 1305.61        2975.25           1559          63.00       244.55
 1305.64        2975.50           1563          54.00       205.32
 1305.67        2975.75           1566          50.00       187.88
 1305.70        2976.00           1569          54.00       205.32
 1305.73        2976.25           1573          53.00       200.96
 1305.76        2976.50           1576          50.00       187.88
 1305.79        2976.75           1579          50.00       187.88
 1305.82        2977.00           1583          55.00       209.68
 1305.85        2977.25           1586          53.00       200.96
 1305.89        2977.50           1590          57.00       218.40
 1305.92        2977.75           1593          48.00       179.16
 1305.95        2978.00           1596          54.00       205.32
 1305.98        2978.25           1600          56.00       214.04
 1306.01        2978.50           1603          43.00       157.37
 1306.04        2978.75           1606          45.00       166.09
 1306.07        2979.00           1610          53.00       200.96
 1306.10        2979.25           1613          55.00       209.68
 1306.13        2979.50           1616          55.00       209.68
 1306.16        2979.75           1620          49.00       183.52
 1306.19        2980.00           1623          52.00       196.60
 1306.22        2980.25           1626          44.00       161.73
 1306.26        2980.50           1630          52.00       196.60
 1306.29        2980.75           1633          60.00       231.48
 1306.32        2981.00           1637          48.00       179.16
 1306.35        2981.25           1640          52.00       196.60
 1306.38        2981.50           1643          60.00       231.48
 1306.41        2981.75           1647          55.00       209.68
 1306.44        2982.00           1650          45.00       166.09
 1306.47        2982.25           1653          53.00       200.96
 1306.50        2982.50           1657          48.00       179.16
 1306.53        2982.75           1660          42.00       153.01
 1306.56        2983.00           1663          49.00       183.52
 1306.59        2983.25           1667          57.00       218.40
 1306.63        2983.50           1670          49.00       183.52
 1306.66        2983.75           1673          46.00       170.45
 1306.69        2984.00           1677          52.00       196.60
HS scan finished at 21:46:54
end
