************************************************************
  HS Scan of (1) Internal mercury lamp
************************************************************
Integration time is 0.2294 seconds per sample
dh040717Manchester 53.47 2.23 2.911481pr1000
************************************************************
Dead Time -------------------------  3E-08 
Number of Cycles Used -------------  4 
Starting Wavelength (Angstroms) ---  2950 
Final Wavelength (Angstoms) -------  2984 
Wavelength Increment (Angstroms) --  .25 
Filter Wheel #1 Position ---------- (1) Ground quartz diffuser (ND=2.32)
Filter Wheel #2 Position ---------- (1) Neutral Density 0.494



************************************************************
HS scan start time = 01:41:36
Dark Count =  5.8 


Time (GMT)  Wavelength (Ang)  Step Number  Raw Counts  Counts/Second

  101.96        2950.00           1222          50.00       192.68
  102.03        2950.25           1226          42.00       157.80
  102.06        2950.50           1229          46.00       175.24
  102.09        2950.75           1232          43.00       162.16
  102.12        2951.00           1236          39.00       144.73
  102.15        2951.25           1239          37.00       136.01
  102.18        2951.50           1242          43.00       162.16
  102.21        2951.75           1246          41.00       153.44
  102.24        2952.00           1249          46.00       175.24
  102.27        2952.25           1252          46.00       175.24
  102.31        2952.50           1256          44.00       166.52
  102.34        2952.75           1259          47.00       179.60
  102.37        2953.00           1262          41.00       153.44
  102.40        2953.25           1266          47.00       179.60
  102.43        2953.50           1269          40.00       149.09
  102.46        2953.75           1272          48.00       183.96
  102.49        2954.00           1276          40.00       149.09
  102.52        2954.25           1279          45.00       170.88
  102.55        2954.50           1282          38.00       140.37
  102.58        2954.75           1286          44.00       166.52
  102.61        2955.00           1289          37.00       136.01
  102.64        2955.25           1292          38.00       140.37
  102.67        2955.50           1296          41.00       153.44
  102.70        2955.75           1299          45.00       170.88
  102.73        2956.00           1302          49.00       188.32
  102.77        2956.25           1306          47.00       179.60
  102.80        2956.50           1309          44.00       166.52
  102.83        2956.75           1312          41.00       153.44
  102.86        2957.00           1316          42.00       157.80
  102.89        2957.25           1319          34.00       122.93
  102.92        2957.50           1322          40.00       149.09
  102.95        2957.75           1326          51.00       197.04
  102.98        2958.00           1329          44.00       166.52
  103.01        2958.25           1332          44.00       166.52
  103.04        2958.50           1336          46.00       175.24
  103.07        2958.75           1339          42.00       157.80
  103.11        2959.00           1342          51.00       197.04
  103.14        2959.25           1346          46.00       175.24
  103.17        2959.50           1349          59.00       231.91
  103.20        2959.75           1352          75.00       301.66
  103.23        2960.00           1356         106.00       436.80
  103.26        2960.25           1359         154.00       646.05
  103.29        2960.50           1362         189.00       798.62
  103.32        2960.75           1366         239.00      1016.60
  103.35        2961.00           1369         286.00      1221.49
  103.38        2961.25           1372         322.00      1378.44
  103.41        2961.50           1376         425.00      1827.48
  103.44        2961.75           1379         625.00      2699.43
  103.47        2962.00           1382        1276.00      5537.97
  103.50        2962.25           1386        2981.00     12974.54
  103.53        2962.50           1389        4609.00     20078.35
  103.57        2962.75           1392        6302.00     27469.01
  103.60        2963.00           1396        8413.00     36689.01
  103.63        2963.25           1399       10016.00     43693.68
  103.66        2963.50           1402       11803.00     51505.86
  103.69        2963.75           1406       14248.00     62200.53
  103.72        2964.00           1409       16004.00     69885.69
  103.75        2964.25           1412       17821.00     77841.55
  103.78        2964.50           1416       20423.00     89241.21
  103.81        2964.75           1419       21874.00     95601.60
  103.84        2965.00           1422       23979.00    104833.10
  103.88        2965.25           1426       26218.00    114657.90
  103.91        2965.50           1429       27814.00    121664.70
  103.94        2965.75           1432       29809.00    130427.40
  103.97        2966.00           1436       32276.00    141269.60
  104.00        2966.25           1439       33703.00    147544.40
  104.03        2966.50           1442       35365.00    154855.50
  104.06        2966.75           1446       36980.00    161962.90
  104.09        2967.00           1449       37478.00    164155.20
  104.12        2967.25           1452       37628.00    164815.50
  104.16        2967.50           1456       37562.00    164525.00
  104.19        2967.75           1459       37628.00    164815.50
  104.22        2968.00           1462       37313.00    163428.80
  104.25        2968.25           1466       36347.00    159176.80
  104.28        2968.50           1469       34979.00    153157.20
  104.31        2968.75           1472       33673.00    147412.50
  104.34        2969.00           1476       31393.00    137388.10
  104.37        2969.25           1479       29720.00    130036.40
  104.40        2969.50           1482       28016.00    122551.80
  104.43        2969.75           1486       25832.00    112963.70
  104.47        2970.00           1489       24156.00    105609.60
  104.50        2970.25           1492       22341.00     97649.19
  104.53        2970.50           1496       20026.00     87501.41
  104.56        2970.75           1499       18317.00     80013.98
  104.59        2971.00           1502       16561.00     72324.15
  104.62        2971.25           1506       14032.00     61255.45
  104.65        2971.50           1509       12227.00     53359.98
  104.68        2971.75           1513       10100.00     44060.82
  104.71        2972.00           1516        8497.00     37056.00
  104.75        2972.25           1519        6871.00     29953.67
  104.78        2972.50           1523        4600.00     20039.07
  104.81        2972.75           1526        2979.00     12965.81
  104.84        2973.00           1529        1593.00      6920.36
  104.87        2973.25           1533         537.00      2315.77
  104.90        2973.50           1536         351.00      1504.86
  104.93        2973.75           1539         282.00      1204.05
  104.96        2974.00           1543         227.00       964.28
  104.99        2974.25           1546         139.00       580.66
  105.02        2974.50           1549         110.00       454.23
  105.06        2974.75           1553          78.00       314.74
  105.09        2975.00           1556          63.00       249.35
  105.12        2975.25           1559          47.00       179.60
  105.15        2975.50           1563          52.00       201.40
  105.18        2975.75           1566          45.00       170.88
  105.21        2976.00           1569          52.00       201.40
  105.24        2976.25           1573          49.00       188.32
  105.27        2976.50           1576          47.00       179.60
  105.30        2976.75           1579          43.00       162.16
  105.33        2977.00           1583          46.00       175.24
  105.36        2977.25           1586          43.00       162.16
  105.39        2977.50           1590          41.00       153.44
  105.42        2977.75           1593          46.00       175.24
  105.46        2978.00           1596          47.00       179.60
  105.49        2978.25           1600          37.00       136.01
  105.52        2978.50           1603          42.00       157.80
  105.55        2978.75           1606          40.00       149.09
  105.58        2979.00           1610          36.00       131.65
  105.61        2979.25           1613          45.00       170.88
  105.64        2979.50           1616          51.00       197.04
  105.67        2979.75           1620          43.00       162.16
  105.70        2980.00           1623          43.00       162.16
  105.73        2980.25           1626          44.00       166.52
  105.76        2980.50           1630          49.00       188.32
  105.79        2980.75           1633          35.00       127.29
  105.82        2981.00           1637          40.00       149.09
  105.85        2981.25           1640          41.00       153.44
  105.89        2981.50           1643          38.00       140.37
  105.92        2981.75           1647          45.00       170.88
  105.95        2982.00           1650          42.00       157.80
  105.98        2982.25           1653          39.00       144.73
  106.01        2982.50           1657          38.00       140.37
  106.04        2982.75           1660          36.00       131.65
  106.07        2983.00           1663          42.00       157.80
  106.10        2983.25           1667          47.00       179.60
  106.13        2983.50           1670          45.00       170.88
  106.16        2983.75           1673          33.00       118.57
  106.19        2984.00           1677          42.00       157.80
HS scan finished at 01:46:25
end
************************************************************
  HS Scan of (1) Internal mercury lamp
************************************************************
Integration time is 0.2294 seconds per sample
dh040717Manchester 53.47 2.23 2.965129pr1000
************************************************************
Dead Time -------------------------  3E-08 
Number of Cycles Used -------------  4 
Starting Wavelength (Angstroms) ---  2950 
Final Wavelength (Angstoms) -------  2984 
Wavelength Increment (Angstroms) --  .25 
Filter Wheel #1 Position ---------- (1) Ground quartz diffuser (ND=2.32)
Filter Wheel #2 Position ---------- (1) Neutral Density 0.494



************************************************************
HS scan start time = 21:42:01
Dark Count =  5.6 


Time (GMT)  Wavelength (Ang)  Step Number  Raw Counts  Counts/Second

 1302.39        2950.00           1222          37.00       136.88
 1302.46        2950.25           1226          41.00       154.32
 1302.49        2950.50           1229          40.00       149.96
 1302.52        2950.75           1232          39.00       145.60
 1302.55        2951.00           1236          41.00       154.32
 1302.58        2951.25           1239          36.00       132.52
 1302.61        2951.50           1242          35.00       128.16
 1302.64        2951.75           1246          39.00       145.60
 1302.67        2952.00           1249          42.00       158.68
 1302.70        2952.25           1252          41.00       154.32
 1302.73        2952.50           1256          42.00       158.68
 1302.76        2952.75           1259          38.00       141.24
 1302.79        2953.00           1262          43.00       163.03
 1302.82        2953.25           1266          59.00       232.78
 1302.86        2953.50           1269          48.00       184.83
 1302.89        2953.75           1272          40.00       149.96
 1302.92        2954.00           1276          42.00       158.68
 1302.95        2954.25           1279          41.00       154.32
 1302.98        2954.50           1282          52.00       202.27
 1303.01        2954.75           1286          41.00       154.32
 1303.04        2955.00           1289          45.00       171.75
 1303.07        2955.25           1292          43.00       163.03
 1303.10        2955.50           1296          40.00       149.96
 1303.14        2955.75           1299          45.00       171.75
 1303.17        2956.00           1302          45.00       171.75
 1303.20        2956.25           1306          52.00       202.27
 1303.23        2956.50           1309          41.00       154.32
 1303.26        2956.75           1312          44.00       167.39
 1303.29        2957.00           1316          48.00       184.83
 1303.32        2957.25           1319          45.00       171.75
 1303.35        2957.50           1322          44.00       167.39
 1303.38        2957.75           1326          45.00       171.75
 1303.42        2958.00           1329          46.00       176.11
 1303.45        2958.25           1332          46.00       176.11
 1303.48        2958.50           1336          38.00       141.24
 1303.51        2958.75           1339          40.00       149.96
 1303.54        2959.00           1342          37.00       136.88
 1303.57        2959.25           1346          51.00       197.91
 1303.60        2959.50           1349          67.00       267.66
 1303.63        2959.75           1352          73.00       293.81
 1303.66        2960.00           1356         102.00       420.23
 1303.69        2960.25           1359         144.00       603.32
 1303.72        2960.50           1362         198.00       838.73
 1303.76        2960.75           1366         248.00      1056.70
 1303.79        2961.00           1369         290.00      1239.80
 1303.82        2961.25           1372         348.00      1492.66
 1303.85        2961.50           1376         450.00      1937.34
 1303.88        2961.75           1379         691.00      2988.06
 1303.91        2962.00           1382        1380.00      5992.36
 1303.94        2962.25           1386        3520.00     15327.01
 1303.97        2962.50           1389        5242.00     22842.15
 1304.00        2962.75           1392        7007.00     30548.47
 1304.03        2963.00           1396        9425.00     41111.70
 1304.07        2963.25           1399       11098.00     48424.27
 1304.10        2963.50           1402       12853.00     56098.70
 1304.13        2963.75           1406       15467.00     67536.00
 1304.16        2964.00           1409       17226.00     75236.76
 1304.19        2964.25           1412       19135.00     83598.25
 1304.22        2964.50           1416       21677.00     94738.81
 1304.25        2964.75           1419       23485.00    102667.10
 1304.28        2965.00           1422       25301.00    110634.20
 1304.31        2965.25           1426       27861.00    121872.00
 1304.35        2965.50           1429       29641.00    129690.20
 1304.38        2965.75           1432       31545.00    138057.10
 1304.41        2966.00           1436       34038.00    149018.70
 1304.44        2966.25           1439       35796.00    156752.90
 1304.47        2966.50           1442       37376.00    163707.00
 1304.50        2966.75           1446       38825.00    170087.10
 1304.53        2967.00           1449       39207.00    171769.50
 1304.56        2967.25           1452       39417.00    172694.50
 1304.59        2967.50           1456       39260.00    172003.00
 1304.62        2967.75           1459       39214.00    171800.40
 1304.65        2968.00           1462       38946.00    170620.00
 1304.68        2968.25           1466       37720.00    165221.50
 1304.72        2968.50           1469       36041.00    157831.00
 1304.75        2968.75           1472       34396.00    150593.40
 1304.78        2969.00           1476       32086.00    140435.20
 1304.81        2969.25           1479       30335.00    132739.40
 1304.84        2969.50           1482       28547.00    124884.60
 1304.87        2969.75           1486       26015.00    113767.80
 1304.90        2970.00           1489       24296.00    106224.60
 1304.93        2970.25           1492       22575.00     98676.16
 1304.96        2970.50           1496       20139.00     87997.49
 1304.99        2970.75           1499       18475.00     80706.95
 1305.03        2971.00           1502       16542.00     72241.85
 1305.06        2971.25           1506       14129.00     61680.73
 1305.09        2971.50           1509       12167.00     53098.47
 1305.12        2971.75           1513        9851.00     42973.42
 1305.15        2972.00           1516        7969.00     34750.25
 1305.18        2972.25           1519        6359.00     27718.77
 1305.21        2972.50           1523        4073.00     17740.04
 1305.24        2972.75           1526        2530.00     11007.99
 1305.27        2973.00           1529        1199.00      5203.08
 1305.30        2973.25           1533         476.00      2050.69
 1305.33        2973.50           1536         369.00      1584.21
 1305.37        2973.75           1539         307.00      1313.91
 1305.40        2974.00           1543         252.00      1074.14
 1305.43        2974.25           1546         192.00       812.57
 1305.46        2974.50           1549         139.00       581.53
 1305.49        2974.75           1553          84.00       341.76
 1305.52        2975.00           1556          61.00       241.50
 1305.55        2975.25           1559          55.00       215.35
 1305.58        2975.50           1563          54.00       210.99
 1305.61        2975.75           1566          50.00       193.55
 1305.64        2976.00           1569          54.00       210.99
 1305.67        2976.25           1573          48.00       184.83
 1305.71        2976.50           1576          47.00       180.47
 1305.74        2976.75           1579          44.00       167.39
 1305.77        2977.00           1583          44.00       167.39
 1305.80        2977.25           1586          44.00       167.39
 1305.83        2977.50           1590          54.00       210.99
 1305.86        2977.75           1593          50.00       193.55
 1305.89        2978.00           1596          51.00       197.91
 1305.92        2978.25           1600          48.00       184.83
 1305.95        2978.50           1603          49.00       189.19
 1305.98        2978.75           1606          43.00       163.03
 1306.02        2979.00           1610          47.00       180.47
 1306.05        2979.25           1613          49.00       189.19
 1306.08        2979.50           1616          46.00       176.11
 1306.11        2979.75           1620          43.00       163.03
 1306.14        2980.00           1623          41.00       154.32
 1306.17        2980.25           1626          40.00       149.96
 1306.20        2980.50           1630          43.00       163.03
 1306.23        2980.75           1633          47.00       180.47
 1306.26        2981.00           1637          45.00       171.75
 1306.29        2981.25           1640          38.00       141.24
 1306.32        2981.50           1643          44.00       167.39
 1306.35        2981.75           1647          42.00       158.68
 1306.38        2982.00           1650          36.00       132.52
 1306.42        2982.25           1653          46.00       176.11
 1306.45        2982.50           1657          48.00       184.83
 1306.48        2982.75           1660          40.00       149.96
 1306.51        2983.00           1663          38.00       141.24
 1306.54        2983.25           1667          41.00       154.32
 1306.57        2983.50           1670          42.00       158.68
 1306.60        2983.75           1673          47.00       180.47
 1306.63        2984.00           1677          39.00       145.60
HS scan finished at 21:46:51
end
