************************************************************
  HS Scan of (1) Internal mercury lamp
************************************************************
Integration time is 0.2294 seconds per sample
dh030718Manchester 53.47 2.23 2.804185pr1000
************************************************************
Dead Time -------------------------  3E-08 
Number of Cycles Used -------------  4 
Starting Wavelength (Angstroms) ---  2950 
Final Wavelength (Angstoms) -------  2984 
Wavelength Increment (Angstroms) --  .25 
Filter Wheel #1 Position ---------- (1) Ground quartz diffuser (ND=2.32)
Filter Wheel #2 Position ---------- (1) Neutral Density 0.494



************************************************************
HS scan start time = 01:40:08
Dark Count =  7.3 


Time (GMT)  Wavelength (Ang)  Step Number  Raw Counts  Counts/Second

  100.51        2950.00           1222          51.00       190.50
  100.58        2950.25           1226          55.00       207.94
  100.61        2950.50           1229          49.00       181.78
  100.64        2950.75           1232          46.00       168.70
  100.67        2951.00           1236          55.00       207.94
  100.70        2951.25           1239          55.00       207.94
  100.73        2951.50           1242          52.00       194.86
  100.76        2951.75           1246          61.00       234.09
  100.80        2952.00           1249          51.00       190.50
  100.83        2952.25           1252          61.00       234.09
  100.86        2952.50           1256          61.00       234.09
  100.89        2952.75           1259          51.00       190.50
  100.92        2953.00           1262          55.00       207.94
  100.95        2953.25           1266          55.00       207.94
  100.98        2953.50           1269          48.00       177.42
  101.01        2953.75           1272          59.00       225.37
  101.04        2954.00           1276          49.00       181.78
  101.07        2954.25           1279          58.00       221.01
  101.10        2954.50           1282          56.00       212.29
  101.14        2954.75           1286          57.00       216.65
  101.17        2955.00           1289          54.00       203.58
  101.20        2955.25           1292          55.00       207.94
  101.23        2955.50           1296          53.00       199.22
  101.26        2955.75           1299          58.00       221.01
  101.29        2956.00           1302          58.00       221.01
  101.32        2956.25           1306          58.00       221.01
  101.35        2956.50           1309          62.00       238.45
  101.38        2956.75           1312          55.00       207.94
  101.41        2957.00           1316          59.00       225.37
  101.45        2957.25           1319          56.00       212.29
  101.48        2957.50           1322          57.00       216.65
  101.51        2957.75           1326          51.00       190.50
  101.54        2958.00           1329          46.00       168.70
  101.57        2958.25           1332          51.00       190.50
  101.60        2958.50           1336          52.00       194.86
  101.63        2958.75           1339          60.00       229.73
  101.66        2959.00           1342          51.00       190.50
  101.69        2959.25           1346          66.00       255.89
  101.73        2959.50           1349          69.00       268.96
  101.76        2959.75           1352          84.00       334.35
  101.79        2960.00           1356         101.00       408.46
  101.82        2960.25           1359         146.00       604.63
  101.85        2960.50           1362         185.00       774.65
  101.88        2960.75           1366         212.00       892.35
  101.91        2961.00           1369         259.00      1097.25
  101.94        2961.25           1372         297.00      1262.91
  101.97        2961.50           1376         378.00      1616.03
  102.01        2961.75           1379         624.00      2688.53
  102.04        2962.00           1382        1380.00      5984.95
  102.07        2962.25           1386        2944.00     12806.57
  102.10        2962.50           1389        4363.00     18998.18
  102.13        2962.75           1392        5708.00     24869.03
  102.16        2963.00           1396        7491.00     32654.91
  102.19        2963.25           1399        8853.00     38604.85
  102.22        2963.50           1402       10186.00     44430.15
  102.25        2963.75           1406       12120.00     52885.50
  102.28        2964.00           1409       13669.00     59660.74
  102.32        2964.25           1412       15155.00     66163.03
  102.35        2964.50           1416       17250.00     75334.41
  102.38        2964.75           1419       18552.00     81036.78
  102.41        2965.00           1422       20008.00     87415.96
  102.44        2965.25           1426       21873.00     95590.65
  102.47        2965.50           1429       23288.00    101795.60
  102.50        2965.75           1432       24718.00    108068.60
  102.53        2966.00           1436       26447.00    115656.50
  102.57        2966.25           1439       27798.00    121587.90
  102.60        2966.50           1442       28978.00    126770.20
  102.63        2966.75           1446       29882.00    130741.50
  102.66        2967.00           1449       30092.00    131664.20
  102.69        2967.25           1452       30346.00    132780.30
  102.72        2967.50           1456       30150.00    131919.10
  102.75        2967.75           1459       30127.00    131818.00
  102.78        2968.00           1462       29776.00    130275.80
  102.81        2968.25           1466       28693.00    125518.40
  102.85        2968.50           1469       27421.00    119932.50
  102.88        2968.75           1472       26322.00    115107.80
  102.91        2969.00           1476       24527.00    107230.60
  102.94        2969.25           1479       23164.00    101251.70
  102.97        2969.50           1482       21761.00     95099.61
  103.00        2969.75           1486       19899.00     86938.31
  103.03        2970.00           1489       18436.00     80528.66
  103.06        2970.25           1492       17063.00     74515.56
  103.09        2970.50           1496       15389.00     67187.16
  103.13        2970.75           1499       13852.00     60461.36
  103.16        2971.00           1502       12677.00     55321.47
  103.19        2971.25           1506       10562.00     46073.67
  103.22        2971.50           1509        9255.00     40361.40
  103.25        2971.75           1513        7435.00     32410.31
  103.28        2972.00           1516        5964.00     25986.69
  103.31        2972.25           1519        4669.00     20333.67
  103.34        2972.50           1523        2889.00     12566.64
  103.37        2972.75           1526        1680.00      7293.23
  103.41        2973.00           1529         655.00      2823.69
  103.44        2973.25           1533         356.00      1520.12
  103.47        2973.50           1536         279.00      1184.44
  103.50        2973.75           1539         228.00       962.10
  103.53        2974.00           1543         187.00       783.37
  103.56        2974.25           1546         135.00       556.68
  103.59        2974.50           1549         119.00       486.93
  103.62        2974.75           1553          75.00       295.12
  103.65        2975.00           1556          60.00       229.73
  103.68        2975.25           1559          56.00       212.29
  103.71        2975.50           1563          54.00       203.58
  103.75        2975.75           1566          49.00       181.78
  103.78        2976.00           1569          49.00       181.78
  103.81        2976.25           1573          57.00       216.65
  103.84        2976.50           1576          58.00       221.01
  103.87        2976.75           1579          45.00       164.34
  103.90        2977.00           1583          54.00       203.58
  103.93        2977.25           1586          55.00       207.94
  103.96        2977.50           1590          52.00       194.86
  104.00        2977.75           1593          57.00       216.65
  104.03        2978.00           1596          57.00       216.65
  104.06        2978.25           1600          45.00       164.34
  104.09        2978.50           1603          43.00       155.62
  104.12        2978.75           1606          51.00       190.50
  104.15        2979.00           1610          59.00       225.37
  104.18        2979.25           1613          43.00       155.62
  104.21        2979.50           1616          50.00       186.14
  104.24        2979.75           1620          52.00       194.86
  104.27        2980.00           1623          51.00       190.50
  104.31        2980.25           1626          57.00       216.65
  104.34        2980.50           1630          51.00       190.50
  104.37        2980.75           1633          53.00       199.22
  104.40        2981.00           1637          49.00       181.78
  104.43        2981.25           1640          47.00       173.06
  104.46        2981.50           1643          41.00       146.91
  104.49        2981.75           1647          54.00       203.58
  104.52        2982.00           1650          56.00       212.29
  104.55        2982.25           1653          50.00       186.14
  104.59        2982.50           1657          48.00       177.42
  104.62        2982.75           1660          47.00       173.06
  104.65        2983.00           1663          50.00       186.14
  104.68        2983.25           1667          48.00       177.42
  104.71        2983.50           1670          53.00       199.22
  104.74        2983.75           1673          49.00       181.78
  104.77        2984.00           1677          48.00       177.42
HS scan finished at 01:44:59
end
************************************************************
  HS Scan of (1) Internal mercury lamp
************************************************************
Integration time is 0.2294 seconds per sample
dh030718Manchester 53.47 2.23 3.018777pr1000
************************************************************
Dead Time -------------------------  3E-08 
Number of Cycles Used -------------  4 
Starting Wavelength (Angstroms) ---  2950 
Final Wavelength (Angstoms) -------  2984 
Wavelength Increment (Angstroms) --  .25 
Filter Wheel #1 Position ---------- (1) Ground quartz diffuser (ND=2.32)
Filter Wheel #2 Position ---------- (1) Neutral Density 0.494



************************************************************
HS scan start time = 21:42:05
Dark Count =  4.5 


Time (GMT)  Wavelength (Ang)  Step Number  Raw Counts  Counts/Second

 1302.45        2950.00           1222          58.00       233.22
 1302.52        2950.25           1226          52.00       207.06
 1302.55        2950.50           1229          51.00       202.70
 1302.58        2950.75           1232          50.00       198.34
 1302.61        2951.00           1236          50.00       198.34
 1302.64        2951.25           1239          54.00       215.78
 1302.67        2951.50           1242          56.00       224.50
 1302.70        2951.75           1246          62.00       250.66
 1302.73        2952.00           1249          61.00       246.30
 1302.77        2952.25           1252          58.00       233.22
 1302.80        2952.50           1256          45.00       176.55
 1302.83        2952.75           1259          58.00       233.22
 1302.86        2953.00           1262          60.00       241.94
 1302.89        2953.25           1266          65.00       263.73
 1302.92        2953.50           1269          59.00       237.58
 1302.95        2953.75           1272          54.00       215.78
 1302.98        2954.00           1276          56.00       224.50
 1303.01        2954.25           1279          58.00       233.22
 1303.04        2954.50           1282          57.00       228.86
 1303.07        2954.75           1286          48.00       189.63
 1303.11        2955.00           1289          54.00       215.78
 1303.14        2955.25           1292          55.00       220.14
 1303.17        2955.50           1296          57.00       228.86
 1303.20        2955.75           1299          55.00       220.14
 1303.23        2956.00           1302          67.00       272.45
 1303.26        2956.25           1306          59.00       237.58
 1303.29        2956.50           1309          58.00       233.22
 1303.32        2956.75           1312          56.00       224.50
 1303.35        2957.00           1316          54.00       215.78
 1303.38        2957.25           1319          54.00       215.78
 1303.41        2957.50           1322          53.00       211.42
 1303.44        2957.75           1326          53.00       211.42
 1303.47        2958.00           1329          57.00       228.86
 1303.51        2958.25           1332          62.00       250.66
 1303.54        2958.50           1336          60.00       241.94
 1303.57        2958.75           1339          56.00       224.50
 1303.60        2959.00           1342          55.00       220.14
 1303.63        2959.25           1346          62.00       250.66
 1303.66        2959.50           1349          69.00       281.17
 1303.69        2959.75           1352          83.00       342.20
 1303.72        2960.00           1356         109.00       455.54
 1303.75        2960.25           1359         149.00       629.92
 1303.78        2960.50           1362         172.00       730.18
 1303.81        2960.75           1366         207.00       882.76
 1303.85        2961.00           1369         284.00      1218.44
 1303.88        2961.25           1372         314.00      1349.23
 1303.91        2961.50           1376         396.00      1706.71
 1303.94        2961.75           1379         576.00      2491.47
 1303.97        2962.00           1382        1228.00      5334.33
 1304.00        2962.25           1386        2959.00     12884.23
 1304.03        2962.50           1389        4550.00     19826.52
 1304.06        2962.75           1392        6077.00     26492.28
 1304.09        2963.00           1396        7959.00     34711.37
 1304.12        2963.25           1399        9392.00     40972.30
 1304.16        2963.50           1402       10889.00     47515.38
 1304.19        2963.75           1406       12844.00     56064.14
 1304.22        2964.00           1409       14364.00     62713.78
 1304.25        2964.25           1412       15758.00     68814.55
 1304.28        2964.50           1416       17966.00     78482.30
 1304.31        2964.75           1419       19270.00     84194.52
 1304.34        2965.00           1422       20835.00     91052.65
 1304.37        2965.25           1426       23076.00    100878.10
 1304.40        2965.50           1429       24640.00    107738.70
 1304.43        2965.75           1432       26235.00    114738.20
 1304.47        2966.00           1436       28041.00    122667.20
 1304.50        2966.25           1439       29504.00    129093.10
 1304.53        2966.50           1442       31069.00    135969.80
 1304.56        2966.75           1446       32514.00    142321.70
 1304.59        2967.00           1449       32602.00    142708.60
 1304.62        2967.25           1452       32845.00    143777.10
 1304.65        2967.50           1456       32866.00    143869.40
 1304.68        2967.75           1459       32834.00    143728.70
 1304.71        2968.00           1462       32804.00    143596.80
 1304.74        2968.25           1466       31852.00    139411.40
 1304.78        2968.50           1469       30588.00    133856.00
 1304.81        2968.75           1472       29086.00    127256.90
 1304.84        2969.00           1476       27058.00    118351.00
 1304.87        2969.25           1479       25632.00    112091.60
 1304.90        2969.50           1482       24267.00    106102.20
 1304.93        2969.75           1486       22176.00     96931.42
 1304.96        2970.00           1489       20719.00     90544.22
 1304.99        2970.25           1492       19230.00     84019.27
 1305.02        2970.50           1496       17264.00     75407.99
 1305.05        2970.75           1499       15615.00     68188.61
 1305.09        2971.00           1502       14097.00     61545.53
 1305.12        2971.25           1506       12120.00     52897.74
 1305.15        2971.50           1509       10429.00     45504.54
 1305.18        2971.75           1513        8491.00     37035.46
 1305.21        2972.00           1516        7010.00     30566.38
 1305.24        2972.25           1519        5348.00     23309.67
 1305.27        2972.50           1523        3451.00     15030.75
 1305.30        2972.75           1526        2073.00      9019.44
 1305.33        2973.00           1529         889.00      3856.16
 1305.36        2973.25           1533         400.00      1724.15
 1305.40        2973.50           1536         329.00      1414.62
 1305.43        2973.75           1539         270.00      1157.41
 1305.46        2974.00           1543         225.00       961.23
 1305.49        2974.25           1546         171.00       725.82
 1305.52        2974.50           1549         132.00       555.81
 1305.55        2974.75           1553          94.00       390.15
 1305.58        2975.00           1556          72.00       294.25
 1305.61        2975.25           1559          59.00       237.58
 1305.64        2975.50           1563          51.00       202.70
 1305.67        2975.75           1566          57.00       228.86
 1305.70        2976.00           1569          52.00       207.06
 1305.74        2976.25           1573          55.00       220.14
 1305.77        2976.50           1576          50.00       198.34
 1305.80        2976.75           1579          55.00       220.14
 1305.83        2977.00           1583          53.00       211.42
 1305.86        2977.25           1586          52.00       207.06
 1305.89        2977.50           1590          52.00       207.06
 1305.92        2977.75           1593          51.00       202.70
 1305.95        2978.00           1596          48.00       189.63
 1305.98        2978.25           1600          60.00       241.94
 1306.02        2978.50           1603          54.00       215.78
 1306.05        2978.75           1606          51.00       202.70
 1306.08        2979.00           1610          55.00       220.14
 1306.11        2979.25           1613          53.00       211.42
 1306.14        2979.50           1616          56.00       224.50
 1306.17        2979.75           1620          53.00       211.42
 1306.20        2980.00           1623          44.00       172.19
 1306.23        2980.25           1626          49.00       193.99
 1306.26        2980.50           1630          46.00       180.91
 1306.29        2980.75           1633          51.00       202.70
 1306.32        2981.00           1637          58.00       233.22
 1306.35        2981.25           1640          52.00       207.06
 1306.39        2981.50           1643          44.00       172.19
 1306.42        2981.75           1647          52.00       207.06
 1306.45        2982.00           1650          51.00       202.70
 1306.48        2982.25           1653          56.00       224.50
 1306.51        2982.50           1657          50.00       198.34
 1306.54        2982.75           1660          56.00       224.50
 1306.57        2983.00           1663          61.00       246.30
 1306.60        2983.25           1667          51.00       202.70
 1306.63        2983.50           1670          49.00       193.99
 1306.67        2983.75           1673          51.00       202.70
 1306.70        2984.00           1677          61.00       246.30
HS scan finished at 21:46:55
end
