************************************************************
  HS Scan of (1) Internal mercury lamp
************************************************************
Integration time is 0.2294 seconds per sample
dh080717Manchester 53.47 2.23 2.804185pr1000
************************************************************
Dead Time -------------------------  3E-08 
Number of Cycles Used -------------  4 
Starting Wavelength (Angstroms) ---  2950 
Final Wavelength (Angstoms) -------  2984 
Wavelength Increment (Angstroms) --  .25 
Filter Wheel #1 Position ---------- (1) Ground quartz diffuser (ND=2.32)
Filter Wheel #2 Position ---------- (1) Neutral Density 0.494



************************************************************
HS scan start time = 01:30:28
Dark Count =  7.2 


Time (GMT)  Wavelength (Ang)  Step Number  Raw Counts  Counts/Second

   90.84        2950.00           1222          40.00       142.98
   90.90        2950.25           1226          37.00       129.90
   90.93        2950.50           1229          51.00       190.93
   90.96        2950.75           1232          44.00       160.42
   91.00        2951.00           1236          47.00       173.50
   91.03        2951.25           1239          48.00       177.86
   91.06        2951.50           1242          45.00       164.78
   91.09        2951.75           1246          42.00       151.70
   91.12        2952.00           1249          42.00       151.70
   91.15        2952.25           1252          41.00       147.34
   91.18        2952.50           1256          43.00       156.06
   91.21        2952.75           1259          40.00       142.98
   91.24        2953.00           1262          39.00       138.62
   91.27        2953.25           1266          47.00       173.50
   91.31        2953.50           1269          51.00       190.93
   91.34        2953.75           1272          42.00       151.70
   91.37        2954.00           1276          42.00       151.70
   91.40        2954.25           1279          47.00       173.50
   91.43        2954.50           1282          38.00       134.26
   91.46        2954.75           1286          40.00       142.98
   91.49        2955.00           1289          46.00       169.14
   91.52        2955.25           1292          43.00       156.06
   91.55        2955.50           1296          44.00       160.42
   91.58        2955.75           1299          46.00       169.14
   91.61        2956.00           1302          41.00       147.34
   91.65        2956.25           1306          46.00       169.14
   91.68        2956.50           1309          39.00       138.62
   91.71        2956.75           1312          46.00       169.14
   91.74        2957.00           1316          51.00       190.93
   91.77        2957.25           1319          41.00       147.34
   91.80        2957.50           1322          44.00       160.42
   91.83        2957.75           1326          37.00       129.90
   91.86        2958.00           1329          46.00       169.14
   91.89        2958.25           1332          49.00       182.22
   91.92        2958.50           1336          45.00       164.78
   91.95        2958.75           1339          39.00       138.62
   91.99        2959.00           1342          45.00       164.78
   92.02        2959.25           1346          49.00       182.22
   92.05        2959.50           1349          55.00       208.37
   92.08        2959.75           1352          74.00       291.20
   92.11        2960.00           1356         114.00       465.57
   92.14        2960.25           1359         154.00       639.94
   92.17        2960.50           1362         197.00       827.40
   92.20        2960.75           1366         246.00      1041.01
   92.23        2961.00           1369         273.00      1158.72
   92.26        2961.25           1372         335.00      1429.01
   92.29        2961.50           1376         455.00      1952.16
   92.33        2961.75           1379         774.00      3342.97
   92.36        2962.00           1382        1585.00      6879.36
   92.39        2962.25           1386        3623.00     15769.45
   92.42        2962.50           1389        5252.00     22878.82
   92.45        2962.75           1392        6780.00     29550.16
   92.48        2963.00           1396        8992.00     39212.63
   92.51        2963.25           1399       10560.00     46065.36
   92.54        2963.50           1402       12126.00     52912.17
   92.57        2963.75           1406       14523.00     63397.71
   92.60        2964.00           1409       15946.00     69625.66
   92.64        2964.25           1412       17872.00     78058.78
   92.67        2964.50           1416       19992.00     87346.28
   92.70        2964.75           1419       21760.00     95095.68
   92.73        2965.00           1422       23497.00    102712.70
   92.76        2965.25           1426       25863.00    113093.60
   92.79        2965.50           1429       27513.00    120336.90
   92.82        2965.75           1432       29272.00    128062.10
   92.85        2966.00           1436       31274.00    136858.90
   92.88        2966.25           1439       32888.00    143954.30
   92.92        2966.50           1442       34232.00    149865.00
   92.95        2966.75           1446       35381.00    154919.80
   92.98        2967.00           1449       35890.00    157159.50
   93.01        2967.25           1452       35852.00    156992.30
   93.04        2967.50           1456       36037.00    157806.40
   93.07        2967.75           1459       35818.00    156842.60
   93.10        2968.00           1462       35598.00    155874.60
   93.13        2968.25           1466       34355.00    150406.00
   93.16        2968.50           1469       32816.00    143637.70
   93.19        2968.75           1472       31298.00    136964.40
   93.23        2969.00           1476       29257.00    127996.20
   93.26        2969.25           1479       27792.00    121562.00
   93.29        2969.50           1482       26036.00    113852.90
   93.32        2969.75           1486       23717.00    103677.70
   93.35        2970.00           1489       22187.00     96967.81
   93.38        2970.25           1492       20650.00     90229.97
   93.41        2970.50           1496       18173.00     79377.12
   93.44        2970.75           1499       16766.00     73215.57
   93.47        2971.00           1502       14955.00     65288.17
   93.50        2971.25           1506       12553.00     54779.58
   93.54        2971.50           1509       10862.00     47385.54
   93.57        2971.75           1513        8784.00     38303.80
   93.60        2972.00           1516        7138.00     31113.60
   93.63        2972.25           1519        5490.00     23917.76
   93.66        2972.50           1523        3388.00     14744.10
   93.69        2972.75           1526        1943.00      8440.67
   93.72        2973.00           1529         909.00      3931.59
   93.75        2973.25           1533         424.00      1817.01
   93.78        2973.50           1536         321.00      1367.97
   93.81        2973.75           1539         253.00      1071.53
   93.84        2974.00           1543         208.00       875.35
   93.88        2974.25           1546         154.00       639.94
   93.91        2974.50           1549         116.00       474.29
   93.94        2974.75           1553          72.00       282.48
   93.97        2975.00           1556          62.00       238.89
   94.00        2975.25           1559          40.00       142.98
   94.03        2975.50           1563          45.00       164.78
   94.06        2975.75           1566          49.00       182.22
   94.09        2976.00           1569          46.00       169.14
   94.12        2976.25           1573          42.00       151.70
   94.15        2976.50           1576          48.00       177.86
   94.18        2976.75           1579          42.00       151.70
   94.21        2977.00           1583          43.00       156.06
   94.24        2977.25           1586          37.00       129.90
   94.27        2977.50           1590          41.00       147.34
   94.30        2977.75           1593          43.00       156.06
   94.34        2978.00           1596          43.00       156.06
   94.37        2978.25           1600          41.00       147.34
   94.40        2978.50           1603          40.00       142.98
   94.43        2978.75           1606          40.00       142.98
   94.46        2979.00           1610          41.00       147.34
   94.49        2979.25           1613          40.00       142.98
   94.52        2979.50           1616          38.00       134.26
   94.55        2979.75           1620          43.00       156.06
   94.58        2980.00           1623          44.00       160.42
   94.61        2980.25           1626          41.00       147.34
   94.64        2980.50           1630          48.00       177.86
   94.67        2980.75           1633          42.00       151.70
   94.70        2981.00           1637          43.00       156.06
   94.73        2981.25           1640          38.00       134.26
   94.77        2981.50           1643          39.00       138.62
   94.80        2981.75           1647          34.00       116.83
   94.83        2982.00           1650          40.00       142.98
   94.86        2982.25           1653          51.00       190.93
   94.89        2982.50           1657          40.00       142.98
   94.92        2982.75           1660          42.00       151.70
   94.95        2983.00           1663          39.00       138.62
   94.98        2983.25           1667          41.00       147.34
   95.01        2983.50           1670          40.00       142.98
   95.04        2983.75           1673          40.00       142.98
   95.07        2984.00           1677          42.00       151.70
HS scan finished at 01:35:17
end
************************************************************
  HS Scan of (1) Internal mercury lamp
************************************************************
Integration time is 0.2294 seconds per sample
dh080717Manchester 53.47 2.23 2.965129pr1000
************************************************************
Dead Time -------------------------  3E-08 
Number of Cycles Used -------------  4 
Starting Wavelength (Angstroms) ---  2950 
Final Wavelength (Angstoms) -------  2984 
Wavelength Increment (Angstroms) --  .25 
Filter Wheel #1 Position ---------- (1) Ground quartz diffuser (ND=2.32)
Filter Wheel #2 Position ---------- (1) Neutral Density 0.494



************************************************************
HS scan start time = 21:43:17
Dark Count =  5.4 


Time (GMT)  Wavelength (Ang)  Step Number  Raw Counts  Counts/Second

 1303.65        2950.00           1222          42.00       159.55
 1303.72        2950.25           1226          39.00       146.47
 1303.75        2950.50           1229          39.00       146.47
 1303.78        2950.75           1232          38.00       142.11
 1303.81        2951.00           1236          37.00       137.75
 1303.84        2951.25           1239          40.00       150.83
 1303.87        2951.50           1242          39.00       146.47
 1303.90        2951.75           1246          46.00       176.98
 1303.93        2952.00           1249          45.00       172.63
 1303.96        2952.25           1252          44.00       168.27
 1303.99        2952.50           1256          41.00       155.19
 1304.03        2952.75           1259          39.00       146.47
 1304.06        2953.00           1262          42.00       159.55
 1304.09        2953.25           1266          44.00       168.27
 1304.12        2953.50           1269          46.00       176.98
 1304.15        2953.75           1272          43.00       163.91
 1304.18        2954.00           1276          48.00       185.70
 1304.21        2954.25           1279          38.00       142.11
 1304.24        2954.50           1282          44.00       168.27
 1304.27        2954.75           1286          42.00       159.55
 1304.30        2955.00           1289          43.00       163.91
 1304.33        2955.25           1292          48.00       185.70
 1304.36        2955.50           1296          45.00       172.63
 1304.39        2955.75           1299          51.00       198.78
 1304.43        2956.00           1302          43.00       163.91
 1304.46        2956.25           1306          49.00       190.06
 1304.49        2956.50           1309          40.00       150.83
 1304.52        2956.75           1312          42.00       159.55
 1304.55        2957.00           1316          36.00       133.39
 1304.58        2957.25           1319          42.00       159.55
 1304.61        2957.50           1322          43.00       163.91
 1304.64        2957.75           1326          34.00       124.67
 1304.67        2958.00           1329          46.00       176.98
 1304.70        2958.25           1332          48.00       185.70
 1304.73        2958.50           1336          50.00       194.42
 1304.76        2958.75           1339          41.00       155.19
 1304.79        2959.00           1342          48.00       185.70
 1304.82        2959.25           1346          39.00       146.47
 1304.85        2959.50           1349          48.00       185.70
 1304.89        2959.75           1352          63.00       251.09
 1304.92        2960.00           1356         110.00       455.98
 1304.95        2960.25           1359         131.00       547.52
 1304.98        2960.50           1362         172.00       726.26
 1305.01        2960.75           1366         210.00       891.92
 1305.04        2961.00           1369         268.00      1144.76
 1305.07        2961.25           1372         316.00      1354.02
 1305.10        2961.50           1376         403.00      1733.31
 1305.13        2961.75           1379         523.00      2256.47
 1305.16        2962.00           1382         938.00      4065.88
 1305.19        2962.25           1386        2554.00     11113.56
 1305.22        2962.50           1389        3974.00     17308.90
 1305.25        2962.75           1392        5684.00     24772.55
 1305.29        2963.00           1396        8077.00     35222.90
 1305.32        2963.25           1399        9697.00     42301.25
 1305.35        2963.50           1402       11586.00     50558.75
 1305.38        2963.75           1406       14064.00     61397.20
 1305.41        2964.00           1409       15780.00     68906.90
 1305.44        2964.25           1412       17728.00     77436.00
 1305.47        2964.50           1416       20010.00     87433.04
 1305.50        2964.75           1419       22017.00     96230.33
 1305.53        2965.00           1422       23528.00    102856.60
 1305.56        2965.25           1426       25875.00    113154.20
 1305.59        2965.50           1429       27909.00    122083.60
 1305.62        2965.75           1432       29621.00    129603.20
 1305.65        2966.00           1436       31871.00    139491.00
 1305.69        2966.25           1439       33390.00    146169.70
 1305.72        2966.50           1442       34932.00    152952.20
 1305.75        2966.75           1446       36922.00    161709.40
 1305.78        2967.00           1449       37812.00    165627.40
 1305.81        2967.25           1452       38188.00    167282.90
 1305.84        2967.50           1456       38137.00    167058.40
 1305.87        2967.75           1459       37985.00    166389.10
 1305.90        2968.00           1462       38060.00    166719.30
 1305.93        2968.25           1466       37328.00    163496.60
 1305.96        2968.50           1469       35971.00    157523.80
 1305.99        2968.75           1472       34308.00    150207.20
 1306.03        2969.00           1476       32185.00    140871.30
 1306.06        2969.25           1479       30510.00    133509.30
 1306.09        2969.50           1482       28770.00    125865.00
 1306.12        2969.75           1486       26462.00    115730.70
 1306.15        2970.00           1489       24843.00    108625.40
 1306.18        2970.25           1492       22933.00    100247.00
 1306.21        2970.50           1496       20566.00     89869.69
 1306.24        2970.75           1499       18742.00     81877.41
 1306.27        2971.00           1502       17009.00     74287.43
 1306.30        2971.25           1506       14644.00     63935.07
 1306.33        2971.50           1509       12874.00     56191.42
 1306.36        2971.75           1513       10586.00     46186.88
 1306.40        2972.00           1516        8948.00     39028.24
 1306.43        2972.25           1519        7215.00     31457.75
 1306.46        2972.50           1523        5008.00     21821.60
 1306.49        2972.75           1526        3333.00     14511.99
 1306.52        2973.00           1529        1763.00      7663.49
 1306.55        2973.25           1533         581.00      2509.34
 1306.58        2973.50           1536         370.00      1589.44
 1306.61        2973.75           1539         322.00      1380.18
 1306.64        2974.00           1543         274.00      1170.92
 1306.67        2974.25           1546         202.00       857.04
 1306.70        2974.50           1549         148.00       621.63
 1306.73        2974.75           1553          97.00       399.31
 1306.77        2975.00           1556          74.00       299.04
 1306.80        2975.25           1559          62.00       246.73
 1306.83        2975.50           1563          47.00       181.34
 1306.86        2975.75           1566          45.00       172.63
 1306.89        2976.00           1569          42.00       159.55
 1306.92        2976.25           1573          40.00       150.83
 1306.95        2976.50           1576          40.00       150.83
 1306.98        2976.75           1579          48.00       185.70
 1307.01        2977.00           1583          47.00       181.34
 1307.04        2977.25           1586          43.00       163.91
 1307.07        2977.50           1590          44.00       168.27
 1307.11        2977.75           1593          48.00       185.70
 1307.14        2978.00           1596          44.00       168.27
 1307.17        2978.25           1600          45.00       172.63
 1307.20        2978.50           1603          44.00       168.27
 1307.23        2978.75           1606          42.00       159.55
 1307.26        2979.00           1610          43.00       163.91
 1307.29        2979.25           1613          43.00       163.91
 1307.32        2979.50           1616          42.00       159.55
 1307.35        2979.75           1620          43.00       163.91
 1307.38        2980.00           1623          39.00       146.47
 1307.41        2980.25           1626          44.00       168.27
 1307.44        2980.50           1630          39.00       146.47
 1307.47        2980.75           1633          44.00       168.27
 1307.50        2981.00           1637          39.00       146.47
 1307.53        2981.25           1640          44.00       168.27
 1307.57        2981.50           1643          40.00       150.83
 1307.60        2981.75           1647          43.00       163.91
 1307.63        2982.00           1650          37.00       137.75
 1307.66        2982.25           1653          37.00       137.75
 1307.69        2982.50           1657          38.00       142.11
 1307.72        2982.75           1660          35.00       129.03
 1307.75        2983.00           1663          44.00       168.27
 1307.78        2983.25           1667          32.00       115.96
 1307.81        2983.50           1670          35.00       129.03
 1307.84        2983.75           1673          40.00       150.83
 1307.87        2984.00           1677          38.00       142.11
HS scan finished at 21:48:05
end
