************************************************************
  HS Scan of (1) Internal mercury lamp
************************************************************
Integration time is 0.2294 seconds per sample
dh300617Manchester 53.47 2.23 2.857833pr1000
************************************************************
Dead Time -------------------------  3E-08 
Number of Cycles Used -------------  4 
Starting Wavelength (Angstroms) ---  2950 
Final Wavelength (Angstoms) -------  2984 
Wavelength Increment (Angstroms) --  .25 
Filter Wheel #1 Position ---------- (1) Ground quartz diffuser (ND=2.32)
Filter Wheel #2 Position ---------- (1) Neutral Density 0.494



************************************************************
HS scan start time = 01:27:10
Dark Count =  6.5 


Time (GMT)  Wavelength (Ang)  Step Number  Raw Counts  Counts/Second

   87.54        2950.00           1222          45.00       167.83
   87.60        2950.25           1226          47.00       176.55
   87.63        2950.50           1229          46.00       172.19
   87.66        2950.75           1232          44.00       163.47
   87.69        2951.00           1236          43.00       159.11
   87.72        2951.25           1239          39.00       141.67
   87.76        2951.50           1242          41.00       150.39
   87.79        2951.75           1246          50.00       189.63
   87.82        2952.00           1249          50.00       189.63
   87.85        2952.25           1252          43.00       159.11
   87.88        2952.50           1256          45.00       167.83
   87.91        2952.75           1259          45.00       167.83
   87.94        2953.00           1262          44.00       163.47
   87.97        2953.25           1266          39.00       141.67
   88.00        2953.50           1269          43.00       159.11
   88.03        2953.75           1272          41.00       150.39
   88.07        2954.00           1276          45.00       167.83
   88.10        2954.25           1279          44.00       163.47
   88.13        2954.50           1282          39.00       141.67
   88.16        2954.75           1286          50.00       189.63
   88.19        2955.00           1289          46.00       172.19
   88.22        2955.25           1292          45.00       167.83
   88.25        2955.50           1296          44.00       163.47
   88.28        2955.75           1299          46.00       172.19
   88.31        2956.00           1302          49.00       185.27
   88.34        2956.25           1306          45.00       167.83
   88.37        2956.50           1309          49.00       185.27
   88.40        2956.75           1312          45.00       167.83
   88.43        2957.00           1316          43.00       159.11
   88.47        2957.25           1319          42.00       154.75
   88.50        2957.50           1322          37.00       132.96
   88.53        2957.75           1326          39.00       141.67
   88.56        2958.00           1329          46.00       172.19
   88.59        2958.25           1332          37.00       132.96
   88.62        2958.50           1336          44.00       163.47
   88.65        2958.75           1339          45.00       167.83
   88.68        2959.00           1342          40.00       146.03
   88.71        2959.25           1346          48.00       180.91
   88.74        2959.50           1349          46.00       172.19
   88.78        2959.75           1352          66.00       259.37
   88.81        2960.00           1356          87.00       350.92
   88.84        2960.25           1359         117.00       481.70
   88.87        2960.50           1362         167.00       699.67
   88.90        2960.75           1366         207.00       874.04
   88.93        2961.00           1369         268.00      1139.97
   88.96        2961.25           1372         322.00      1375.38
   88.99        2961.50           1376         396.00      1697.99
   89.02        2961.75           1379         563.00      2426.07
   89.05        2962.00           1382        1130.00      4898.28
   89.09        2962.25           1386        2692.00     11710.74
   89.12        2962.50           1389        4243.00     18477.98
   89.15        2962.75           1392        5913.00     25767.51
   89.18        2963.00           1396        8201.00     35759.79
   89.21        2963.25           1399       10088.00     44005.32
   89.24        2963.50           1402       11851.00     51712.69
   89.27        2963.75           1406       14059.00     61370.52
   89.30        2964.00           1409       15824.00     69094.69
   89.33        2964.25           1412       17583.00     76796.18
   89.36        2964.50           1416       19882.00     86867.32
   89.40        2964.75           1419       21610.00     94441.14
   89.43        2965.00           1422       23412.00    102343.00
   89.46        2965.25           1426       25673.00    112262.80
   89.49        2965.50           1429       27632.00    120862.50
   89.52        2965.75           1432       29333.00    128333.20
   89.55        2966.00           1436       31639.00    138466.30
   89.58        2966.25           1439       33158.00    145144.60
   89.61        2966.50           1442       34733.00    152071.90
   89.64        2966.75           1446       36337.00    159129.70
   89.68        2967.00           1449       37167.00    162783.00
   89.71        2967.25           1452       37417.00    163883.50
   89.74        2967.50           1456       37136.00    162646.50
   89.77        2967.75           1459       37209.00    162967.90
   89.80        2968.00           1462       37156.00    162734.60
   89.83        2968.25           1466       36372.00    159283.80
   89.86        2968.50           1469       35124.00    153792.10
   89.89        2968.75           1472       33407.00    146239.60
   89.92        2969.00           1476       31163.00    136374.20
   89.95        2969.25           1479       29679.00    129853.20
   89.98        2969.50           1482       27775.00    121490.40
   90.02        2969.75           1486       25421.00    111156.90
   90.05        2970.00           1489       23770.00    103913.20
   90.08        2970.25           1492       22170.00     96896.34
   90.11        2970.50           1496       19958.00     87200.35
   90.14        2970.75           1499       18411.00     80422.66
   90.17        2971.00           1502       16653.00     72723.88
   90.20        2971.25           1506       14360.00     62687.53
   90.23        2971.50           1509       12629.00     55115.04
   90.26        2971.75           1513       10348.00     45141.74
   90.29        2972.00           1516        8554.00     37301.97
   90.32        2972.25           1519        6858.00     29893.84
   90.36        2972.50           1523        4573.00     19918.18
   90.39        2972.75           1526        2981.00     12971.48
   90.42        2973.00           1529        1658.00      7200.77
   90.45        2973.25           1533         612.00      2639.70
   90.48        2973.50           1536         383.00      1641.32
   90.51        2973.75           1539         338.00      1445.14
   90.54        2974.00           1543         260.00      1105.09
   90.57        2974.25           1546         195.00       821.73
   90.60        2974.50           1549         153.00       638.63
   90.63        2974.75           1553         100.00       407.59
   90.66        2975.00           1556          72.00       285.53
   90.69        2975.25           1559          65.00       255.02
   90.72        2975.50           1563          52.00       198.34
   90.76        2975.75           1566          50.00       189.63
   90.79        2976.00           1569          44.00       163.47
   90.82        2976.25           1573          42.00       154.75
   90.85        2976.50           1576          43.00       159.11
   90.88        2976.75           1579          43.00       159.11
   90.91        2977.00           1583          43.00       159.11
   90.94        2977.25           1586          46.00       172.19
   90.97        2977.50           1590          43.00       159.11
   91.00        2977.75           1593          47.00       176.55
   91.04        2978.00           1596          51.00       193.99
   91.07        2978.25           1600          40.00       146.03
   91.10        2978.50           1603          49.00       185.27
   91.13        2978.75           1606          45.00       167.83
   91.16        2979.00           1610          48.00       180.91
   91.19        2979.25           1613          36.00       128.60
   91.22        2979.50           1616          43.00       159.11
   91.25        2979.75           1620          58.00       224.50
   91.28        2980.00           1623          39.00       141.67
   91.31        2980.25           1626          42.00       154.75
   91.34        2980.50           1630          42.00       154.75
   91.38        2980.75           1633          45.00       167.83
   91.41        2981.00           1637          44.00       163.47
   91.44        2981.25           1640          39.00       141.67
   91.47        2981.50           1643          39.00       141.67
   91.50        2981.75           1647          38.00       137.32
   91.53        2982.00           1650          45.00       167.83
   91.56        2982.25           1653          47.00       176.55
   91.59        2982.50           1657          36.00       128.60
   91.62        2982.75           1660          38.00       137.32
   91.65        2983.00           1663          43.00       159.11
   91.68        2983.25           1667          45.00       167.83
   91.72        2983.50           1670          38.00       137.32
   91.75        2983.75           1673          45.00       167.83
   91.78        2984.00           1677          49.00       185.27
HS scan finished at 01:32:00
end
************************************************************
  HS Scan of (1) Internal mercury lamp
************************************************************
Integration time is 0.2294 seconds per sample
dh300617Manchester 53.47 2.23 2.857833pr1000
************************************************************
Dead Time -------------------------  3E-08 
Number of Cycles Used -------------  4 
Starting Wavelength (Angstroms) ---  2950 
Final Wavelength (Angstoms) -------  2984 
Wavelength Increment (Angstroms) --  .25 
Filter Wheel #1 Position ---------- (1) Ground quartz diffuser (ND=2.32)
Filter Wheel #2 Position ---------- (1) Neutral Density 0.494



************************************************************
HS scan start time = 21:42:00
Dark Count =  5.5 


Time (GMT)  Wavelength (Ang)  Step Number  Raw Counts  Counts/Second

 1302.37        2950.00           1222          40.00       150.39
 1302.44        2950.25           1226          38.00       141.67
 1302.47        2950.50           1229          38.00       141.67
 1302.50        2950.75           1232          43.00       163.47
 1302.53        2951.00           1236          43.00       163.47
 1302.56        2951.25           1239          45.00       172.19
 1302.59        2951.50           1242          42.00       159.11
 1302.62        2951.75           1246          41.00       154.75
 1302.65        2952.00           1249          48.00       185.27
 1302.68        2952.25           1252          46.00       176.55
 1302.71        2952.50           1256          49.00       189.63
 1302.74        2952.75           1259          41.00       154.75
 1302.78        2953.00           1262          47.00       180.91
 1302.81        2953.25           1266          39.00       146.03
 1302.84        2953.50           1269          43.00       163.47
 1302.87        2953.75           1272          52.00       202.70
 1302.90        2954.00           1276          45.00       172.19
 1302.93        2954.25           1279          44.00       167.83
 1302.96        2954.50           1282          46.00       176.55
 1302.99        2954.75           1286          48.00       185.27
 1303.02        2955.00           1289          41.00       154.75
 1303.05        2955.25           1292          39.00       146.03
 1303.08        2955.50           1296          49.00       189.63
 1303.12        2955.75           1299          47.00       180.91
 1303.15        2956.00           1302          43.00       163.47
 1303.18        2956.25           1306          45.00       172.19
 1303.21        2956.50           1309          45.00       172.19
 1303.24        2956.75           1312          38.00       141.67
 1303.27        2957.00           1316          47.00       180.91
 1303.30        2957.25           1319          41.00       154.75
 1303.33        2957.50           1322          45.00       172.19
 1303.36        2957.75           1326          45.00       172.19
 1303.39        2958.00           1329          41.00       154.75
 1303.43        2958.25           1332          44.00       167.83
 1303.46        2958.50           1336          42.00       159.11
 1303.49        2958.75           1339          40.00       150.39
 1303.52        2959.00           1342          45.00       172.19
 1303.55        2959.25           1346          42.00       159.11
 1303.58        2959.50           1349          63.00       250.66
 1303.61        2959.75           1352          90.00       368.36
 1303.64        2960.00           1356         128.00       534.01
 1303.67        2960.25           1359         173.00       730.18
 1303.70        2960.50           1362         211.00       895.84
 1303.73        2960.75           1366         256.00      1092.01
 1303.76        2961.00           1369         309.00      1323.07
 1303.80        2961.25           1372         348.00      1493.09
 1303.83        2961.50           1376         431.00      1854.94
 1303.86        2961.75           1379         621.00      2683.30
 1303.89        2962.00           1382        1118.00      4850.31
 1303.92        2962.25           1386        2822.00     12282.21
 1303.95        2962.50           1389        4227.00     18412.52
 1303.98        2962.75           1392        6042.00     26335.10
 1304.01        2963.00           1396        8233.00     35903.95
 1304.04        2963.25           1399        9820.00     42838.37
 1304.07        2963.50           1402       11677.00     50956.21
 1304.11        2963.75           1406       14028.00     61239.26
 1304.14        2964.00           1409       15601.00     68122.96
 1304.17        2964.25           1412       17467.00     76292.56
 1304.20        2964.50           1416       19755.00     86315.21
 1304.23        2964.75           1419       21430.00     93656.42
 1304.26        2965.00           1422       23381.00    102211.40
 1304.29        2965.25           1426       25637.00    112109.20
 1304.32        2965.50           1429       27352.00    119637.40
 1304.35        2965.75           1432       28940.00    126611.20
 1304.38        2966.00           1436       31224.00    136646.70
 1304.41        2966.25           1439       32687.00    143077.90
 1304.45        2966.50           1442       34554.00    151288.90
 1304.48        2966.75           1446       36276.00    158865.60
 1304.51        2967.00           1449       36996.00    162034.70
 1304.54        2967.25           1452       37330.00    163504.90
 1304.57        2967.50           1456       37343.00    163562.20
 1304.60        2967.75           1459       37323.00    163474.10
 1304.63        2968.00           1462       37155.00    162734.60
 1304.66        2968.25           1466       36245.00    158729.20
 1304.69        2968.50           1469       34980.00    153162.90
 1304.72        2968.75           1472       33234.00    145483.20
 1304.75        2969.00           1476       31029.00    135789.60
 1304.79        2969.25           1479       29598.00    129501.70
 1304.82        2969.50           1482       27803.00    121617.70
 1304.85        2969.75           1486       25356.00    110876.00
 1304.88        2970.00           1489       23783.00    103974.70
 1304.91        2970.25           1492       21994.00     96129.06
 1304.94        2970.50           1496       19727.00     86192.51
 1304.97        2970.75           1499       18049.00     78841.46
 1305.00        2971.00           1502       16501.00     72062.78
 1305.03        2971.25           1506       14187.00     61934.94
 1305.06        2971.50           1509       12499.00     54550.84
 1305.10        2971.75           1513       10389.00     45325.32
 1305.13        2972.00           1516        8676.00     37839.36
 1305.16        2972.25           1519        6867.00     29937.51
 1305.19        2972.50           1523        4831.00     21048.60
 1305.22        2972.75           1526        3143.00     13682.60
 1305.25        2973.00           1529        1638.00      7117.91
 1305.28        2973.25           1533         562.00      2426.07
 1305.31        2973.50           1536         326.00      1397.18
 1305.34        2973.75           1539         277.00      1183.56
 1305.37        2974.00           1543         236.00      1004.83
 1305.41        2974.25           1546         157.00       660.43
 1305.44        2974.50           1549         109.00       451.18
 1305.47        2974.75           1553          77.00       311.69
 1305.50        2975.00           1556          78.00       316.04
 1305.53        2975.25           1559          46.00       176.55
 1305.56        2975.50           1563          50.00       193.99
 1305.59        2975.75           1566          46.00       176.55
 1305.62        2976.00           1569          44.00       167.83
 1305.65        2976.25           1573          50.00       193.99
 1305.68        2976.50           1576          49.00       189.63
 1305.71        2976.75           1579          46.00       176.55
 1305.74        2977.00           1583          42.00       159.11
 1305.77        2977.25           1586          53.00       207.06
 1305.81        2977.50           1590          52.00       202.70
 1305.84        2977.75           1593          48.00       185.27
 1305.87        2978.00           1596          49.00       189.63
 1305.90        2978.25           1600          46.00       176.55
 1305.93        2978.50           1603          45.00       172.19
 1305.96        2978.75           1606          42.00       159.11
 1305.99        2979.00           1610          44.00       167.83
 1306.02        2979.25           1613          47.00       180.91
 1306.05        2979.50           1616          37.00       137.32
 1306.08        2979.75           1620          47.00       180.91
 1306.11        2980.00           1623          46.00       176.55
 1306.14        2980.25           1626          42.00       159.11
 1306.17        2980.50           1630          44.00       167.83
 1306.20        2980.75           1633          41.00       154.75
 1306.23        2981.00           1637          49.00       189.63
 1306.27        2981.25           1640          43.00       163.47
 1306.30        2981.50           1643          52.00       202.70
 1306.33        2981.75           1647          51.00       198.34
 1306.36        2982.00           1650          41.00       154.75
 1306.39        2982.25           1653          40.00       150.39
 1306.42        2982.50           1657          40.00       150.39
 1306.45        2982.75           1660          38.00       141.67
 1306.48        2983.00           1663          46.00       176.55
 1306.51        2983.25           1667          38.00       141.67
 1306.54        2983.50           1670          45.00       172.19
 1306.57        2983.75           1673          44.00       167.83
 1306.60        2984.00           1677          43.00       163.47
HS scan finished at 21:46:49
end
