************************************************************
  HS Scan of (1) Internal mercury lamp
************************************************************
Integration time is 0.2294 seconds per sample
dh290617Manchester 53.47 2.23 2.804185pr1000
************************************************************
Dead Time -------------------------  3E-08 
Number of Cycles Used -------------  4 
Starting Wavelength (Angstroms) ---  2950 
Final Wavelength (Angstoms) -------  2984 
Wavelength Increment (Angstroms) --  .25 
Filter Wheel #1 Position ---------- (1) Ground quartz diffuser (ND=2.32)
Filter Wheel #2 Position ---------- (1) Neutral Density 0.494



************************************************************
HS scan start time = 01:36:25
Dark Count =  5.7 


Time (GMT)  Wavelength (Ang)  Step Number  Raw Counts  Counts/Second

   96.78        2950.00           1222          39.00       145.16
   96.85        2950.25           1226          45.00       171.32
   96.88        2950.50           1229          49.00       188.75
   96.91        2950.75           1232          45.00       171.32
   96.94        2951.00           1236          46.00       175.68
   96.97        2951.25           1239          46.00       175.68
   97.00        2951.50           1242          40.00       149.52
   97.03        2951.75           1246          45.00       171.32
   97.06        2952.00           1249          44.00       166.96
   97.09        2952.25           1252          37.00       136.44
   97.12        2952.50           1256          44.00       166.96
   97.15        2952.75           1259          42.00       158.24
   97.19        2953.00           1262          42.00       158.24
   97.22        2953.25           1266          44.00       166.96
   97.25        2953.50           1269          39.00       145.16
   97.28        2953.75           1272          44.00       166.96
   97.31        2954.00           1276          48.00       184.40
   97.34        2954.25           1279          40.00       149.52
   97.37        2954.50           1282          42.00       158.24
   97.40        2954.75           1286          44.00       166.96
   97.43        2955.00           1289          38.00       140.80
   97.46        2955.25           1292          59.00       232.35
   97.49        2955.50           1296          41.00       153.88
   97.53        2955.75           1299          48.00       184.40
   97.56        2956.00           1302          45.00       171.32
   97.59        2956.25           1306          49.00       188.75
   97.62        2956.50           1309          39.00       145.16
   97.65        2956.75           1312          51.00       197.47
   97.68        2957.00           1316          48.00       184.40
   97.71        2957.25           1319          38.00       140.80
   97.74        2957.50           1322          39.00       145.16
   97.77        2957.75           1326          42.00       158.24
   97.80        2958.00           1329          47.00       180.04
   97.83        2958.25           1332          46.00       175.68
   97.87        2958.50           1336          40.00       149.52
   97.90        2958.75           1339          51.00       197.47
   97.93        2959.00           1342          49.00       188.75
   97.96        2959.25           1346          45.00       171.32
   97.99        2959.50           1349          61.00       241.07
   98.02        2959.75           1352          60.00       236.71
   98.05        2960.00           1356         105.00       432.87
   98.08        2960.25           1359         141.00       589.81
   98.11        2960.50           1362         171.00       720.59
   98.14        2960.75           1366         225.00       956.00
   98.17        2961.00           1369         278.00      1187.05
   98.20        2961.25           1372         306.00      1309.12
   98.24        2961.50           1376         402.00      1727.64
   98.27        2961.75           1379         563.00      2429.56
   98.30        2962.00           1382        1135.00      4923.57
   98.33        2962.25           1386        2758.00     12002.14
   98.36        2962.50           1389        4275.00     18621.12
   98.39        2962.75           1392        5825.00     25386.81
   98.42        2963.00           1396        8218.00     35837.56
   98.45        2963.25           1399        9820.00     42837.49
   98.48        2963.50           1402       11473.00     50063.37
   98.51        2963.75           1406       13843.00     60428.98
   98.55        2964.00           1409       15517.00     67754.41
   98.58        2964.25           1412       17369.00     75862.53
   98.61        2964.50           1416       19661.00     85902.44
   98.64        2964.75           1419       21124.00     92314.16
   98.67        2965.00           1422       22921.00    100193.00
   98.70        2965.25           1426       25071.00    109624.50
   98.73        2965.50           1429       26905.00    117674.10
   98.76        2965.75           1432       28865.00    126280.90
   98.79        2966.00           1436       31008.00    135696.50
   98.83        2966.25           1439       32537.00    142417.60
   98.86        2966.50           1442       34161.00    149559.30
   98.89        2966.75           1446       35658.00    156145.20
   98.92        2967.00           1449       36162.00    158363.10
   98.95        2967.25           1452       36523.00    159951.90
   98.98        2967.50           1456       36376.00    159304.90
   99.01        2967.75           1459       36266.00    158820.80
   99.04        2968.00           1462       36259.00    158789.90
   99.07        2968.25           1466       35422.00    155106.70
   99.11        2968.50           1469       34211.00    149779.20
   99.14        2968.75           1472       32407.00    141846.00
   99.17        2969.00           1476       30222.00    132242.40
   99.20        2969.25           1479       28666.00    125406.90
   99.23        2969.50           1482       26875.00    117542.40
   99.26        2969.75           1486       24591.00    107518.50
   99.29        2970.00           1489       23075.00    100868.40
   99.32        2970.25           1492       21321.00     93177.72
   99.36        2970.50           1496       19293.00     84290.04
   99.39        2970.75           1499       17627.00     76992.37
   99.42        2971.00           1502       15890.00     69387.10
   99.45        2971.25           1506       13656.00     59610.87
   99.48        2971.50           1509       12070.00     52673.84
   99.51        2971.75           1513       10033.00     43768.42
   99.54        2972.00           1516        8147.00     35527.39
   99.57        2972.25           1519        6563.00     28609.11
   99.60        2972.50           1523        4294.00     18704.04
   99.63        2972.75           1526        2717.00     11823.29
   99.66        2973.00           1529        1380.00      5991.92
   99.70        2973.25           1533         518.00      2233.37
   99.73        2973.50           1536         352.00      1509.66
   99.76        2973.75           1539         281.00      1200.13
   99.79        2974.00           1543         204.00       864.45
   99.82        2974.25           1546         161.00       677.00
   99.85        2974.50           1549         126.00       524.42
   99.88        2974.75           1553          79.00       319.53
   99.91        2975.00           1556          63.00       249.78
   99.94        2975.25           1559          54.00       210.55
   99.97        2975.50           1563          45.00       171.32
  100.01        2975.75           1566          40.00       149.52
  100.04        2976.00           1569          42.00       158.24
  100.07        2976.25           1573          45.00       171.32
  100.10        2976.50           1576          40.00       149.52
  100.13        2976.75           1579          40.00       149.52
  100.16        2977.00           1583          48.00       184.40
  100.19        2977.25           1586          49.00       188.75
  100.22        2977.50           1590          45.00       171.32
  100.25        2977.75           1593          50.00       193.11
  100.28        2978.00           1596          53.00       206.19
  100.31        2978.25           1600          49.00       188.75
  100.34        2978.50           1603          41.00       153.88
  100.37        2978.75           1606          40.00       149.52
  100.40        2979.00           1610          47.00       180.04
  100.43        2979.25           1613          45.00       171.32
  100.47        2979.50           1616          38.00       140.80
  100.50        2979.75           1620          45.00       171.32
  100.53        2980.00           1623          44.00       166.96
  100.56        2980.25           1626          46.00       175.68
  100.59        2980.50           1630          46.00       175.68
  100.62        2980.75           1633          40.00       149.52
  100.65        2981.00           1637          42.00       158.24
  100.68        2981.25           1640          40.00       149.52
  100.71        2981.50           1643          42.00       158.24
  100.74        2981.75           1647          40.00       149.52
  100.77        2982.00           1650          42.00       158.24
  100.80        2982.25           1653          37.00       136.44
  100.83        2982.50           1657          39.00       145.16
  100.86        2982.75           1660          45.00       171.32
  100.89        2983.00           1663          43.00       162.60
  100.92        2983.25           1667          55.00       214.91
  100.95        2983.50           1670          37.00       136.44
  100.98        2983.75           1673          42.00       158.24
  101.02        2984.00           1677          46.00       175.68
HS scan finished at 01:41:14
end
************************************************************
  HS Scan of (1) Internal mercury lamp
************************************************************
Integration time is 0.2294 seconds per sample
dh290617Manchester 53.47 2.23 2.804185pr1000
************************************************************
Dead Time -------------------------  3E-08 
Number of Cycles Used -------------  4 
Starting Wavelength (Angstroms) ---  2950 
Final Wavelength (Angstoms) -------  2984 
Wavelength Increment (Angstroms) --  .25 
Filter Wheel #1 Position ---------- (1) Ground quartz diffuser (ND=2.32)
Filter Wheel #2 Position ---------- (1) Neutral Density 0.494



************************************************************
HS scan start time = 21:42:01
Dark Count =  4.8 


Time (GMT)  Wavelength (Ang)  Step Number  Raw Counts  Counts/Second

 1302.38        2950.00           1222          45.00       175.24
 1302.45        2950.25           1226          43.00       166.52
 1302.48        2950.50           1229          42.00       162.16
 1302.51        2950.75           1232          36.00       136.01
 1302.54        2951.00           1236          42.00       162.16
 1302.57        2951.25           1239          41.00       157.80
 1302.60        2951.50           1242          45.00       175.24
 1302.64        2951.75           1246          45.00       175.24
 1302.67        2952.00           1249          43.00       166.52
 1302.70        2952.25           1252          46.00       179.60
 1302.73        2952.50           1256          43.00       166.52
 1302.76        2952.75           1259          46.00       179.60
 1302.79        2953.00           1262          46.00       179.60
 1302.82        2953.25           1266          41.00       157.80
 1302.85        2953.50           1269          43.00       166.52
 1302.88        2953.75           1272          42.00       162.16
 1302.91        2954.00           1276          45.00       175.24
 1302.94        2954.25           1279          48.00       188.32
 1302.98        2954.50           1282          50.00       197.04
 1303.01        2954.75           1286          48.00       188.32
 1303.04        2955.00           1289          44.00       170.88
 1303.07        2955.25           1292          47.00       183.96
 1303.10        2955.50           1296          37.00       140.37
 1303.13        2955.75           1299          41.00       157.80
 1303.16        2956.00           1302          50.00       197.04
 1303.19        2956.25           1306          38.00       144.73
 1303.22        2956.50           1309          40.00       153.44
 1303.25        2956.75           1312          46.00       179.60
 1303.29        2957.00           1316          39.00       149.09
 1303.32        2957.25           1319          49.00       192.68
 1303.35        2957.50           1322          42.00       162.16
 1303.38        2957.75           1326          39.00       149.09
 1303.41        2958.00           1329          41.00       157.80
 1303.44        2958.25           1332          45.00       175.24
 1303.47        2958.50           1336          42.00       162.16
 1303.50        2958.75           1339          41.00       157.80
 1303.53        2959.00           1342          46.00       179.60
 1303.56        2959.25           1346          52.00       205.76
 1303.59        2959.50           1349          59.00       236.27
 1303.62        2959.75           1352          67.00       271.14
 1303.66        2960.00           1356          97.00       401.92
 1303.69        2960.25           1359         130.00       545.78
 1303.72        2960.50           1362         179.00       759.39
 1303.75        2960.75           1366         231.00       986.08
 1303.78        2961.00           1369         260.00      1112.50
 1303.81        2961.25           1372         315.00      1352.28
 1303.84        2961.50           1376         416.00      1792.60
 1303.87        2961.75           1379         706.00      3056.95
 1303.90        2962.00           1382        1517.00      6593.28
 1303.93        2962.25           1386        3403.00     14820.01
 1303.96        2962.50           1389        5028.00     21911.52
 1304.00        2962.75           1392        6682.00     29132.69
 1304.03        2963.00           1396        8746.00     38148.26
 1304.06        2963.25           1399       10431.00     45511.97
 1304.09        2963.50           1402       12097.00     52795.85
 1304.12        2963.75           1406       14207.00     62025.51
 1304.15        2964.00           1409       15905.00     69456.71
 1304.18        2964.25           1412       17626.00     76991.93
 1304.21        2964.50           1416       19928.00     87076.34
 1304.24        2964.75           1419       21613.00     94461.74
 1304.28        2965.00           1422       23604.00    103192.60
 1304.31        2965.25           1426       25735.00    112542.40
 1304.34        2965.50           1429       27487.00    120233.30
 1304.37        2965.75           1432       29298.00    128186.90
 1304.40        2966.00           1436       31328.00    137106.80
 1304.43        2966.25           1439       32848.00    143788.90
 1304.46        2966.50           1442       34291.00    150135.00
 1304.49        2966.75           1446       35718.00    156413.10
 1304.52        2967.00           1449       36080.00    158006.10
 1304.55        2967.25           1452       36247.00    158741.10
 1304.59        2967.50           1456       36231.00    158670.70
 1304.62        2967.75           1459       36216.00    158604.60
 1304.65        2968.00           1462       35978.00    157557.30
 1304.68        2968.25           1466       34757.00    152184.90
 1304.71        2968.50           1469       33340.00    145952.40
 1304.74        2968.75           1472       31666.00    138592.50
 1304.77        2969.00           1476       29659.00    129772.80
 1304.80        2969.25           1479       28180.00    123276.40
 1304.83        2969.50           1482       26483.00    115825.50
 1304.86        2969.75           1486       24267.00    106100.90
 1304.90        2970.00           1489       22781.00     99583.02
 1304.93        2970.25           1492       20969.00     91638.68
 1304.96        2970.50           1496       18593.00     81227.33
 1304.99        2970.75           1499       16938.00     73979.18
 1305.02        2971.00           1502       15162.00     66204.60
 1305.05        2971.25           1506       13021.00     56837.03
 1305.08        2971.50           1509       11216.00     48943.65
 1305.11        2971.75           1513        8977.00     39157.57
 1305.14        2972.00           1516        7334.00     31980.10
 1305.17        2972.25           1519        5880.00     25630.86
 1305.20        2972.50           1523        3641.00     15858.46
 1305.23        2972.75           1526        2161.00      9401.95
 1305.26        2973.00           1529        1070.00      4644.06
 1305.30        2973.25           1533         429.00      1849.27
 1305.33        2973.50           1536         323.00      1387.15
 1305.36        2973.75           1539         258.00      1103.79
 1305.39        2974.00           1543         239.00      1020.96
 1305.42        2974.25           1546         155.00       654.76
 1305.45        2974.50           1549         115.00       480.39
 1305.48        2974.75           1553          72.00       292.94
 1305.51        2975.00           1556          62.00       249.35
 1305.54        2975.25           1559          47.00       183.96
 1305.57        2975.50           1563          50.00       197.04
 1305.60        2975.75           1566          47.00       183.96
 1305.63        2976.00           1569          44.00       170.88
 1305.66        2976.25           1573          45.00       175.24
 1305.70        2976.50           1576          42.00       162.16
 1305.73        2976.75           1579          41.00       157.80
 1305.76        2977.00           1583          45.00       175.24
 1305.79        2977.25           1586          38.00       144.73
 1305.82        2977.50           1590          45.00       175.24
 1305.85        2977.75           1593          40.00       153.44
 1305.88        2978.00           1596          44.00       170.88
 1305.91        2978.25           1600          43.00       166.52
 1305.94        2978.50           1603          40.00       153.44
 1305.97        2978.75           1606          45.00       175.24
 1306.01        2979.00           1610          42.00       162.16
 1306.04        2979.25           1613          47.00       183.96
 1306.07        2979.50           1616          46.00       179.60
 1306.10        2979.75           1620          51.00       201.40
 1306.13        2980.00           1623          42.00       162.16
 1306.16        2980.25           1626          40.00       153.44
 1306.19        2980.50           1630          44.00       170.88
 1306.22        2980.75           1633          49.00       192.68
 1306.25        2981.00           1637          47.00       183.96
 1306.28        2981.25           1640          46.00       179.60
 1306.31        2981.50           1643          36.00       136.01
 1306.34        2981.75           1647          47.00       183.96
 1306.37        2982.00           1650          44.00       170.88
 1306.41        2982.25           1653          48.00       188.32
 1306.44        2982.50           1657          39.00       149.09
 1306.47        2982.75           1660          42.00       162.16
 1306.50        2983.00           1663          55.00       218.83
 1306.53        2983.25           1667          44.00       170.88
 1306.56        2983.50           1670          37.00       140.37
 1306.59        2983.75           1673          44.00       170.88
 1306.62        2984.00           1677          43.00       166.52
HS scan finished at 21:46:50
end
