************************************************************
  HS Scan of (1) Internal mercury lamp
************************************************************
Integration time is 0.2294 seconds per sample
dh070718Manchester 53.47 2.23 2.965129pr1000
************************************************************
Dead Time -------------------------  3E-08 
Number of Cycles Used -------------  4 
Starting Wavelength (Angstroms) ---  2950 
Final Wavelength (Angstoms) -------  2984 
Wavelength Increment (Angstroms) --  .25 
Filter Wheel #1 Position ---------- (1) Ground quartz diffuser (ND=2.32)
Filter Wheel #2 Position ---------- (1) Neutral Density 0.494



************************************************************
HS scan start time = 01:28:41
Dark Count =  7.3 


Time (GMT)  Wavelength (Ang)  Step Number  Raw Counts  Counts/Second

   89.06        2950.00           1222          52.00       194.86
   89.12        2950.25           1226          50.00       186.14
   89.16        2950.50           1229          57.00       216.65
   89.19        2950.75           1232          61.00       234.09
   89.22        2951.00           1236          50.00       186.14
   89.25        2951.25           1239          53.00       199.22
   89.28        2951.50           1242          56.00       212.29
   89.31        2951.75           1246          64.00       247.17
   89.34        2952.00           1249          60.00       229.73
   89.37        2952.25           1252          55.00       207.94
   89.40        2952.50           1256          53.00       199.22
   89.43        2952.75           1259          54.00       203.58
   89.46        2953.00           1262          52.00       194.86
   89.50        2953.25           1266          50.00       186.14
   89.53        2953.50           1269          53.00       199.22
   89.56        2953.75           1272          60.00       229.73
   89.59        2954.00           1276          53.00       199.22
   89.62        2954.25           1279          61.00       234.09
   89.65        2954.50           1282          50.00       186.14
   89.68        2954.75           1286          53.00       199.22
   89.71        2955.00           1289          69.00       268.96
   89.74        2955.25           1292          54.00       203.58
   89.77        2955.50           1296          54.00       203.58
   89.80        2955.75           1299          52.00       194.86
   89.84        2956.00           1302          51.00       190.50
   89.87        2956.25           1306          50.00       186.14
   89.90        2956.50           1309          56.00       212.29
   89.93        2956.75           1312          53.00       199.22
   89.96        2957.00           1316          55.00       207.94
   89.99        2957.25           1319          49.00       181.78
   90.02        2957.50           1322          57.00       216.65
   90.05        2957.75           1326          50.00       186.14
   90.08        2958.00           1329          54.00       203.58
   90.11        2958.25           1332          52.00       194.86
   90.15        2958.50           1336          45.00       164.34
   90.18        2958.75           1339          67.00       260.25
   90.21        2959.00           1342          67.00       260.25
   90.24        2959.25           1346          53.00       199.22
   90.27        2959.50           1349          60.00       229.73
   90.30        2959.75           1352          76.00       299.48
   90.33        2960.00           1356         106.00       430.26
   90.36        2960.25           1359         133.00       547.96
   90.39        2960.50           1362         163.00       678.74
   90.42        2960.75           1366         213.00       896.71
   90.46        2961.00           1369         272.00      1153.92
   90.49        2961.25           1372         292.00      1241.11
   90.52        2961.50           1376         358.00      1528.84
   90.55        2961.75           1379         584.00      2514.14
   90.58        2962.00           1382        1324.00      5740.74
   90.61        2962.25           1386        3076.00     13382.44
   90.64        2962.50           1389        4595.00     20010.70
   90.67        2962.75           1392        5894.00     25681.07
   90.70        2963.00           1396        7876.00     34336.58
   90.73        2963.25           1399        9348.00     40767.79
   90.77        2963.50           1402       10815.00     47179.64
   90.80        2963.75           1406       12831.00     55995.03
   90.83        2964.00           1409       14403.00     62872.18
   90.86        2964.25           1412       15791.00     68946.74
   90.89        2964.50           1416       17763.00     77580.97
   90.92        2964.75           1419       19065.00     83284.10
   90.95        2965.00           1422       20765.00     90733.56
   90.98        2965.25           1426       22666.00     99067.75
   91.01        2965.50           1429       24068.00    105217.00
   91.04        2965.75           1432       25943.00    113444.30
   91.08        2966.00           1436       27871.00    121908.40
   91.11        2966.25           1439       29078.00    127209.50
   91.14        2966.50           1442       30471.00    133329.50
   91.17        2966.75           1446       31737.00    138893.60
   91.20        2967.00           1449       32026.00    140164.00
   91.23        2967.25           1452       32179.00    140836.60
   91.26        2967.50           1456       32073.00    140370.60
   91.29        2967.75           1459       32090.00    140445.40
   91.33        2968.00           1462       31944.00    139803.50
   91.36        2968.25           1466       30791.00    134735.80
   91.39        2968.50           1469       29609.00    129542.10
   91.42        2968.75           1472       27969.00    122338.80
   91.45        2969.00           1476       26054.00    113931.50
   91.48        2969.25           1479       24499.00    107107.80
   91.51        2969.50           1482       23098.00    100962.30
   91.54        2969.75           1486       21218.00     92719.19
   91.57        2970.00           1489       19828.00     86627.19
   91.61        2970.25           1492       18353.00     80165.10
   91.64        2970.50           1496       16444.00     71805.35
   91.67        2970.75           1499       15018.00     65563.45
   91.70        2971.00           1502       13439.00     58654.57
   91.73        2971.25           1506       11495.00     50152.57
   91.76        2971.50           1509        9942.00     43363.70
   91.79        2971.75           1513        8002.00     34886.97
   91.82        2972.00           1516        6534.00     28475.49
   91.85        2972.25           1519        5061.00     22044.66
   91.89        2972.50           1523        3094.00     13460.97
   91.92        2972.75           1526        1701.00      7384.81
   91.95        2973.00           1529         765.00      3303.29
   91.98        2973.25           1533         394.00      1685.79
   92.01        2973.50           1536         303.00      1289.06
   92.04        2973.75           1539         257.00      1088.53
   92.07        2974.00           1543         218.00       918.51
   92.10        2974.25           1546         170.00       709.26
   92.13        2974.50           1549         120.00       491.29
   92.17        2974.75           1553          87.00       347.43
   92.20        2975.00           1556          61.00       234.09
   92.23        2975.25           1559          58.00       221.01
   92.26        2975.50           1563          55.00       207.94
   92.29        2975.75           1566          60.00       229.73
   92.32        2976.00           1569          52.00       194.86
   92.35        2976.25           1573          54.00       203.58
   92.38        2976.50           1576          51.00       190.50
   92.41        2976.75           1579          58.00       221.01
   92.44        2977.00           1583          55.00       207.94
   92.47        2977.25           1586          47.00       173.06
   92.51        2977.50           1590          53.00       199.22
   92.54        2977.75           1593          50.00       186.14
   92.57        2978.00           1596          49.00       181.78
   92.60        2978.25           1600          53.00       199.22
   92.63        2978.50           1603          48.00       177.42
   92.66        2978.75           1606          54.00       203.58
   92.69        2979.00           1610          50.00       186.14
   92.72        2979.25           1613          48.00       177.42
   92.75        2979.50           1616          55.00       207.94
   92.79        2979.75           1620          43.00       155.62
   92.82        2980.00           1623          53.00       199.22
   92.85        2980.25           1626          44.00       159.98
   92.88        2980.50           1630          60.00       229.73
   92.91        2980.75           1633          54.00       203.58
   92.94        2981.00           1637          49.00       181.78
   92.97        2981.25           1640          50.00       186.14
   93.00        2981.50           1643          50.00       186.14
   93.03        2981.75           1647          50.00       186.14
   93.06        2982.00           1650          50.00       186.14
   93.09        2982.25           1653          66.00       255.89
   93.13        2982.50           1657          54.00       203.58
   93.16        2982.75           1660          56.00       212.29
   93.19        2983.00           1663          50.00       186.14
   93.22        2983.25           1667          43.00       155.62
   93.25        2983.50           1670          60.00       229.73
   93.28        2983.75           1673          51.00       190.50
   93.31        2984.00           1677          47.00       173.06
HS scan finished at 01:33:32
end
************************************************************
  HS Scan of (1) Internal mercury lamp
************************************************************
Integration time is 0.2294 seconds per sample
dh070718Manchester 53.47 2.23 3.126073pr1000
************************************************************
Dead Time -------------------------  3E-08 
Number of Cycles Used -------------  4 
Starting Wavelength (Angstroms) ---  2950 
Final Wavelength (Angstoms) -------  2984 
Wavelength Increment (Angstroms) --  .25 
Filter Wheel #1 Position ---------- (1) Ground quartz diffuser (ND=2.32)
Filter Wheel #2 Position ---------- (1) Neutral Density 0.494



************************************************************
HS scan start time = 21:42:09
Dark Count =  6.7 


Time (GMT)  Wavelength (Ang)  Step Number  Raw Counts  Counts/Second

 1302.52        2950.00           1222          58.00       223.63
 1302.59        2950.25           1226          53.00       201.83
 1302.62        2950.50           1229          46.00       171.32
 1302.65        2950.75           1232          53.00       201.83
 1302.68        2951.00           1236          61.00       236.71
 1302.71        2951.25           1239          56.00       214.91
 1302.75        2951.50           1242          64.00       249.78
 1302.78        2951.75           1246          53.00       201.83
 1302.81        2952.00           1249          51.00       193.11
 1302.84        2952.25           1252          60.00       232.35
 1302.87        2952.50           1256          51.00       193.11
 1302.90        2952.75           1259          56.00       214.91
 1302.93        2953.00           1262          54.00       206.19
 1302.96        2953.25           1266          53.00       201.83
 1302.99        2953.50           1269          55.00       210.55
 1303.02        2953.75           1272          65.00       254.14
 1303.05        2954.00           1276          51.00       193.11
 1303.08        2954.25           1279          55.00       210.55
 1303.12        2954.50           1282          51.00       193.11
 1303.15        2954.75           1286          55.00       210.55
 1303.18        2955.00           1289          52.00       197.47
 1303.21        2955.25           1292          54.00       206.19
 1303.24        2955.50           1296          55.00       210.55
 1303.27        2955.75           1299          55.00       210.55
 1303.30        2956.00           1302          56.00       214.91
 1303.33        2956.25           1306          55.00       210.55
 1303.36        2956.50           1309          50.00       188.75
 1303.40        2956.75           1312          61.00       236.71
 1303.43        2957.00           1316          54.00       206.19
 1303.46        2957.25           1319          60.00       232.35
 1303.49        2957.50           1322          56.00       214.91
 1303.52        2957.75           1326          57.00       219.27
 1303.55        2958.00           1329          56.00       214.91
 1303.58        2958.25           1332          57.00       219.27
 1303.61        2958.50           1336          63.00       245.42
 1303.64        2958.75           1339          55.00       210.55
 1303.67        2959.00           1342          56.00       214.91
 1303.71        2959.25           1346          63.00       245.42
 1303.74        2959.50           1349          58.00       223.63
 1303.77        2959.75           1352          78.00       310.81
 1303.80        2960.00           1356         112.00       459.03
 1303.83        2960.25           1359         148.00       615.97
 1303.86        2960.50           1362         179.00       751.11
 1303.89        2960.75           1366         239.00      1012.67
 1303.92        2961.00           1369         294.00      1252.44
 1303.95        2961.25           1372         326.00      1391.95
 1303.98        2961.50           1376         394.00      1688.40
 1304.02        2961.75           1379         508.00      2185.41
 1304.05        2962.00           1382        1031.00      4465.73
 1304.08        2962.25           1386        2577.00     11208.22
 1304.11        2962.50           1389        4109.00     17892.34
 1304.14        2962.75           1392        5590.00     24356.50
 1304.17        2963.00           1396        7739.00     33740.76
 1304.20        2963.25           1399        9304.00     40578.14
 1304.23        2963.50           1402       10836.00     47274.06
 1304.26        2963.75           1406       13015.00     56802.47
 1304.30        2964.00           1409       14625.00     63846.24
 1304.33        2964.25           1412       16268.00     71037.46
 1304.36        2964.50           1416       18411.00     80421.78
 1304.39        2964.75           1419       20144.00     88014.58
 1304.42        2965.00           1422       21388.00     93467.04
 1304.45        2965.25           1426       23736.00    103763.20
 1304.48        2965.50           1429       25126.00    109861.50
 1304.51        2965.75           1432       26808.00    117243.80
 1304.54        2966.00           1436       28950.00    126649.90
 1304.58        2966.25           1439       30516.00    133529.90
 1304.61        2966.50           1442       31769.00    139036.90
 1304.64        2966.75           1446       33516.00    146718.00
 1304.67        2967.00           1449       33961.00    148675.20
 1304.70        2967.25           1452       33889.00    148358.50
 1304.73        2967.50           1456       34039.00    149018.30
 1304.76        2967.75           1459       33854.00    148204.60
 1304.79        2968.00           1462       33855.00    148209.00
 1304.83        2968.25           1466       32813.00    143626.70
 1304.86        2968.50           1469       31664.00    138575.30
 1304.89        2968.75           1472       29964.00    131104.40
 1304.92        2969.00           1476       28115.00    122982.60
 1304.95        2969.25           1479       26605.00    116352.70
 1304.98        2969.50           1482       24934.00    109019.00
 1305.01        2969.75           1486       22856.00     99903.59
 1305.04        2970.00           1489       21511.00     94006.25
 1305.08        2970.25           1492       19635.00     85784.13
 1305.11        2970.50           1496       17719.00     77390.91
 1305.14        2970.75           1499       16299.00     71173.16
 1305.17        2971.00           1502       14615.00     63802.48
 1305.20        2971.25           1506       12672.00     55302.23
 1305.23        2971.50           1509       11082.00     48349.51
 1305.26        2971.75           1513        8981.00     39166.74
 1305.29        2972.00           1516        7367.00     32115.93
 1305.32        2972.25           1519        5818.00     25351.88
 1305.36        2972.50           1523        3936.00     17137.41
 1305.39        2972.75           1526        2420.00     10523.38
 1305.42        2973.00           1529        1134.00      4914.85
 1305.45        2973.25           1533         473.00      2032.82
 1305.48        2973.50           1536         327.00      1396.31
 1305.51        2973.75           1539         270.00      1147.82
 1305.54        2974.00           1543         225.00       951.64
 1305.57        2974.25           1546         168.00       703.15
 1305.60        2974.50           1549         121.00       498.26
 1305.64        2974.75           1553          76.00       302.10
 1305.67        2975.00           1556          67.00       262.86
 1305.70        2975.25           1559          59.00       227.99
 1305.73        2975.50           1563          61.00       236.71
 1305.76        2975.75           1566          51.00       193.11
 1305.79        2976.00           1569          52.00       197.47
 1305.82        2976.25           1573          51.00       193.11
 1305.85        2976.50           1576          58.00       223.63
 1305.89        2976.75           1579          49.00       184.40
 1305.92        2977.00           1583          52.00       197.47
 1305.95        2977.25           1586          57.00       219.27
 1305.98        2977.50           1590          52.00       197.47
 1306.01        2977.75           1593          66.00       258.50
 1306.04        2978.00           1596          56.00       214.91
 1306.07        2978.25           1600          51.00       193.11
 1306.10        2978.50           1603          48.00       180.04
 1306.13        2978.75           1606          51.00       193.11
 1306.16        2979.00           1610          49.00       184.40
 1306.19        2979.25           1613          47.00       175.68
 1306.22        2979.50           1616          59.00       227.99
 1306.25        2979.75           1620          51.00       193.11
 1306.28        2980.00           1623          57.00       219.27
 1306.32        2980.25           1626          42.00       153.88
 1306.35        2980.50           1630          57.00       219.27
 1306.38        2980.75           1633          58.00       223.63
 1306.41        2981.00           1637          48.00       180.04
 1306.44        2981.25           1640          49.00       184.40
 1306.47        2981.50           1643          47.00       175.68
 1306.50        2981.75           1647          51.00       193.11
 1306.53        2982.00           1650          55.00       210.55
 1306.56        2982.25           1653          47.00       175.68
 1306.59        2982.50           1657          53.00       201.83
 1306.62        2982.75           1660          48.00       180.04
 1306.65        2983.00           1663          50.00       188.75
 1306.68        2983.25           1667          51.00       193.11
 1306.72        2983.50           1670          48.00       180.04
 1306.75        2983.75           1673          55.00       210.55
 1306.78        2984.00           1677          53.00       201.83
HS scan finished at 21:47:00
end
