************************************************************
  HS Scan of (1) Internal mercury lamp
************************************************************
Integration time is 0.2294 seconds per sample
dh020717Manchester 53.47 2.23 2.804185pr1000
************************************************************
Dead Time -------------------------  3E-08 
Number of Cycles Used -------------  4 
Starting Wavelength (Angstroms) ---  2950 
Final Wavelength (Angstoms) -------  2984 
Wavelength Increment (Angstroms) --  .25 
Filter Wheel #1 Position ---------- (1) Ground quartz diffuser (ND=2.32)
Filter Wheel #2 Position ---------- (1) Neutral Density 0.494



************************************************************
HS scan start time = 01:39:58
Dark Count =  6.7 


Time (GMT)  Wavelength (Ang)  Step Number  Raw Counts  Counts/Second

  100.34        2950.00           1222          43.00       158.24
  100.41        2950.25           1226          52.00       197.47
  100.44        2950.50           1229          44.00       162.60
  100.47        2950.75           1232          50.00       188.75
  100.50        2951.00           1236          43.00       158.24
  100.53        2951.25           1239          41.00       149.52
  100.56        2951.50           1242          40.00       145.16
  100.59        2951.75           1246          42.00       153.88
  100.62        2952.00           1249          41.00       149.52
  100.65        2952.25           1252          43.00       158.24
  100.68        2952.50           1256          43.00       158.24
  100.71        2952.75           1259          36.00       127.72
  100.74        2953.00           1262          38.00       136.44
  100.77        2953.25           1266          42.00       153.88
  100.81        2953.50           1269          47.00       175.68
  100.84        2953.75           1272          39.00       140.80
  100.87        2954.00           1276          42.00       153.88
  100.90        2954.25           1279          44.00       162.60
  100.93        2954.50           1282          36.00       127.72
  100.96        2954.75           1286          44.00       162.60
  100.99        2955.00           1289          50.00       188.75
  101.02        2955.25           1292          50.00       188.75
  101.05        2955.50           1296          44.00       162.60
  101.08        2955.75           1299          49.00       184.40
  101.11        2956.00           1302          44.00       162.60
  101.14        2956.25           1306          43.00       158.24
  101.17        2956.50           1309          46.00       171.32
  101.21        2956.75           1312          40.00       145.16
  101.24        2957.00           1316          37.00       132.08
  101.27        2957.25           1319          47.00       175.68
  101.30        2957.50           1322          42.00       153.88
  101.33        2957.75           1326          47.00       175.68
  101.36        2958.00           1329          45.00       166.96
  101.39        2958.25           1332          50.00       188.75
  101.42        2958.50           1336          44.00       162.60
  101.45        2958.75           1339          43.00       158.24
  101.48        2959.00           1342          46.00       171.32
  101.51        2959.25           1346          40.00       145.16
  101.54        2959.50           1349          55.00       210.55
  101.57        2959.75           1352          79.00       315.17
  101.60        2960.00           1356         104.00       424.16
  101.63        2960.25           1359         141.00       585.45
  101.67        2960.50           1362         194.00       816.50
  101.70        2960.75           1366         253.00      1073.71
  101.73        2961.00           1369         289.00      1230.65
  101.76        2961.25           1372         329.00      1405.03
  101.79        2961.50           1376         465.00      1997.94
  101.82        2961.75           1379         777.00      3358.23
  101.85        2962.00           1382        1671.00      7256.59
  101.88        2962.25           1386        3555.00     15474.92
  101.91        2962.50           1389        5108.00     22252.43
  101.94        2962.75           1392        6722.00     29299.07
  101.97        2963.00           1396        8794.00     38349.68
  102.01        2963.25           1399       10395.00     45346.31
  102.04        2963.50           1402       12198.00     53229.22
  102.07        2963.75           1406       14648.00     63946.89
  102.10        2964.00           1409       16372.00     71492.76
  102.13        2964.25           1412       18241.00     79677.15
  102.16        2964.50           1416       20365.00     88983.09
  102.19        2964.75           1419       22048.00     96360.56
  102.22        2965.00           1422       23692.00    103570.20
  102.25        2965.25           1426       25833.00    112964.10
  102.29        2965.50           1429       27601.00    120725.50
  102.32        2965.75           1432       29199.00    127743.60
  102.35        2966.00           1436       31517.00    137929.20
  102.38        2966.25           1439       33137.00    145051.40
  102.41        2966.50           1442       34578.00    151389.10
  102.44        2966.75           1446       35889.00    157157.30
  102.47        2967.00           1449       36005.00    157667.70
  102.50        2967.25           1452       35915.00    157271.70
  102.53        2967.50           1456       36171.00    158398.30
  102.56        2967.75           1459       35822.00    156862.40
  102.59        2968.00           1462       35490.00    155401.50
  102.63        2968.25           1466       34241.00    149906.70
  102.66        2968.50           1469       32924.00    144114.80
  102.69        2968.75           1472       31300.00    136975.40
  102.72        2969.00           1476       29243.00    127936.90
  102.75        2969.25           1479       27432.00    119983.40
  102.78        2969.50           1482       25746.00    112582.30
  102.81        2969.75           1486       23360.00    102114.00
  102.84        2970.00           1489       21921.00     95803.72
  102.87        2970.25           1492       20073.00     87703.42
  102.91        2970.50           1496       18001.00     78625.96
  102.94        2970.75           1499       16359.00     71435.85
  102.97        2971.00           1502       14699.00     64170.06
  103.00        2971.25           1506       12569.00     54851.74
  103.03        2971.50           1509       10862.00     47387.73
  103.06        2971.75           1513        8861.00     38642.42
  103.09        2972.00           1516        7197.00     31373.46
  103.12        2972.25           1519        5517.00     24037.82
  103.15        2972.50           1523        3315.00     14427.78
  103.18        2972.75           1526        1870.00      8124.47
  103.22        2973.00           1529         800.00      3458.51
  103.25        2973.25           1533         402.00      1723.28
  103.28        2973.50           1536         307.00      1309.12
  103.31        2973.75           1539         266.00      1130.38
  103.34        2974.00           1543         223.00       942.92
  103.37        2974.25           1546         151.00       629.04
  103.40        2974.50           1549         111.00       454.67
  103.43        2974.75           1553          78.00       310.81
  103.46        2975.00           1556          50.00       188.75
  103.49        2975.25           1559          74.00       293.38
  103.52        2975.50           1563          42.00       153.88
  103.56        2975.75           1566          53.00       201.83
  103.59        2976.00           1569          45.00       166.96
  103.62        2976.25           1573          44.00       162.60
  103.65        2976.50           1576          41.00       149.52
  103.68        2976.75           1579          47.00       175.68
  103.71        2977.00           1583          43.00       158.24
  103.74        2977.25           1586          54.00       206.19
  103.77        2977.50           1590          47.00       175.68
  103.80        2977.75           1593          50.00       188.75
  103.83        2978.00           1596          43.00       158.24
  103.86        2978.25           1600          43.00       158.24
  103.89        2978.50           1603          48.00       180.04
  103.93        2978.75           1606          44.00       162.60
  103.96        2979.00           1610          41.00       149.52
  103.99        2979.25           1613          43.00       158.24
  104.02        2979.50           1616          40.00       145.16
  104.05        2979.75           1620          43.00       158.24
  104.08        2980.00           1623          54.00       206.19
  104.11        2980.25           1626          44.00       162.60
  104.14        2980.50           1630          44.00       162.60
  104.17        2980.75           1633          40.00       145.16
  104.20        2981.00           1637          42.00       153.88
  104.23        2981.25           1640          53.00       201.83
  104.26        2981.50           1643          52.00       197.47
  104.29        2981.75           1647          44.00       162.60
  104.32        2982.00           1650          47.00       175.68
  104.36        2982.25           1653          39.00       140.80
  104.39        2982.50           1657          41.00       149.52
  104.42        2982.75           1660          43.00       158.24
  104.45        2983.00           1663          37.00       132.08
  104.48        2983.25           1667          43.00       158.24
  104.51        2983.50           1670          46.00       171.32
  104.54        2983.75           1673          43.00       158.24
  104.57        2984.00           1677          35.00       123.37
HS scan finished at 01:44:47
end
************************************************************
  HS Scan of (1) Internal mercury lamp
************************************************************
Integration time is 0.2294 seconds per sample
dh020717Manchester 53.47 2.23 2.911481pr1000
************************************************************
Dead Time -------------------------  3E-08 
Number of Cycles Used -------------  4 
Starting Wavelength (Angstroms) ---  2950 
Final Wavelength (Angstoms) -------  2984 
Wavelength Increment (Angstroms) --  .25 
Filter Wheel #1 Position ---------- (1) Ground quartz diffuser (ND=2.32)
Filter Wheel #2 Position ---------- (1) Neutral Density 0.494



************************************************************
HS scan start time = 21:41:57
Dark Count =  6.8 


Time (GMT)  Wavelength (Ang)  Step Number  Raw Counts  Counts/Second

 1302.31        2950.00           1222          47.00       175.24
 1302.38        2950.25           1226          45.00       166.52
 1302.41        2950.50           1229          52.00       197.04
 1302.44        2950.75           1232          47.00       175.24
 1302.47        2951.00           1236          39.00       140.37
 1302.50        2951.25           1239          48.00       179.60
 1302.53        2951.50           1242          44.00       162.16
 1302.56        2951.75           1246          41.00       149.09
 1302.59        2952.00           1249          48.00       179.60
 1302.62        2952.25           1252          41.00       149.09
 1302.65        2952.50           1256          45.00       166.52
 1302.68        2952.75           1259          41.00       149.09
 1302.71        2953.00           1262          50.00       188.32
 1302.74        2953.25           1266          41.00       149.09
 1302.78        2953.50           1269          44.00       162.16
 1302.81        2953.75           1272          53.00       201.40
 1302.84        2954.00           1276          42.00       153.44
 1302.87        2954.25           1279          39.00       140.37
 1302.90        2954.50           1282          39.00       140.37
 1302.93        2954.75           1286          41.00       149.09
 1302.96        2955.00           1289          44.00       162.16
 1302.99        2955.25           1292          49.00       183.96
 1303.02        2955.50           1296          43.00       157.80
 1303.05        2955.75           1299          42.00       153.44
 1303.08        2956.00           1302          42.00       153.44
 1303.11        2956.25           1306          42.00       153.44
 1303.14        2956.50           1309          41.00       149.09
 1303.17        2956.75           1312          42.00       153.44
 1303.21        2957.00           1316          47.00       175.24
 1303.24        2957.25           1319          38.00       136.01
 1303.27        2957.50           1322          42.00       153.44
 1303.30        2957.75           1326          42.00       153.44
 1303.33        2958.00           1329          41.00       149.09
 1303.36        2958.25           1332          46.00       170.88
 1303.39        2958.50           1336          42.00       153.44
 1303.42        2958.75           1339          42.00       153.44
 1303.45        2959.00           1342          52.00       197.04
 1303.48        2959.25           1346          44.00       162.16
 1303.51        2959.50           1349          52.00       197.04
 1303.54        2959.75           1352          70.00       275.50
 1303.57        2960.00           1356         111.00       454.23
 1303.60        2960.25           1359         150.00       624.25
 1303.64        2960.50           1362         192.00       807.34
 1303.67        2960.75           1366         240.00      1016.60
 1303.70        2961.00           1369         298.00      1269.45
 1303.73        2961.25           1372         331.00      1413.31
 1303.76        2961.50           1376         405.00      1735.92
 1303.79        2961.75           1379         555.00      2389.88
 1303.82        2962.00           1382        1065.00      4613.54
 1303.85        2962.25           1386        2782.00     12102.04
 1303.88        2962.50           1389        4466.00     19449.88
 1303.91        2962.75           1392        6193.00     26988.72
 1303.94        2963.00           1396        8142.00     35500.74
 1303.98        2963.25           1399       10140.00     44231.28
 1304.01        2963.50           1402       11793.00     51457.76
 1304.04        2963.75           1406       14264.00     62266.16
 1304.07        2964.00           1409       16027.00     69982.00
 1304.10        2964.25           1412       17876.00     78078.05
 1304.13        2964.50           1416       20300.00     88697.78
 1304.16        2964.75           1419       21832.00     95413.09
 1304.19        2965.00           1422       23631.00    103302.20
 1304.22        2965.25           1426       26192.00    114539.40
 1304.25        2965.50           1429       27856.00    121844.70
 1304.28        2965.75           1432       29633.00    129649.80
 1304.31        2966.00           1436       32083.00    140416.80
 1304.34        2966.25           1439       33809.00    148006.20
 1304.38        2966.50           1442       34941.00    152985.60
 1304.41        2966.75           1446       36840.00    161342.30
 1304.44        2967.00           1449       37640.00    164864.00
 1304.47        2967.25           1452       37731.00    165264.60
 1304.50        2967.50           1456       37644.00    164881.60
 1304.53        2967.75           1459       37562.00    164520.60
 1304.56        2968.00           1462       37786.00    165506.80
 1304.59        2968.25           1466       36717.00    160800.90
 1304.62        2968.50           1469       35363.00    154842.30
 1304.65        2968.75           1472       33504.00    146664.80
 1304.68        2969.00           1476       31327.00    137093.60
 1304.71        2969.25           1479       29730.00    130075.90
 1304.74        2969.50           1482       27972.00    122354.10
 1304.77        2969.75           1486       25767.00    112674.00
 1304.80        2970.00           1489       24045.00    105118.30
 1304.84        2970.25           1492       22407.00     97934.22
 1304.87        2970.50           1496       20176.00     88154.36
 1304.90        2970.75           1499       18440.00     80548.38
 1304.93        2971.00           1502       16618.00     72569.33
 1304.96        2971.25           1506       14145.00     61745.49
 1304.99        2971.50           1509       12286.00     53613.63
 1305.02        2971.75           1513       10053.00     43851.03
 1305.05        2972.00           1516        8345.00     36387.57
 1305.08        2972.25           1519        6504.00     28346.68
 1305.11        2972.50           1523        4473.00     19480.43
 1305.14        2972.75           1526        2941.00     12795.67
 1305.17        2973.00           1529        1444.00      6266.22
 1305.21        2973.25           1533         541.00      2328.85
 1305.24        2973.50           1536         369.00      1578.98
 1305.27        2973.75           1539         307.00      1308.68
 1305.30        2974.00           1543         251.00      1064.55
 1305.33        2974.25           1546         190.00       798.62
 1305.36        2974.50           1549         142.00       589.37
 1305.39        2974.75           1553          96.00       388.85
 1305.42        2975.00           1556          64.00       249.35
 1305.45        2975.25           1559          51.00       192.68
 1305.48        2975.50           1563          45.00       166.52
 1305.51        2975.75           1566          40.00       144.73
 1305.54        2976.00           1569          46.00       170.88
 1305.58        2976.25           1573          42.00       153.44
 1305.61        2976.50           1576          43.00       157.80
 1305.64        2976.75           1579          41.00       149.09
 1305.67        2977.00           1583          43.00       157.80
 1305.70        2977.25           1586          45.00       166.52
 1305.73        2977.50           1590          46.00       170.88
 1305.76        2977.75           1593          48.00       179.60
 1305.79        2978.00           1596          41.00       149.09
 1305.82        2978.25           1600          44.00       162.16
 1305.85        2978.50           1603          46.00       170.88
 1305.88        2978.75           1606          39.00       140.37
 1305.91        2979.00           1610          53.00       201.40
 1305.94        2979.25           1613          52.00       197.04
 1305.98        2979.50           1616          52.00       197.04
 1306.01        2979.75           1620          47.00       175.24
 1306.04        2980.00           1623          41.00       149.09
 1306.07        2980.25           1626          52.00       197.04
 1306.10        2980.50           1630          38.00       136.01
 1306.13        2980.75           1633          47.00       175.24
 1306.16        2981.00           1637          43.00       157.80
 1306.19        2981.25           1640          38.00       136.01
 1306.22        2981.50           1643          40.00       144.73
 1306.25        2981.75           1647          47.00       175.24
 1306.28        2982.00           1650          47.00       175.24
 1306.31        2982.25           1653          44.00       162.16
 1306.34        2982.50           1657          34.00       118.57
 1306.37        2982.75           1660          59.00       227.55
 1306.40        2983.00           1663          38.00       136.01
 1306.44        2983.25           1667          45.00       166.52
 1306.47        2983.50           1670          52.00       197.04
 1306.50        2983.75           1673          40.00       144.73
 1306.53        2984.00           1677          45.00       166.52
HS scan finished at 21:46:45
end
