************************************************************
  HS Scan of (1) Internal mercury lamp
************************************************************
Integration time is 0.2294 seconds per sample
dh080718Manchester 53.47 2.23 2.965129pr1000
************************************************************
Dead Time -------------------------  3E-08 
Number of Cycles Used -------------  4 
Starting Wavelength (Angstroms) ---  2950 
Final Wavelength (Angstoms) -------  2984 
Wavelength Increment (Angstroms) --  .25 
Filter Wheel #1 Position ---------- (1) Ground quartz diffuser (ND=2.32)
Filter Wheel #2 Position ---------- (1) Neutral Density 0.494



************************************************************
HS scan start time = 01:30:41
Dark Count =  4.4 


Time (GMT)  Wavelength (Ang)  Step Number  Raw Counts  Counts/Second

   91.06        2950.00           1222          59.00       238.01
   91.13        2950.25           1226          57.00       229.30
   91.16        2950.50           1229          53.00       211.86
   91.19        2950.75           1232          55.00       220.58
   91.22        2951.00           1236          47.00       185.70
   91.25        2951.25           1239          50.00       198.78
   91.28        2951.50           1242          49.00       194.42
   91.31        2951.75           1246          57.00       229.30
   91.34        2952.00           1249          56.00       224.94
   91.37        2952.25           1252          53.00       211.86
   91.40        2952.50           1256          54.00       216.22
   91.44        2952.75           1259          58.00       233.65
   91.47        2953.00           1262          58.00       233.65
   91.50        2953.25           1266          54.00       216.22
   91.53        2953.50           1269          56.00       224.94
   91.56        2953.75           1272          58.00       233.65
   91.59        2954.00           1276          52.00       207.50
   91.62        2954.25           1279          58.00       233.65
   91.65        2954.50           1282          51.00       203.14
   91.68        2954.75           1286          55.00       220.58
   91.72        2955.00           1289          62.00       251.09
   91.75        2955.25           1292          52.00       207.50
   91.78        2955.50           1296          52.00       207.50
   91.81        2955.75           1299          61.00       246.73
   91.84        2956.00           1302          53.00       211.86
   91.87        2956.25           1306          56.00       224.94
   91.90        2956.50           1309          55.00       220.58
   91.93        2956.75           1312          54.00       216.22
   91.96        2957.00           1316          60.00       242.37
   91.99        2957.25           1319          52.00       207.50
   92.03        2957.50           1322          57.00       229.30
   92.06        2957.75           1326          53.00       211.86
   92.09        2958.00           1329          51.00       203.14
   92.12        2958.25           1332          47.00       185.70
   92.15        2958.50           1336          54.00       216.22
   92.18        2958.75           1339          55.00       220.58
   92.21        2959.00           1342          78.00       320.84
   92.24        2959.25           1346          54.00       216.22
   92.27        2959.50           1349          61.00       246.73
   92.31        2959.75           1352          76.00       312.12
   92.34        2960.00           1356         101.00       421.10
   92.37        2960.25           1359         137.00       578.04
   92.40        2960.50           1362         171.00       726.26
   92.43        2960.75           1366         200.00       852.68
   92.46        2961.00           1369         243.00      1040.14
   92.49        2961.25           1372         291.00      1249.39
   92.52        2961.50           1376         356.00      1532.76
   92.55        2961.75           1379         509.00      2199.80
   92.58        2962.00           1382        1091.00      4737.38
   92.61        2962.25           1386        2776.00     12086.34
   92.65        2962.50           1389        4262.00     18570.07
   92.68        2962.75           1392        5698.00     24838.03
   92.71        2963.00           1396        7666.00     33431.95
   92.74        2963.25           1399        9173.00     40015.75
   92.77        2963.50           1402       10567.00     46108.21
   92.80        2963.75           1406       12539.00     54730.60
   92.83        2964.00           1409       14156.00     61804.11
   92.86        2964.25           1412       15630.00     68254.71
   92.90        2964.50           1416       17591.00     76840.40
   92.93        2964.75           1419       19153.00     83682.36
   92.96        2965.00           1422       20539.00     89755.74
   92.99        2965.25           1426       22611.00     98839.29
   93.02        2965.50           1429       24234.00    105957.90
   93.05        2965.75           1432       25672.00    112267.60
   93.08        2966.00           1436       27887.00    121991.40
   93.11        2966.25           1439       29393.00    128606.00
   93.14        2966.50           1442       30526.00    133584.00
   93.17        2966.75           1446       31916.00    139693.20
   93.21        2967.00           1449       32459.00    142080.40
   93.24        2967.25           1452       32530.00    142392.50
   93.27        2967.50           1456       32273.00    141262.60
   93.30        2967.75           1459       32463.00    142097.90
   93.33        2968.00           1462       32315.00    141447.30
   93.36        2968.25           1466       31241.00    136726.20
   93.39        2968.50           1469       30041.00    131452.90
   93.42        2968.75           1472       28688.00    125509.20
   93.45        2969.00           1476       26710.00    116823.70
   93.49        2969.25           1479       25031.00    109454.70
   93.52        2969.50           1482       23820.00    104141.80
   93.55        2969.75           1486       21673.00     94726.53
   93.58        2970.00           1489       20383.00     89072.06
   93.61        2970.25           1492       18972.00     82889.40
   93.64        2970.50           1496       16920.00     73902.11
   93.67        2970.75           1499       15429.00     67374.93
   93.70        2971.00           1502       14055.00     61362.21
   93.73        2971.25           1506       11930.00     52067.32
   93.77        2971.50           1509       10348.00     45150.92
   93.80        2971.75           1513        8407.00     36668.91
   93.83        2972.00           1516        6979.00     30431.43
   93.86        2972.25           1519        5401.00     23541.47
   93.89        2972.50           1523        3345.00     14568.70
   93.92        2972.75           1526        1938.00      8431.08
   93.95        2973.00           1529         799.00      3464.18
   93.98        2973.25           1533         381.00      1641.75
   94.01        2973.50           1536         323.00      1388.90
   94.05        2973.75           1539         279.00      1197.08
   94.08        2974.00           1543         207.00       883.20
   94.11        2974.25           1546         161.00       682.66
   94.14        2974.50           1549         142.00       599.84
   94.17        2974.75           1553          96.00       399.31
   94.20        2975.00           1556          75.00       307.76
   94.23        2975.25           1559          55.00       220.58
   94.26        2975.50           1563          62.00       251.09
   94.29        2975.75           1566          54.00       216.22
   94.33        2976.00           1569          49.00       194.42
   94.36        2976.25           1573          57.00       229.30
   94.39        2976.50           1576          51.00       203.14
   94.42        2976.75           1579          57.00       229.30
   94.45        2977.00           1583          52.00       207.50
   94.48        2977.25           1586          56.00       224.94
   94.51        2977.50           1590          52.00       207.50
   94.54        2977.75           1593          49.00       194.42
   94.57        2978.00           1596          54.00       216.22
   94.61        2978.25           1600          53.00       211.86
   94.64        2978.50           1603          54.00       216.22
   94.67        2978.75           1606          59.00       238.01
   94.70        2979.00           1610          54.00       216.22
   94.73        2979.25           1613          51.00       203.14
   94.76        2979.50           1616          51.00       203.14
   94.79        2979.75           1620          52.00       207.50
   94.82        2980.00           1623          47.00       185.70
   94.85        2980.25           1626          57.00       229.30
   94.88        2980.50           1630          53.00       211.86
   94.92        2980.75           1633          49.00       194.42
   94.95        2981.00           1637          59.00       238.01
   94.98        2981.25           1640          53.00       211.86
   95.01        2981.50           1643          50.00       198.78
   95.04        2981.75           1647          57.00       229.30
   95.07        2982.00           1650          48.00       190.06
   95.10        2982.25           1653          53.00       211.86
   95.13        2982.50           1657          59.00       238.01
   95.16        2982.75           1660          45.00       176.98
   95.19        2983.00           1663          45.00       176.98
   95.23        2983.25           1667          50.00       198.78
   95.26        2983.50           1670          46.00       181.34
   95.29        2983.75           1673          49.00       194.42
   95.32        2984.00           1677          51.00       203.14
HS scan finished at 01:35:32
end
************************************************************
  HS Scan of (1) Internal mercury lamp
************************************************************
Integration time is 0.2294 seconds per sample
dh080718Manchester 53.47 2.23 3.179721pr1000
************************************************************
Dead Time -------------------------  3E-08 
Number of Cycles Used -------------  4 
Starting Wavelength (Angstroms) ---  2950 
Final Wavelength (Angstoms) -------  2984 
Wavelength Increment (Angstroms) --  .25 
Filter Wheel #1 Position ---------- (1) Ground quartz diffuser (ND=2.32)
Filter Wheel #2 Position ---------- (1) Neutral Density 0.494



************************************************************
HS scan start time = 21:42:09
Dark Count =  6.5 


Time (GMT)  Wavelength (Ang)  Step Number  Raw Counts  Counts/Second

 1302.52        2950.00           1222          59.00       228.86
 1302.59        2950.25           1226          49.00       185.27
 1302.62        2950.50           1229          56.00       215.78
 1302.65        2950.75           1232          52.00       198.34
 1302.68        2951.00           1236          49.00       185.27
 1302.71        2951.25           1239          55.00       211.42
 1302.74        2951.50           1242          53.00       202.70
 1302.78        2951.75           1246          52.00       198.34
 1302.81        2952.00           1249          55.00       211.42
 1302.84        2952.25           1252          57.00       220.14
 1302.87        2952.50           1256          48.00       180.91
 1302.90        2952.75           1259          53.00       202.70
 1302.93        2953.00           1262          52.00       198.34
 1302.96        2953.25           1266          48.00       180.91
 1302.99        2953.50           1269          54.00       207.06
 1303.02        2953.75           1272          50.00       189.63
 1303.06        2954.00           1276          47.00       176.55
 1303.09        2954.25           1279          44.00       163.47
 1303.12        2954.50           1282          51.00       193.99
 1303.15        2954.75           1286          61.00       237.58
 1303.18        2955.00           1289          48.00       180.91
 1303.21        2955.25           1292          52.00       198.34
 1303.24        2955.50           1296          54.00       207.06
 1303.27        2955.75           1299          56.00       215.78
 1303.30        2956.00           1302          56.00       215.78
 1303.33        2956.25           1306          62.00       241.94
 1303.36        2956.50           1309          52.00       198.34
 1303.40        2956.75           1312          53.00       202.70
 1303.43        2957.00           1316          54.00       207.06
 1303.46        2957.25           1319          51.00       193.99
 1303.49        2957.50           1322          52.00       198.34
 1303.52        2957.75           1326          53.00       202.70
 1303.55        2958.00           1329          62.00       241.94
 1303.58        2958.25           1332          60.00       233.22
 1303.61        2958.50           1336          56.00       215.78
 1303.64        2958.75           1339          54.00       207.06
 1303.67        2959.00           1342          47.00       176.55
 1303.71        2959.25           1346          55.00       211.42
 1303.74        2959.50           1349          60.00       233.22
 1303.77        2959.75           1352          70.00       276.81
 1303.80        2960.00           1356         109.00       446.82
 1303.83        2960.25           1359         150.00       625.56
 1303.86        2960.50           1362         187.00       786.85
 1303.89        2960.75           1366         252.00      1070.22
 1303.92        2961.00           1369         270.00      1148.69
 1303.95        2961.25           1372         313.00      1336.15
 1303.99        2961.50           1376         396.00      1697.99
 1304.02        2961.75           1379         619.00      2670.22
 1304.05        2962.00           1382        1486.00      6450.68
 1304.08        2962.25           1386        3345.00     14559.54
 1304.11        2962.50           1389        4866.00     21197.00
 1304.14        2962.75           1392        6463.00     28168.96
 1304.17        2963.00           1396        8448.00     36838.86
 1304.20        2963.25           1399       10086.00     43996.57
 1304.23        2963.50           1402       11403.00     49753.81
 1304.27        2963.75           1406       13677.00     59699.24
 1304.30        2964.00           1409       15161.00     66192.79
 1304.33        2964.25           1412       16662.00     72763.28
 1304.36        2964.50           1416       18775.00     82017.18
 1304.39        2964.75           1419       20288.00     88646.51
 1304.42        2965.00           1422       22157.00     96839.34
 1304.45        2965.25           1426       24295.00    106216.30
 1304.48        2965.50           1429       26007.00    113728.70
 1304.51        2965.75           1432       27539.00    120454.10
 1304.54        2966.00           1436       29517.00    129141.50
 1304.58        2966.25           1439       31290.00    136932.30
 1304.61        2966.50           1442       32339.00    141543.50
 1304.64        2966.75           1446       33902.00    148416.60
 1304.67        2967.00           1449       34376.00    150501.50
 1304.70        2967.25           1452       34361.00    150435.50
 1304.73        2967.50           1456       34173.00    149608.50
 1304.76        2967.75           1459       34325.00    150277.10
 1304.79        2968.00           1462       34155.00    149529.40
 1304.83        2968.25           1466       33052.00    144678.50
 1304.86        2968.50           1469       31676.00    138629.00
 1304.89        2968.75           1472       30269.00    132445.40
 1304.92        2969.00           1476       28210.00    123400.60
 1304.95        2969.25           1479       26794.00    117183.30
 1304.98        2969.50           1482       25045.00    109507.00
 1305.01        2969.75           1486       22796.00     99641.35
 1305.04        2970.00           1489       21419.00     93603.81
 1305.07        2970.25           1492       19999.00     87380.02
 1305.10        2970.50           1496       17899.00     78180.10
 1305.14        2970.75           1499       16027.00     69983.31
 1305.17        2971.00           1502       14527.00     63418.28
 1305.20        2971.25           1506       12319.00     53759.26
 1305.23        2971.50           1509       10870.00     47423.57
 1305.26        2971.75           1513        8645.00     37699.55
 1305.29        2972.00           1516        7062.00     30784.74
 1305.32        2972.25           1519        5415.00     23593.42
 1305.35        2972.50           1523        3491.00     15196.55
 1305.38        2972.75           1526        1988.00      8639.99
 1305.42        2973.00           1529         776.00      3354.74
 1305.45        2973.25           1533         398.00      1706.71
 1305.48        2973.50           1536         320.00      1366.66
 1305.51        2973.75           1539         260.00      1105.09
 1305.54        2974.00           1543         217.00       917.64
 1305.57        2974.25           1546         140.00       581.96
 1305.60        2974.50           1549         112.00       459.90
 1305.63        2974.75           1553          88.00       355.28
 1305.66        2975.00           1556          64.00       250.66
 1305.70        2975.25           1559          56.00       215.78
 1305.73        2975.50           1563          59.00       228.86
 1305.76        2975.75           1566          58.00       224.50
 1305.79        2976.00           1569          59.00       228.86
 1305.82        2976.25           1573          52.00       198.34
 1305.85        2976.50           1576          55.00       211.42
 1305.88        2976.75           1579          53.00       202.70
 1305.91        2977.00           1583          55.00       211.42
 1305.94        2977.25           1586          55.00       211.42
 1305.98        2977.50           1590          60.00       233.22
 1306.01        2977.75           1593          54.00       207.06
 1306.04        2978.00           1596          48.00       180.91
 1306.07        2978.25           1600          58.00       224.50
 1306.10        2978.50           1603          61.00       237.58
 1306.13        2978.75           1606          58.00       224.50
 1306.16        2979.00           1610          52.00       198.34
 1306.19        2979.25           1613          51.00       193.99
 1306.22        2979.50           1616          57.00       220.14
 1306.25        2979.75           1620          49.00       185.27
 1306.29        2980.00           1623          50.00       189.63
 1306.32        2980.25           1626          42.00       154.75
 1306.35        2980.50           1630          48.00       180.91
 1306.38        2980.75           1633          54.00       207.06
 1306.41        2981.00           1637          53.00       202.70
 1306.44        2981.25           1640          49.00       185.27
 1306.47        2981.50           1643          52.00       198.34
 1306.50        2981.75           1647          47.00       176.55
 1306.53        2982.00           1650          60.00       233.22
 1306.56        2982.25           1653          45.00       167.83
 1306.59        2982.50           1657          49.00       185.27
 1306.62        2982.75           1660          42.00       154.75
 1306.66        2983.00           1663          53.00       202.70
 1306.69        2983.25           1667          51.00       193.99
 1306.72        2983.50           1670          46.00       172.19
 1306.75        2983.75           1673          51.00       193.99
 1306.78        2984.00           1677          52.00       198.34
HS scan finished at 21:47:00
end
