************************************************************
  HS Scan of (1) Internal mercury lamp
************************************************************
Integration time is 0.2294 seconds per sample
dh060718Manchester 53.47 2.23 2.857833pr1000
************************************************************
Dead Time -------------------------  3E-08 
Number of Cycles Used -------------  4 
Starting Wavelength (Angstroms) ---  2950 
Final Wavelength (Angstoms) -------  2984 
Wavelength Increment (Angstroms) --  .25 
Filter Wheel #1 Position ---------- (1) Ground quartz diffuser (ND=2.32)
Filter Wheel #2 Position ---------- (1) Neutral Density 0.494



************************************************************
HS scan start time = 01:37:45
Dark Count =  5.3 


Time (GMT)  Wavelength (Ang)  Step Number  Raw Counts  Counts/Second

   98.12        2950.00           1222          57.00       225.37
   98.18        2950.25           1226          56.00       221.01
   98.21        2950.50           1229          53.00       207.94
   98.24        2950.75           1232          60.00       238.45
   98.27        2951.00           1236          53.00       207.94
   98.31        2951.25           1239          50.00       194.86
   98.34        2951.50           1242          56.00       221.01
   98.37        2951.75           1246          52.00       203.58
   98.40        2952.00           1249          59.00       234.09
   98.43        2952.25           1252          52.00       203.58
   98.46        2952.50           1256          53.00       207.94
   98.49        2952.75           1259          54.00       212.29
   98.52        2953.00           1262          49.00       190.50
   98.55        2953.25           1266          54.00       212.29
   98.59        2953.50           1269          49.00       190.50
   98.62        2953.75           1272          53.00       207.94
   98.65        2954.00           1276          55.00       216.65
   98.68        2954.25           1279          59.00       234.09
   98.71        2954.50           1282          58.00       229.73
   98.74        2954.75           1286          61.00       242.81
   98.77        2955.00           1289          49.00       190.50
   98.80        2955.25           1292          56.00       221.01
   98.83        2955.50           1296          58.00       229.73
   98.86        2955.75           1299          53.00       207.94
   98.89        2956.00           1302          54.00       212.29
   98.92        2956.25           1306          56.00       221.01
   98.96        2956.50           1309          48.00       186.14
   98.99        2956.75           1312          47.00       181.78
   99.02        2957.00           1316          51.00       199.22
   99.05        2957.25           1319          53.00       207.94
   99.08        2957.50           1322          53.00       207.94
   99.11        2957.75           1326          58.00       229.73
   99.14        2958.00           1329          58.00       229.73
   99.17        2958.25           1332          54.00       212.29
   99.20        2958.50           1336          63.00       251.53
   99.24        2958.75           1339          56.00       221.01
   99.27        2959.00           1342          53.00       207.94
   99.30        2959.25           1346          59.00       234.09
   99.33        2959.50           1349          61.00       242.81
   99.36        2959.75           1352          75.00       303.84
   99.39        2960.00           1356         106.00       438.98
   99.42        2960.25           1359         135.00       565.40
   99.45        2960.50           1362         172.00       726.69
   99.48        2960.75           1366         237.00      1010.06
   99.52        2961.00           1369         259.00      1105.97
   99.55        2961.25           1372         293.00      1254.19
   99.58        2961.50           1376         370.00      1589.88
   99.61        2961.75           1379         496.00      2139.20
   99.64        2962.00           1382         966.00      4188.41
   99.67        2962.25           1386        2649.00     11528.40
   99.70        2962.50           1389        4085.00     17793.72
   99.73        2962.75           1392        5485.00     23904.24
   99.76        2963.00           1396        7308.00     31864.36
   99.79        2963.25           1399        8673.00     37827.13
   99.82        2963.50           1402       10115.00     44128.57
   99.86        2963.75           1406       12098.00     52798.05
   99.89        2964.00           1409       13445.00     58689.57
   99.92        2964.25           1412       15051.00     65716.62
   99.95        2964.50           1416       16837.00     73534.75
   99.98        2964.75           1419       18355.00     80182.62
  100.01        2965.00           1422       19682.00     85996.21
  100.04        2965.25           1426       21710.00     94884.79
  100.07        2965.50           1429       23090.00    100936.00
  100.11        2965.75           1432       24693.00    107967.70
  100.14        2966.00           1436       26384.00    115388.70
  100.17        2966.25           1439       27785.00    121539.60
  100.20        2966.50           1442       29290.00    128149.50
  100.23        2966.75           1446       30297.00    132573.80
  100.26        2967.00           1449       30976.00    135557.60
  100.29        2967.25           1452       30828.00    134907.10
  100.32        2967.50           1456       30621.00    133997.50
  100.35        2967.75           1459       30896.00    135206.00
  100.39        2968.00           1462       30764.00    134625.90
  100.42        2968.25           1466       29831.00    130526.20
  100.45        2968.50           1469       28457.00    124490.70
  100.48        2968.75           1472       27136.00    118690.00
  100.51        2969.00           1476       25403.00    111083.20
  100.54        2969.25           1479       23865.00    104335.20
  100.57        2969.50           1482       22352.00     97699.62
  100.60        2969.75           1486       20674.00     90343.49
  100.63        2970.00           1489       19110.00     83490.02
  100.67        2970.25           1492       17891.00     78150.31
  100.70        2970.50           1496       16121.00     70400.06
  100.73        2970.75           1499       14646.00     63944.26
  100.76        2971.00           1502       13144.00     57372.86
  100.79        2971.25           1506       11199.00     48867.15
  100.82        2971.50           1509        9707.00     42345.39
  100.85        2971.75           1513        7917.00     34524.41
  100.88        2972.00           1516        6503.00     28348.86
  100.92        2972.25           1519        5166.00     22511.71
  100.95        2972.50           1523        3424.00     14909.46
  100.98        2972.75           1526        2085.00      9068.29
  101.01        2973.00           1529         956.00      4144.80
  101.04        2973.25           1533         376.00      1616.03
  101.07        2973.50           1536         261.00      1114.68
  101.10        2973.75           1539         232.00       988.26
  101.13        2974.00           1543         182.00       770.29
  101.16        2974.25           1546         134.00       561.04
  101.20        2974.50           1549         111.00       460.77
  101.23        2974.75           1553          70.00       282.04
  101.26        2975.00           1556          67.00       268.96
  101.29        2975.25           1559          59.00       234.09
  101.32        2975.50           1563          56.00       221.01
  101.35        2975.75           1566          55.00       216.65
  101.38        2976.00           1569          58.00       229.73
  101.41        2976.25           1573          49.00       190.50
  101.44        2976.50           1576          49.00       190.50
  101.47        2976.75           1579          59.00       234.09
  101.51        2977.00           1583          55.00       216.65
  101.54        2977.25           1586          55.00       216.65
  101.57        2977.50           1590          48.00       186.14
  101.60        2977.75           1593          53.00       207.94
  101.63        2978.00           1596          52.00       203.58
  101.66        2978.25           1600          55.00       216.65
  101.69        2978.50           1603          52.00       203.58
  101.72        2978.75           1606          56.00       221.01
  101.75        2979.00           1610          51.00       199.22
  101.78        2979.25           1613          54.00       212.29
  101.82        2979.50           1616          48.00       186.14
  101.85        2979.75           1620          50.00       194.86
  101.88        2980.00           1623          49.00       190.50
  101.91        2980.25           1626          51.00       199.22
  101.94        2980.50           1630          45.00       173.06
  101.97        2980.75           1633          56.00       221.01
  102.00        2981.00           1637          48.00       186.14
  102.03        2981.25           1640          48.00       186.14
  102.06        2981.50           1643          54.00       212.29
  102.09        2981.75           1647          41.00       155.62
  102.12        2982.00           1650          56.00       221.01
  102.16        2982.25           1653          53.00       207.94
  102.19        2982.50           1657          48.00       186.14
  102.22        2982.75           1660          49.00       190.50
  102.25        2983.00           1663          52.00       203.58
  102.28        2983.25           1667          53.00       207.94
  102.31        2983.50           1670          50.00       194.86
  102.34        2983.75           1673          47.00       181.78
  102.37        2984.00           1677          55.00       216.65
HS scan finished at 01:42:35
end
************************************************************
  HS Scan of (1) Internal mercury lamp
************************************************************
Integration time is 0.2294 seconds per sample
dh060718Manchester 53.47 2.23 3.072425pr1000
************************************************************
Dead Time -------------------------  3E-08 
Number of Cycles Used -------------  4 
Starting Wavelength (Angstroms) ---  2950 
Final Wavelength (Angstoms) -------  2984 
Wavelength Increment (Angstroms) --  .25 
Filter Wheel #1 Position ---------- (1) Ground quartz diffuser (ND=2.32)
Filter Wheel #2 Position ---------- (1) Neutral Density 0.494



************************************************************
HS scan start time = 21:43:24
Dark Count =  9 


Time (GMT)  Wavelength (Ang)  Step Number  Raw Counts  Counts/Second

 1303.77        2950.00           1222          51.00       183.09
 1303.84        2950.25           1226          63.00       235.40
 1303.87        2950.50           1229          53.00       191.81
 1303.90        2950.75           1232          49.00       174.37
 1303.93        2951.00           1236          59.00       217.96
 1303.96        2951.25           1239          55.00       200.52
 1304.00        2951.50           1242          53.00       191.81
 1304.03        2951.75           1246          54.00       196.17
 1304.06        2952.00           1249          56.00       204.88
 1304.09        2952.25           1252          53.00       191.81
 1304.12        2952.50           1256          54.00       196.17
 1304.15        2952.75           1259          53.00       191.81
 1304.18        2953.00           1262          61.00       226.68
 1304.21        2953.25           1266          53.00       191.81
 1304.24        2953.50           1269          57.00       209.24
 1304.27        2953.75           1272          64.00       239.76
 1304.30        2954.00           1276          60.00       222.32
 1304.34        2954.25           1279          54.00       196.17
 1304.37        2954.50           1282          54.00       196.17
 1304.40        2954.75           1286          57.00       209.24
 1304.43        2955.00           1289          56.00       204.88
 1304.46        2955.25           1292          55.00       200.52
 1304.49        2955.50           1296          54.00       196.17
 1304.52        2955.75           1299          53.00       191.81
 1304.55        2956.00           1302          55.00       200.52
 1304.58        2956.25           1306          63.00       235.40
 1304.61        2956.50           1309          55.00       200.52
 1304.64        2956.75           1312          51.00       183.09
 1304.68        2957.00           1316          56.00       204.88
 1304.71        2957.25           1319          49.00       174.37
 1304.74        2957.50           1322          55.00       200.52
 1304.77        2957.75           1326          51.00       183.09
 1304.80        2958.00           1329          56.00       204.88
 1304.83        2958.25           1332          50.00       178.73
 1304.86        2958.50           1336          55.00       200.52
 1304.89        2958.75           1339          61.00       226.68
 1304.92        2959.00           1342          55.00       200.52
 1304.95        2959.25           1346          56.00       204.88
 1304.99        2959.50           1349          77.00       296.43
 1305.02        2959.75           1352          78.00       300.79
 1305.05        2960.00           1356         118.00       475.16
 1305.08        2960.25           1359         154.00       632.10
 1305.11        2960.50           1362         203.00       845.71
 1305.14        2960.75           1366         241.00      1011.36
 1305.17        2961.00           1369         291.00      1229.34
 1305.20        2961.25           1372         336.00      1425.52
 1305.23        2961.50           1376         397.00      1691.45
 1305.26        2961.75           1379         530.00      2271.30
 1305.29        2962.00           1382        1095.00      4734.76
 1305.33        2962.25           1386        2932.00     12746.81
 1305.36        2962.50           1389        4338.00     18881.66
 1305.39        2962.75           1392        5720.00     24914.00
 1305.42        2963.00           1396        7828.00     34119.48
 1305.45        2963.25           1399        9241.00     40292.79
 1305.48        2963.50           1402       10526.00     45908.87
 1305.51        2963.75           1406       12749.00     55628.94
 1305.54        2964.00           1409       14441.00     63031.02
 1305.57        2964.25           1412       16181.00     70646.53
 1305.61        2964.50           1416       18324.00     80030.63
 1305.64        2964.75           1419       19807.00     86527.72
 1305.67        2965.00           1422       21197.00     92619.68
 1305.70        2965.25           1426       23483.00    102643.40
 1305.73        2965.50           1429       25152.00    109965.50
 1305.76        2965.75           1432       26668.00    116619.20
 1305.79        2966.00           1436       28821.00    126073.10
 1305.82        2966.25           1439       30631.00    134025.20
 1305.86        2966.50           1442       31885.00    139536.70
 1305.89        2966.75           1446       33275.00    145648.10
 1305.92        2967.00           1449       33618.00    147156.50
 1305.95        2967.25           1452       33571.00    146949.80
 1305.98        2967.50           1456       33412.00    146250.60
 1306.01        2967.75           1459       33558.00    146892.60
 1306.04        2968.00           1462       33420.00    146285.80
 1306.07        2968.25           1466       32353.00    141594.10
 1306.10        2968.50           1469       31030.00    135778.60
 1306.14        2968.75           1472       29671.00    129807.10
 1306.17        2969.00           1476       27726.00    121264.20
 1306.20        2969.25           1479       26217.00    114639.50
 1306.23        2969.50           1482       24431.00    106802.00
 1306.26        2969.75           1486       22288.00     97402.78
 1306.29        2970.00           1489       20758.00     90695.43
 1306.32        2970.25           1492       19248.00     84078.42
 1306.35        2970.50           1496       17210.00     75151.81
 1306.38        2970.75           1499       15717.00     68615.38
 1306.42        2971.00           1502       14302.00     62422.81
 1306.45        2971.25           1506       12222.00     53324.12
 1306.48        2971.50           1509       10882.00     47465.10
 1306.51        2971.75           1513        8700.00     37928.93
 1306.54        2972.00           1516        7151.00     31162.51
 1306.57        2972.25           1519        5709.00     24865.97
 1306.60        2972.50           1523        3649.00     15875.04
 1306.63        2972.75           1526        2158.00      9370.55
 1306.66        2973.00           1529         916.00      3954.26
 1306.69        2973.25           1533         424.00      1809.17
 1306.73        2973.50           1536         319.00      1351.41
 1306.76        2973.75           1539         265.00      1115.99
 1306.79        2974.00           1543         225.00       941.61
 1306.82        2974.25           1546         169.00       697.49
 1306.85        2974.50           1549         126.00       510.03
 1306.88        2974.75           1553          93.00       366.18
 1306.91        2975.00           1556          68.00       257.19
 1306.94        2975.25           1559          64.00       239.76
 1306.97        2975.50           1563          54.00       196.17
 1307.01        2975.75           1566          54.00       196.17
 1307.04        2976.00           1569          54.00       196.17
 1307.07        2976.25           1573          50.00       178.73
 1307.10        2976.50           1576          54.00       196.17
 1307.13        2976.75           1579          48.00       170.01
 1307.16        2977.00           1583          49.00       174.37
 1307.19        2977.25           1586          59.00       217.96
 1307.22        2977.50           1590          54.00       196.17
 1307.25        2977.75           1593          53.00       191.81
 1307.28        2978.00           1596          54.00       196.17
 1307.32        2978.25           1600          54.00       196.17
 1307.35        2978.50           1603          46.00       161.29
 1307.38        2978.75           1606          52.00       187.45
 1307.41        2979.00           1610          54.00       196.17
 1307.44        2979.25           1613          49.00       174.37
 1307.47        2979.50           1616          48.00       170.01
 1307.50        2979.75           1620          55.00       200.52
 1307.53        2980.00           1623          48.00       170.01
 1307.56        2980.25           1626          46.00       161.29
 1307.59        2980.50           1630          46.00       161.29
 1307.62        2980.75           1633          50.00       178.73
 1307.66        2981.00           1637          51.00       183.09
 1307.69        2981.25           1640          51.00       183.09
 1307.72        2981.50           1643          49.00       174.37
 1307.75        2981.75           1647          50.00       178.73
 1307.78        2982.00           1650          50.00       178.73
 1307.81        2982.25           1653          49.00       174.37
 1307.84        2982.50           1657          49.00       174.37
 1307.87        2982.75           1660          50.00       178.73
 1307.90        2983.00           1663          50.00       178.73
 1307.93        2983.25           1667          50.00       178.73
 1307.97        2983.50           1670          58.00       213.60
 1308.00        2983.75           1673          51.00       183.09
 1308.03        2984.00           1677          48.00       170.01
HS scan finished at 21:48:15
end
