************************************************************
  HS Scan of (1) Internal mercury lamp
************************************************************
Integration time is 0.2294 seconds per sample
dh300618Manchester 53.47 2.23 2.804185pr1000
************************************************************
Dead Time -------------------------  3E-08 
Number of Cycles Used -------------  4 
Starting Wavelength (Angstroms) ---  2950 
Final Wavelength (Angstoms) -------  2984 
Wavelength Increment (Angstroms) --  .25 
Filter Wheel #1 Position ---------- (1) Ground quartz diffuser (ND=2.32)
Filter Wheel #2 Position ---------- (1) Neutral Density 0.494



************************************************************
HS scan start time = 01:27:36
Dark Count =  4.1 


Time (GMT)  Wavelength (Ang)  Step Number  Raw Counts  Counts/Second

   87.96        2950.00           1222          61.00       248.04
   88.03        2950.25           1226          52.00       208.81
   88.06        2950.50           1229          58.00       234.96
   88.09        2950.75           1232          43.00       169.57
   88.12        2951.00           1236          49.00       195.73
   88.15        2951.25           1239          53.00       213.17
   88.18        2951.50           1242          51.00       204.45
   88.22        2951.75           1246          44.00       173.93
   88.25        2952.00           1249          48.00       191.37
   88.28        2952.25           1252          51.00       204.45
   88.31        2952.50           1256          62.00       252.40
   88.34        2952.75           1259          59.00       239.32
   88.37        2953.00           1262          49.00       195.73
   88.40        2953.25           1266          63.00       256.76
   88.43        2953.50           1269          60.00       243.68
   88.46        2953.75           1272          59.00       239.32
   88.49        2954.00           1276          55.00       221.88
   88.52        2954.25           1279          48.00       191.37
   88.55        2954.50           1282          57.00       230.60
   88.59        2954.75           1286          49.00       195.73
   88.62        2955.00           1289          51.00       204.45
   88.65        2955.25           1292          51.00       204.45
   88.68        2955.50           1296          50.00       200.09
   88.71        2955.75           1299          47.00       187.01
   88.74        2956.00           1302          52.00       208.81
   88.77        2956.25           1306          55.00       221.88
   88.80        2956.50           1309          56.00       226.24
   88.83        2956.75           1312          54.00       217.53
   88.86        2957.00           1316          53.00       213.17
   88.89        2957.25           1319          49.00       195.73
   88.92        2957.50           1322          56.00       226.24
   88.96        2957.75           1326          55.00       221.88
   88.99        2958.00           1329          75.00       309.07
   89.02        2958.25           1332          55.00       221.88
   89.05        2958.50           1336          54.00       217.53
   89.08        2958.75           1339          55.00       221.88
   89.11        2959.00           1342          59.00       239.32
   89.14        2959.25           1346          56.00       226.24
   89.17        2959.50           1349          66.00       269.84
   89.20        2959.75           1352          73.00       300.35
   89.23        2960.00           1356         103.00       431.13
   89.26        2960.25           1359         126.00       531.39
   89.30        2960.50           1362         164.00       697.05
   89.33        2960.75           1366         222.00       949.90
   89.36        2961.00           1369         261.00      1119.92
   89.39        2961.25           1372         306.00      1316.09
   89.42        2961.50           1376         340.00      1464.32
   89.45        2961.75           1379         444.00      1917.72
   89.48        2962.00           1382         808.00      3504.73
   89.51        2962.25           1386        2268.00      9871.71
   89.54        2962.50           1389        3583.00     15608.44
   89.58        2962.75           1392        4912.00     21408.25
   89.61        2963.00           1396        6829.00     29777.68
   89.64        2963.25           1399        8176.00     35661.06
   89.67        2963.50           1402        9545.00     41642.67
   89.70        2963.75           1406       11362.00     49585.05
   89.73        2964.00           1409       12796.00     55855.94
   89.76        2964.25           1412       14325.00     62544.89
   89.79        2964.50           1416       16350.00     71407.83
   89.82        2964.75           1419       17751.00     77542.43
   89.86        2965.00           1422       19176.00     83784.45
   89.89        2965.25           1426       21135.00     92369.39
   89.92        2965.50           1429       22673.00     99112.49
   89.95        2965.75           1432       24068.00    105231.00
   89.98        2966.00           1436       25982.00    113629.50
   90.01        2966.25           1439       27485.00    120227.60
   90.04        2966.50           1442       28725.00    125673.00
   90.07        2966.75           1446       30130.00    131845.20
   90.10        2967.00           1449       30577.00    133809.40
   90.14        2967.25           1452       30532.00    133611.60
   90.17        2967.50           1456       30471.00    133343.60
   90.20        2967.75           1459       30442.00    133216.20
   90.23        2968.00           1462       30341.00    132772.40
   90.26        2968.25           1466       29840.00    130571.10
   90.29        2968.50           1469       28489.00    124636.50
   90.32        2968.75           1472       27202.00    118985.00
   90.35        2969.00           1476       25163.00    110035.30
   90.38        2969.25           1479       23848.00    104265.90
   90.42        2969.50           1482       22428.00     98038.13
   90.45        2969.75           1486       20547.00     89792.12
   90.48        2970.00           1489       19209.00     83929.02
   90.51        2970.25           1492       17810.00     77800.82
   90.54        2970.50           1496       16116.00     70383.41
   90.57        2970.75           1499       14724.00     64290.84
   90.60        2971.00           1502       13403.00     58511.08
   90.63        2971.25           1506       11505.00     50210.28
   90.66        2971.50           1509       10042.00     43814.75
   90.70        2971.75           1513        8276.00     36097.92
   90.73        2972.00           1516        6731.00     29349.72
   90.76        2972.25           1519        5256.00     22909.81
   90.79        2972.50           1523        3406.00     14836.16
   90.82        2972.75           1526        2147.00      9343.94
   90.85        2973.00           1529         990.00      4298.29
   90.88        2973.25           1533         408.00      1760.77
   90.91        2973.50           1536         280.00      1202.75
   90.94        2973.75           1539         252.00      1080.68
   90.97        2974.00           1543         207.00       884.50
   91.00        2974.25           1546         145.00       614.22
   91.03        2974.50           1549         119.00       500.88
   91.07        2974.75           1553          83.00       343.94
   91.10        2975.00           1556          71.00       291.63
   91.13        2975.25           1559          62.00       252.40
   91.16        2975.50           1563          50.00       200.09
   91.19        2975.75           1566          53.00       213.17
   91.22        2976.00           1569          61.00       248.04
   91.25        2976.25           1573          55.00       221.88
   91.28        2976.50           1576          52.00       208.81
   91.31        2976.75           1579          51.00       204.45
   91.34        2977.00           1583          45.00       178.29
   91.37        2977.25           1586          63.00       256.76
   91.41        2977.50           1590          56.00       226.24
   91.44        2977.75           1593          55.00       221.88
   91.47        2978.00           1596          51.00       204.45
   91.50        2978.25           1600          49.00       195.73
   91.53        2978.50           1603          50.00       200.09
   91.56        2978.75           1606          53.00       213.17
   91.59        2979.00           1610          51.00       204.45
   91.62        2979.25           1613          53.00       213.17
   91.65        2979.50           1616          48.00       191.37
   91.68        2979.75           1620          54.00       217.53
   91.71        2980.00           1623          53.00       213.17
   91.75        2980.25           1626          51.00       204.45
   91.78        2980.50           1630          51.00       204.45
   91.81        2980.75           1633          56.00       226.24
   91.84        2981.00           1637          49.00       195.73
   91.87        2981.25           1640          54.00       217.53
   91.90        2981.50           1643          49.00       195.73
   91.93        2981.75           1647          44.00       173.93
   91.96        2982.00           1650          62.00       252.40
   91.99        2982.25           1653          53.00       213.17
   92.02        2982.50           1657          50.00       200.09
   92.05        2982.75           1660          57.00       230.60
   92.08        2983.00           1663          52.00       208.81
   92.11        2983.25           1667          51.00       204.45
   92.14        2983.50           1670          49.00       195.73
   92.17        2983.75           1673          54.00       217.53
   92.21        2984.00           1677          46.00       182.65
HS scan finished at 01:32:25
end
************************************************************
  HS Scan of (1) Internal mercury lamp
************************************************************
Integration time is 0.2294 seconds per sample
dh300618Manchester 53.47 2.23 3.018777pr1000
************************************************************
Dead Time -------------------------  3E-08 
Number of Cycles Used -------------  4 
Starting Wavelength (Angstroms) ---  2950 
Final Wavelength (Angstoms) -------  2984 
Wavelength Increment (Angstroms) --  .25 
Filter Wheel #1 Position ---------- (1) Ground quartz diffuser (ND=2.32)
Filter Wheel #2 Position ---------- (1) Neutral Density 0.494



************************************************************
HS scan start time = 21:42:10
Dark Count =  4.9 


Time (GMT)  Wavelength (Ang)  Step Number  Raw Counts  Counts/Second

 1302.53        2950.00           1222          64.00       257.63
 1302.60        2950.25           1226          53.00       209.68
 1302.63        2950.50           1229          59.00       235.83
 1302.66        2950.75           1232          58.00       231.48
 1302.69        2951.00           1236          52.00       205.32
 1302.72        2951.25           1239          55.00       218.40
 1302.75        2951.50           1242          55.00       218.40
 1302.78        2951.75           1246          61.00       244.55
 1302.81        2952.00           1249          57.00       227.12
 1302.84        2952.25           1252          52.00       205.32
 1302.87        2952.50           1256          57.00       227.12
 1302.90        2952.75           1259          56.00       222.76
 1302.93        2953.00           1262          49.00       192.24
 1302.96        2953.25           1266          56.00       222.76
 1302.99        2953.50           1269          63.00       253.27
 1303.03        2953.75           1272          59.00       235.83
 1303.06        2954.00           1276          56.00       222.76
 1303.09        2954.25           1279          60.00       240.19
 1303.12        2954.50           1282          57.00       227.12
 1303.15        2954.75           1286          52.00       205.32
 1303.18        2955.00           1289          54.00       214.04
 1303.21        2955.25           1292          51.00       200.96
 1303.24        2955.50           1296          57.00       227.12
 1303.27        2955.75           1299          45.00       174.80
 1303.30        2956.00           1302          57.00       227.12
 1303.33        2956.25           1306          52.00       205.32
 1303.37        2956.50           1309          52.00       205.32
 1303.40        2956.75           1312          58.00       231.48
 1303.43        2957.00           1316          48.00       187.88
 1303.46        2957.25           1319          62.00       248.91
 1303.49        2957.50           1322          66.00       266.35
 1303.52        2957.75           1326          62.00       248.91
 1303.55        2958.00           1329          56.00       222.76
 1303.58        2958.25           1332          55.00       218.40
 1303.61        2958.50           1336          55.00       218.40
 1303.64        2958.75           1339          46.00       179.16
 1303.68        2959.00           1342          53.00       209.68
 1303.71        2959.25           1346          63.00       253.27
 1303.74        2959.50           1349          63.00       253.27
 1303.77        2959.75           1352          77.00       314.30
 1303.80        2960.00           1356          92.00       379.69
 1303.83        2960.25           1359         140.00       588.94
 1303.86        2960.50           1362         177.00       750.23
 1303.89        2960.75           1366         229.00       976.92
 1303.92        2961.00           1369         278.00      1190.54
 1303.95        2961.25           1372         305.00      1308.25
 1303.98        2961.50           1376         393.00      1691.89
 1304.02        2961.75           1379         578.00      2498.44
 1304.05        2962.00           1382        1409.00      6121.87
 1304.08        2962.25           1386        3214.00     13994.98
 1304.11        2962.50           1389        4865.00     21199.62
 1304.14        2962.75           1392        6270.00     27333.22
 1304.17        2963.00           1396        8448.00     36845.85
 1304.20        2963.25           1399        9856.00     42998.33
 1304.23        2963.50           1402       11231.00     49008.80
 1304.26        2963.75           1406       13265.00     57903.90
 1304.30        2964.00           1409       14819.00     64703.07
 1304.33        2964.25           1412       16432.00     71763.31
 1304.36        2964.50           1416       18466.00     80670.58
 1304.39        2964.75           1419       20060.00     87654.34
 1304.42        2965.00           1422       21610.00     94448.14
 1304.45        2965.25           1426       23783.00    103977.30
 1304.48        2965.50           1429       25377.00    110970.80
 1304.51        2965.75           1432       26894.00    117629.30
 1304.54        2966.00           1436       28762.00    125832.00
 1304.58        2966.25           1439       30400.00    133028.10
 1304.61        2966.50           1442       31574.00    138187.60
 1304.64        2966.75           1446       32973.00    144338.10
 1304.67        2967.00           1449       33378.00    146119.10
 1304.70        2967.25           1452       33391.00    146176.30
 1304.73        2967.50           1456       33432.00    146356.60
 1304.76        2967.75           1459       33473.00    146536.90
 1304.79        2968.00           1462       33248.00    145547.40
 1304.82        2968.25           1466       32191.00    140899.90
 1304.86        2968.50           1469       30667.00    134201.40
 1304.89        2968.75           1472       29215.00    127821.80
 1304.92        2969.00           1476       27176.00    118867.30
 1304.95        2969.25           1479       25700.00    112388.30
 1304.98        2969.50           1482       24238.00    105973.30
 1305.01        2969.75           1486       22404.00     97929.39
 1305.04        2970.00           1489       20607.00     90051.59
 1305.07        2970.25           1492       19404.00     84779.88
 1305.10        2970.50           1496       17173.00     75007.75
 1305.13        2970.75           1499       15584.00     68051.18
 1305.17        2971.00           1502       13988.00     61066.88
 1305.20        2971.25           1506       11967.00     52226.93
 1305.23        2971.50           1509       10369.00     45240.53
 1305.26        2971.75           1513        8327.00     36317.23
 1305.29        2972.00           1516        6799.00     29643.18
 1305.32        2972.25           1519        5246.00     22862.67
 1305.35        2972.50           1523        3226.00     14047.33
 1305.38        2972.75           1526        1803.00      7840.12
 1305.41        2973.00           1529         760.00      3291.96
 1305.45        2973.25           1533         408.00      1757.29
 1305.48        2973.50           1536         329.00      1412.88
 1305.51        2973.75           1539         265.00      1133.87
 1305.54        2974.00           1543         209.00       889.74
 1305.57        2974.25           1546         156.00       658.69
 1305.60        2974.50           1549         126.00       527.91
 1305.63        2974.75           1553          88.00       362.25
 1305.66        2975.00           1556          71.00       288.15
 1305.69        2975.25           1559          62.00       248.91
 1305.72        2975.50           1563          48.00       187.88
 1305.76        2975.75           1566          50.00       196.60
 1305.79        2976.00           1569          56.00       222.76
 1305.82        2976.25           1573          54.00       214.04
 1305.85        2976.50           1576          59.00       235.83
 1305.88        2976.75           1579          54.00       214.04
 1305.91        2977.00           1583          56.00       222.76
 1305.94        2977.25           1586          54.00       214.04
 1305.97        2977.50           1590          54.00       214.04
 1306.00        2977.75           1593          45.00       174.80
 1306.03        2978.00           1596          62.00       248.91
 1306.06        2978.25           1600          46.00       179.16
 1306.10        2978.50           1603          49.00       192.24
 1306.13        2978.75           1606          51.00       200.96
 1306.16        2979.00           1610          49.00       192.24
 1306.19        2979.25           1613          55.00       218.40
 1306.22        2979.50           1616          50.00       196.60
 1306.25        2979.75           1620          53.00       209.68
 1306.28        2980.00           1623          51.00       200.96
 1306.31        2980.25           1626          50.00       196.60
 1306.34        2980.50           1630          50.00       196.60
 1306.37        2980.75           1633          52.00       205.32
 1306.40        2981.00           1637          50.00       196.60
 1306.44        2981.25           1640          53.00       209.68
 1306.47        2981.50           1643          51.00       200.96
 1306.50        2981.75           1647          47.00       183.52
 1306.53        2982.00           1650          57.00       227.12
 1306.56        2982.25           1653          53.00       209.68
 1306.59        2982.50           1657          49.00       192.24
 1306.62        2982.75           1660          51.00       200.96
 1306.65        2983.00           1663          45.00       174.80
 1306.68        2983.25           1667          50.00       196.60
 1306.71        2983.50           1670          46.00       179.16
 1306.75        2983.75           1673          51.00       200.96
 1306.78        2984.00           1677          48.00       187.88
HS scan finished at 21:46:59
end
