************************************************************
  HS Scan of (1) Internal mercury lamp
************************************************************
Integration time is 0.2294 seconds per sample
dh020718Manchester 53.47 2.23 3.072425pr1000
************************************************************
Dead Time -------------------------  3E-08 
Number of Cycles Used -------------  4 
Starting Wavelength (Angstroms) ---  2950 
Final Wavelength (Angstoms) -------  2984 
Wavelength Increment (Angstroms) --  .25 
Filter Wheel #1 Position ---------- (1) Ground quartz diffuser (ND=2.32)
Filter Wheel #2 Position ---------- (1) Neutral Density 0.494



************************************************************
HS scan start time = 21:42:06
Dark Count =  8.2 


Time (GMT)  Wavelength (Ang)  Step Number  Raw Counts  Counts/Second

 1302.47        2950.00           1222          51.00       186.57
 1302.54        2950.25           1226          51.00       186.57
 1302.57        2950.50           1229          55.00       204.01
 1302.60        2950.75           1232          54.00       199.65
 1302.63        2951.00           1236          56.00       208.37
 1302.66        2951.25           1239          49.00       177.86
 1302.69        2951.50           1242          53.00       195.29
 1302.73        2951.75           1246          54.00       199.65
 1302.76        2952.00           1249          49.00       177.86
 1302.79        2952.25           1252          51.00       186.57
 1302.82        2952.50           1256          52.00       190.93
 1302.85        2952.75           1259          69.00       265.04
 1302.88        2953.00           1262          51.00       186.57
 1302.91        2953.25           1266          51.00       186.57
 1302.94        2953.50           1269          53.00       195.29
 1302.97        2953.75           1272          55.00       204.01
 1303.01        2954.00           1276          54.00       199.65
 1303.04        2954.25           1279          50.00       182.22
 1303.07        2954.50           1282          49.00       177.86
 1303.10        2954.75           1286          46.00       164.78
 1303.13        2955.00           1289          57.00       212.73
 1303.16        2955.25           1292          51.00       186.57
 1303.19        2955.50           1296          58.00       217.09
 1303.22        2955.75           1299          55.00       204.01
 1303.25        2956.00           1302          44.00       156.06
 1303.28        2956.25           1306          54.00       199.65
 1303.31        2956.50           1309          54.00       199.65
 1303.34        2956.75           1312          51.00       186.57
 1303.38        2957.00           1316          51.00       186.57
 1303.41        2957.25           1319          60.00       225.81
 1303.44        2957.50           1322          61.00       230.17
 1303.47        2957.75           1326          48.00       173.50
 1303.50        2958.00           1329          52.00       190.93
 1303.53        2958.25           1332          69.00       265.04
 1303.56        2958.50           1336          50.00       182.22
 1303.59        2958.75           1339          56.00       208.37
 1303.62        2959.00           1342          52.00       190.93
 1303.66        2959.25           1346          59.00       221.45
 1303.69        2959.50           1349          64.00       243.25
 1303.72        2959.75           1352          73.00       282.48
 1303.75        2960.00           1356         113.00       456.85
 1303.78        2960.25           1359         145.00       596.35
 1303.81        2960.50           1362         191.00       796.88
 1303.84        2960.75           1366         241.00      1014.85
 1303.87        2961.00           1369         278.00      1176.15
 1303.90        2961.25           1372         312.00      1324.38
 1303.93        2961.50           1376         381.00      1625.19
 1303.97        2961.75           1379         477.00      2043.72
 1304.00        2962.00           1382         944.00      4079.84
 1304.03        2962.25           1386        2668.00     11598.63
 1304.06        2962.50           1389        4171.00     18156.36
 1304.09        2962.75           1392        5714.00     24891.29
 1304.12        2963.00           1396        7621.00     33218.79
 1304.15        2963.25           1399        9226.00     40230.74
 1304.18        2963.50           1402       10758.00     46926.53
 1304.21        2963.75           1406       12941.00     56472.23
 1304.25        2964.00           1409       14541.00     63472.10
 1304.28        2964.25           1412       15959.00     69678.19
 1304.31        2964.50           1416       18044.00     78807.73
 1304.34        2964.75           1419       19540.00     85361.30
 1304.37        2965.00           1422       20852.00     91110.96
 1304.40        2965.25           1426       23151.00    101190.80
 1304.43        2965.50           1429       24702.00    107994.50
 1304.46        2965.75           1432       26386.00    115384.80
 1304.49        2966.00           1436       28236.00    123507.40
 1304.53        2966.25           1439       29404.00    128637.60
 1304.56        2966.50           1442       30865.00    135057.00
 1304.59        2966.75           1446       32436.00    141962.50
 1304.62        2967.00           1449       33013.00    144499.50
 1304.65        2967.25           1452       33126.00    144996.40
 1304.68        2967.50           1456       33168.00    145181.10
 1304.71        2967.75           1459       32980.00    144354.40
 1304.74        2968.00           1462       33178.00    145225.10
 1304.77        2968.25           1466       32198.00    140916.20
 1304.81        2968.50           1469       30940.00    135386.60
 1304.84        2968.75           1472       29493.00    129028.60
 1304.87        2969.00           1476       27548.00    120486.20
 1304.90        2969.25           1479       25949.00    113466.70
 1304.93        2969.50           1482       24328.00    106353.60
 1304.96        2969.75           1486       22338.00     97625.52
 1304.99        2970.00           1489       20957.00     91571.18
 1305.02        2970.25           1492       19401.00     84752.28
 1305.05        2970.50           1496       17501.00     76429.63
 1305.09        2970.75           1499       16086.00     70234.15
 1305.12        2971.00           1502       14493.00     63262.07
 1305.15        2971.25           1506       12385.00     54040.47
 1305.18        2971.50           1509       10920.00     47634.72
 1305.21        2971.75           1513        8785.00     38303.80
 1305.24        2972.00           1516        7382.00     32174.90
 1305.27        2972.25           1519        5783.00     25192.53
 1305.30        2972.50           1523        3791.00     16498.14
 1305.33        2972.75           1526        2371.00     10303.10
 1305.36        2973.00           1529        1050.00      4542.03
 1305.40        2973.25           1533         416.00      1777.78
 1305.43        2973.50           1536         305.00      1293.86
 1305.46        2973.75           1539         243.00      1023.57
 1305.49        2974.00           1543         199.00       831.76
 1305.52        2974.25           1546         140.00       574.55
 1305.55        2974.50           1549         123.00       500.44
 1305.58        2974.75           1553          81.00       317.35
 1305.61        2975.00           1556          66.00       251.96
 1305.64        2975.25           1559          57.00       212.73
 1305.67        2975.50           1563          55.00       204.01
 1305.71        2975.75           1566          53.00       195.29
 1305.74        2976.00           1569          52.00       190.93
 1305.77        2976.25           1573          56.00       208.37
 1305.80        2976.50           1576          52.00       190.93
 1305.83        2976.75           1579          50.00       182.22
 1305.86        2977.00           1583          54.00       199.65
 1305.89        2977.25           1586          60.00       225.81
 1305.92        2977.50           1590          54.00       199.65
 1305.95        2977.75           1593          46.00       164.78
 1305.99        2978.00           1596          49.00       177.86
 1306.02        2978.25           1600          52.00       190.93
 1306.05        2978.50           1603          47.00       169.14
 1306.08        2978.75           1606          46.00       164.78
 1306.11        2979.00           1610          48.00       173.50
 1306.14        2979.25           1613          55.00       204.01
 1306.17        2979.50           1616          53.00       195.29
 1306.20        2979.75           1620          59.00       221.45
 1306.23        2980.00           1623          56.00       208.37
 1306.26        2980.25           1626          47.00       169.14
 1306.29        2980.50           1630          52.00       190.93
 1306.32        2980.75           1633          52.00       190.93
 1306.35        2981.00           1637          56.00       208.37
 1306.39        2981.25           1640          51.00       186.57
 1306.42        2981.50           1643          57.00       212.73
 1306.45        2981.75           1647          49.00       177.86
 1306.48        2982.00           1650          61.00       230.17
 1306.51        2982.25           1653          53.00       195.29
 1306.54        2982.50           1657          52.00       190.93
 1306.57        2982.75           1660          48.00       173.50
 1306.60        2983.00           1663          44.00       156.06
 1306.63        2983.25           1667          55.00       204.01
 1306.66        2983.50           1670          55.00       204.01
 1306.69        2983.75           1673          49.00       177.86
 1306.73        2984.00           1677          44.00       156.06
HS scan finished at 21:46:57
end
