************************************************************
  HS Scan of (1) Internal mercury lamp
************************************************************
Integration time is 0.2294 seconds per sample
dh010718Manchester 53.47 2.23 2.911481pr1000
************************************************************
Dead Time -------------------------  3E-08 
Number of Cycles Used -------------  4 
Starting Wavelength (Angstroms) ---  2950 
Final Wavelength (Angstoms) -------  2984 
Wavelength Increment (Angstroms) --  .25 
Filter Wheel #1 Position ---------- (1) Ground quartz diffuser (ND=2.32)
Filter Wheel #2 Position ---------- (1) Neutral Density 0.494



************************************************************
HS scan start time = 01:29:33
Dark Count =  4.8 


Time (GMT)  Wavelength (Ang)  Step Number  Raw Counts  Counts/Second

   89.93        2950.00           1222          50.00       197.04
   89.99        2950.25           1226          57.00       227.55
   90.03        2950.50           1229          58.00       231.91
   90.06        2950.75           1232          52.00       205.76
   90.09        2951.00           1236          50.00       197.04
   90.12        2951.25           1239          49.00       192.68
   90.15        2951.50           1242          54.00       214.47
   90.18        2951.75           1246          50.00       197.04
   90.21        2952.00           1249          60.00       240.63
   90.24        2952.25           1252          62.00       249.35
   90.27        2952.50           1256          59.00       236.27
   90.31        2952.75           1259          53.00       210.11
   90.34        2953.00           1262          64.00       258.07
   90.37        2953.25           1266          61.00       244.99
   90.40        2953.50           1269          52.00       205.76
   90.43        2953.75           1272          52.00       205.76
   90.46        2954.00           1276          55.00       218.83
   90.49        2954.25           1279          58.00       231.91
   90.52        2954.50           1282          64.00       258.07
   90.55        2954.75           1286          51.00       201.40
   90.58        2955.00           1289          55.00       218.83
   90.61        2955.25           1292          50.00       197.04
   90.64        2955.50           1296          57.00       227.55
   90.67        2955.75           1299          53.00       210.11
   90.70        2956.00           1302          56.00       223.19
   90.73        2956.25           1306          54.00       214.47
   90.77        2956.50           1309          49.00       192.68
   90.80        2956.75           1312          50.00       197.04
   90.83        2957.00           1316          55.00       218.83
   90.86        2957.25           1319          50.00       197.04
   90.89        2957.50           1322          60.00       240.63
   90.92        2957.75           1326          53.00       210.11
   90.95        2958.00           1329          57.00       227.55
   90.98        2958.25           1332          50.00       197.04
   91.01        2958.50           1336          66.00       266.79
   91.04        2958.75           1339          53.00       210.11
   91.07        2959.00           1342          63.00       253.71
   91.10        2959.25           1346          56.00       223.19
   91.13        2959.50           1349          61.00       244.99
   91.17        2959.75           1352          69.00       279.86
   91.20        2960.00           1356         106.00       441.16
   91.23        2960.25           1359         141.00       593.73
   91.26        2960.50           1362         186.00       789.91
   91.29        2960.75           1366         215.00       916.33
   91.32        2961.00           1369         259.00      1108.15
   91.35        2961.25           1372         295.00      1265.09
   91.38        2961.50           1376         378.00      1626.93
   91.41        2961.75           1379         438.00      1888.51
   91.44        2962.00           1382         778.00      3370.87
   91.47        2962.25           1386        2121.00      9227.49
   91.50        2962.50           1389        3665.00     15963.18
   91.54        2962.75           1392        5082.00     22147.23
   91.57        2963.00           1396        7110.00     31001.79
   91.60        2963.25           1399        8603.00     37523.47
   91.63        2963.50           1402        9891.00     43151.74
   91.66        2963.75           1406       11984.00     52301.71
   91.69        2964.00           1409       13551.00     59155.46
   91.72        2964.25           1412       15147.00     66138.96
   91.75        2964.50           1416       16983.00     74176.22
   91.78        2964.75           1419       18584.00     81187.91
   91.82        2965.00           1422       20103.00     87843.22
   91.85        2965.25           1426       22152.00     96824.87
   91.88        2965.50           1429       23680.00    103525.90
   91.91        2965.75           1432       25068.00    109615.30
   91.94        2966.00           1436       26976.00    117989.70
   91.97        2966.25           1439       28515.00    124747.60
   92.00        2966.50           1442       29910.00    130875.50
   92.03        2966.75           1446       31279.00    136891.50
   92.06        2967.00           1449       31910.00    139665.10
   92.10        2967.25           1452       31899.00    139616.70
   92.13        2967.50           1456       32148.00    140711.30
   92.16        2967.75           1459       31963.00    139898.00
   92.19        2968.00           1462       31801.00    139185.90
   92.22        2968.25           1466       31061.00    135933.40
   92.25        2968.50           1469       30013.00    131328.10
   92.28        2968.75           1472       28680.00    125472.30
   92.31        2969.00           1476       26528.00    116023.00
   92.34        2969.25           1479       25218.00    110273.50
   92.38        2969.50           1482       23776.00    103947.00
   92.41        2969.75           1486       21798.00     95272.78
   92.44        2970.00           1489       20515.00     89648.81
   92.47        2970.25           1492       18939.00     82743.06
   92.50        2970.50           1496       17023.00     74351.36
   92.53        2970.75           1499       15674.00     68445.55
   92.56        2971.00           1502       14210.00     62038.64
   92.59        2971.25           1506       12238.00     53412.46
   92.62        2971.50           1509       10554.00     46049.63
   92.65        2971.75           1513        8765.00     38231.27
   92.68        2972.00           1516        7289.00     31783.56
   92.72        2972.25           1519        5785.00     25216.11
   92.75        2972.50           1523        4036.00     17582.07
   92.78        2972.75           1526        2626.00     11430.25
   92.81        2973.00           1529        1286.00      5585.94
   92.84        2973.25           1533         489.00      2110.86
   92.87        2973.50           1536         322.00      1382.80
   92.90        2973.75           1539         274.00      1173.54
   92.93        2974.00           1543         221.00       942.49
   92.96        2974.25           1546         172.00       728.87
   92.99        2974.50           1549         134.00       563.22
   93.03        2974.75           1553          85.00       349.61
   93.06        2975.00           1556          64.00       258.07
   93.09        2975.25           1559          56.00       223.19
   93.12        2975.50           1563          60.00       240.63
   93.15        2975.75           1566          49.00       192.68
   93.18        2976.00           1569          63.00       253.71
   93.21        2976.25           1573          48.00       188.32
   93.24        2976.50           1576          58.00       231.91
   93.27        2976.75           1579          55.00       218.83
   93.30        2977.00           1583          56.00       223.19
   93.33        2977.25           1586          51.00       201.40
   93.37        2977.50           1590          51.00       201.40
   93.40        2977.75           1593          52.00       205.76
   93.43        2978.00           1596          53.00       210.11
   93.46        2978.25           1600          52.00       205.76
   93.49        2978.50           1603          56.00       223.19
   93.52        2978.75           1606          52.00       205.76
   93.55        2979.00           1610          51.00       201.40
   93.58        2979.25           1613          54.00       214.47
   93.61        2979.50           1616          57.00       227.55
   93.64        2979.75           1620          54.00       214.47
   93.68        2980.00           1623          48.00       188.32
   93.71        2980.25           1626          51.00       201.40
   93.74        2980.50           1630          52.00       205.76
   93.77        2980.75           1633          50.00       197.04
   93.80        2981.00           1637          50.00       197.04
   93.83        2981.25           1640          53.00       210.11
   93.86        2981.50           1643          53.00       210.11
   93.89        2981.75           1647          51.00       201.40
   93.92        2982.00           1650          51.00       201.40
   93.95        2982.25           1653          55.00       218.83
   93.98        2982.50           1657          47.00       183.96
   94.01        2982.75           1660          45.00       175.24
   94.04        2983.00           1663          52.00       205.76
   94.07        2983.25           1667          55.00       218.83
   94.10        2983.50           1670          50.00       197.04
   94.13        2983.75           1673          51.00       201.40
   94.17        2984.00           1677          40.00       153.44
HS scan finished at 01:34:23
end
************************************************************
  HS Scan of (1) Internal mercury lamp
************************************************************
Integration time is 0.2294 seconds per sample
dh010718Manchester 53.47 2.23 3.126073pr1000
************************************************************
Dead Time -------------------------  3E-08 
Number of Cycles Used -------------  4 
Starting Wavelength (Angstroms) ---  2950 
Final Wavelength (Angstoms) -------  2984 
Wavelength Increment (Angstroms) --  .25 
Filter Wheel #1 Position ---------- (1) Ground quartz diffuser (ND=2.32)
Filter Wheel #2 Position ---------- (1) Neutral Density 0.494



************************************************************
HS scan start time = 21:42:05
Dark Count =  8.100001 


Time (GMT)  Wavelength (Ang)  Step Number  Raw Counts  Counts/Second

 1302.46        2950.00           1222          56.00       208.81
 1302.52        2950.25           1226          55.00       204.45
 1302.55        2950.50           1229          52.00       191.37
 1302.59        2950.75           1232          51.00       187.01
 1302.62        2951.00           1236          50.00       182.65
 1302.65        2951.25           1239          48.00       173.93
 1302.68        2951.50           1242          53.00       195.73
 1302.71        2951.75           1246          56.00       208.81
 1302.74        2952.00           1249          57.00       213.17
 1302.77        2952.25           1252          52.00       191.37
 1302.80        2952.50           1256          54.00       200.09
 1302.83        2952.75           1259          67.00       256.76
 1302.87        2953.00           1262          56.00       208.81
 1302.90        2953.25           1266          55.00       204.45
 1302.93        2953.50           1269          45.00       160.86
 1302.96        2953.75           1272          53.00       195.73
 1302.99        2954.00           1276          54.00       200.09
 1303.02        2954.25           1279          53.00       195.73
 1303.05        2954.50           1282          61.00       230.60
 1303.08        2954.75           1286          52.00       191.37
 1303.11        2955.00           1289          53.00       195.73
 1303.15        2955.25           1292          52.00       191.37
 1303.18        2955.50           1296          47.00       169.57
 1303.21        2955.75           1299          59.00       221.88
 1303.24        2956.00           1302          49.00       178.29
 1303.27        2956.25           1306          54.00       200.09
 1303.30        2956.50           1309          55.00       204.45
 1303.33        2956.75           1312          50.00       182.65
 1303.36        2957.00           1316          54.00       200.09
 1303.40        2957.25           1319          64.00       243.68
 1303.43        2957.50           1322          59.00       221.88
 1303.46        2957.75           1326          53.00       195.73
 1303.49        2958.00           1329          59.00       221.88
 1303.52        2958.25           1332          54.00       200.09
 1303.55        2958.50           1336          49.00       178.29
 1303.58        2958.75           1339          56.00       208.81
 1303.61        2959.00           1342          51.00       187.01
 1303.64        2959.25           1346          57.00       213.17
 1303.67        2959.50           1349          65.00       248.04
 1303.70        2959.75           1352          74.00       287.27
 1303.73        2960.00           1356         111.00       448.57
 1303.76        2960.25           1359         132.00       540.11
 1303.80        2960.50           1362         148.00       609.86
 1303.83        2960.75           1366         224.00       941.18
 1303.86        2961.00           1369         254.00      1071.96
 1303.89        2961.25           1372         308.00      1307.37
 1303.92        2961.50           1376         364.00      1551.51
 1303.95        2961.75           1379         469.00      2009.28
 1303.98        2962.00           1382         921.00      3979.99
 1304.01        2962.25           1386        2449.00     10643.77
 1304.04        2962.50           1389        3881.00     16891.30
 1304.08        2962.75           1392        5490.00     23913.84
 1304.11        2963.00           1396        7651.00     33350.27
 1304.14        2963.25           1399        9189.00     40069.50
 1304.17        2963.50           1402       10654.00     46472.33
 1304.20        2963.75           1406       12891.00     56253.97
 1304.23        2964.00           1409       14449.00     63069.97
 1304.26        2964.25           1412       16204.00     70751.16
 1304.29        2964.50           1416       18228.00     79614.08
 1304.32        2964.75           1419       19916.00     87009.30
 1304.35        2965.00           1422       21395.00     93491.59
 1304.39        2965.25           1426       23414.00    102344.70
 1304.42        2965.50           1429       25102.00    109750.00
 1304.45        2965.75           1432       26685.00    116697.70
 1304.48        2966.00           1436       28934.00    126573.50
 1304.51        2966.25           1439       30504.00    133471.00
 1304.54        2966.50           1442       31961.00    139874.70
 1304.57        2966.75           1446       33571.00    146953.80
 1304.60        2967.00           1449       34160.00    149544.30
 1304.63        2967.25           1452       34110.00    149324.40
 1304.66        2967.50           1456       34138.00    149447.50
 1304.70        2967.75           1459       34318.00    150239.30
 1304.73        2968.00           1462       34274.00    150045.70
 1304.76        2968.25           1466       33345.00    145959.90
 1304.79        2968.50           1469       31928.00    139729.70
 1304.82        2968.75           1472       30470.00    133321.60
 1304.85        2969.00           1476       28609.00    125146.00
 1304.88        2969.25           1479       26940.00    117817.20
 1304.91        2969.50           1482       25624.00    112040.70
 1304.94        2969.75           1486       23426.00    102397.30
 1304.98        2970.00           1489       21684.00     94758.53
 1305.01        2970.25           1492       20213.00     88310.82
 1305.04        2970.50           1496       18167.00     79346.90
 1305.07        2970.75           1499       16655.00     72725.63
 1305.10        2971.00           1502       15217.00     66430.88
 1305.13        2971.25           1506       12804.00     55873.44
 1305.16        2971.50           1509       11257.00     49108.48
 1305.19        2971.75           1513        9180.00     40030.17
 1305.22        2972.00           1516        7714.00     33625.45
 1305.25        2972.25           1519        6155.00     26817.12
 1305.29        2972.50           1523        4128.00     17969.14
 1305.32        2972.75           1526        2666.00     11590.34
 1305.35        2973.00           1529        1324.00      5737.26
 1305.38        2973.25           1533         500.00      2144.43
 1305.41        2973.50           1536         349.00      1486.12
 1305.44        2973.75           1539         309.00      1311.73
 1305.47        2974.00           1543         250.00      1054.52
 1305.50        2974.25           1546         198.00       827.83
 1305.53        2974.50           1549         141.00       579.35
 1305.56        2974.75           1553         109.00       439.85
 1305.60        2975.00           1556          76.00       295.99
 1305.63        2975.25           1559          60.00       226.24
 1305.66        2975.50           1563          55.00       204.45
 1305.69        2975.75           1566          61.00       230.60
 1305.72        2976.00           1569          52.00       191.37
 1305.75        2976.25           1573          53.00       195.73
 1305.78        2976.50           1576          48.00       173.93
 1305.81        2976.75           1579          52.00       191.37
 1305.84        2977.00           1583          51.00       187.01
 1305.87        2977.25           1586          53.00       195.73
 1305.90        2977.50           1590          49.00       178.29
 1305.94        2977.75           1593          54.00       200.09
 1305.97        2978.00           1596          56.00       208.81
 1306.00        2978.25           1600          48.00       173.93
 1306.03        2978.50           1603          53.00       195.73
 1306.06        2978.75           1606          55.00       204.45
 1306.09        2979.00           1610          45.00       160.86
 1306.12        2979.25           1613          52.00       191.37
 1306.15        2979.50           1616          54.00       200.09
 1306.18        2979.75           1620          55.00       204.45
 1306.21        2980.00           1623          65.00       248.04
 1306.24        2980.25           1626          52.00       191.37
 1306.28        2980.50           1630          50.00       182.65
 1306.31        2980.75           1633          51.00       187.01
 1306.34        2981.00           1637          53.00       195.73
 1306.37        2981.25           1640          55.00       204.45
 1306.40        2981.50           1643          51.00       187.01
 1306.43        2981.75           1647          52.00       191.37
 1306.46        2982.00           1650          54.00       200.09
 1306.49        2982.25           1653          52.00       191.37
 1306.52        2982.50           1657          56.00       208.81
 1306.56        2982.75           1660          46.00       165.21
 1306.59        2983.00           1663          58.00       217.53
 1306.62        2983.25           1667          47.00       169.57
 1306.65        2983.50           1670          49.00       178.29
 1306.68        2983.75           1673          47.00       169.57
 1306.71        2984.00           1677          55.00       204.45
HS scan finished at 21:46:56
end
