************************************************************
  HS Scan of (1) Internal mercury lamp
************************************************************
Integration time is 0.2294 seconds per sample
dh140718Manchester 53.47 2.23 2.965129pr1000
************************************************************
Dead Time -------------------------  3E-08 
Number of Cycles Used -------------  4 
Starting Wavelength (Angstroms) ---  2950 
Final Wavelength (Angstoms) -------  2984 
Wavelength Increment (Angstroms) --  .25 
Filter Wheel #1 Position ---------- (1) Ground quartz diffuser (ND=2.32)
Filter Wheel #2 Position ---------- (1) Neutral Density 0.494



************************************************************
HS scan start time = 01:29:47
Dark Count =  6.1 


Time (GMT)  Wavelength (Ang)  Step Number  Raw Counts  Counts/Second

   90.15        2950.00           1222          51.00       195.73
   90.22        2950.25           1226          57.00       221.88
   90.25        2950.50           1229          49.00       187.01
   90.28        2950.75           1232          53.00       204.45
   90.31        2951.00           1236          58.00       226.24
   90.34        2951.25           1239          57.00       221.88
   90.37        2951.50           1242          56.00       217.53
   90.41        2951.75           1246          54.00       208.81
   90.44        2952.00           1249          62.00       243.68
   90.47        2952.25           1252          53.00       204.45
   90.50        2952.50           1256          58.00       226.24
   90.53        2952.75           1259          53.00       204.45
   90.56        2953.00           1262          60.00       234.96
   90.59        2953.25           1266          53.00       204.45
   90.62        2953.50           1269          56.00       217.53
   90.65        2953.75           1272          62.00       243.68
   90.68        2954.00           1276          47.00       178.29
   90.71        2954.25           1279          57.00       221.88
   90.75        2954.50           1282          56.00       217.53
   90.78        2954.75           1286          51.00       195.73
   90.81        2955.00           1289          54.00       208.81
   90.84        2955.25           1292          60.00       234.96
   90.87        2955.50           1296          49.00       187.01
   90.90        2955.75           1299          62.00       243.68
   90.93        2956.00           1302          56.00       217.53
   90.96        2956.25           1306          51.00       195.73
   90.99        2956.50           1309          75.00       300.35
   91.02        2956.75           1312          50.00       191.37
   91.05        2957.00           1316          61.00       239.32
   91.09        2957.25           1319          55.00       213.17
   91.12        2957.50           1322          54.00       208.81
   91.15        2957.75           1326          49.00       187.01
   91.18        2958.00           1329          55.00       213.17
   91.21        2958.25           1332          46.00       173.93
   91.24        2958.50           1336          62.00       243.68
   91.27        2958.75           1339          53.00       204.45
   91.30        2959.00           1342          55.00       213.17
   91.33        2959.25           1346          55.00       213.17
   91.36        2959.50           1349          58.00       226.24
   91.39        2959.75           1352          88.00       357.02
   91.43        2960.00           1356         101.00       413.69
   91.46        2960.25           1359         160.00       670.89
   91.49        2960.50           1362         172.00       723.21
   91.52        2960.75           1366         233.00       989.13
   91.55        2961.00           1369         254.00      1080.68
   91.58        2961.25           1372         312.00      1333.53
   91.61        2961.50           1376         377.00      1616.91
   91.64        2961.75           1379         536.00      2310.10
   91.67        2962.00           1382        1171.00      5078.80
   91.70        2962.25           1386        2843.00     12371.20
   91.73        2962.50           1389        4297.00     18715.39
   91.77        2962.75           1392        5654.00     24638.52
   91.80        2963.00           1396        7613.00     33193.02
   91.83        2963.25           1399        9141.00     39868.50
   91.86        2963.50           1402       10652.00     46472.33
   91.89        2963.75           1406       12786.00     55803.46
   91.92        2964.00           1409       14202.00     61997.95
   91.95        2964.25           1412       15876.00     69324.06
   91.98        2964.50           1416       17967.00     78479.68
   92.01        2964.75           1419       19399.00     84752.71
   92.05        2965.00           1422       20831.00     91028.11
   92.08        2965.25           1426       22848.00     99871.15
   92.11        2965.50           1429       24428.00    106801.60
   92.14        2965.75           1432       26189.00    114529.30
   92.17        2966.00           1436       28089.00    122871.00
   92.20        2966.25           1439       29443.00    128818.20
   92.23        2966.50           1442       31030.00    135791.40
   92.26        2966.75           1446       32188.00    140881.50
   92.29        2967.00           1449       32318.00    141453.00
   92.33        2967.25           1452       32499.00    142248.70
   92.36        2967.50           1456       32444.00    142006.90
   92.39        2967.75           1459       32257.00    141184.80
   92.42        2968.00           1462       32090.00    140450.60
   92.45        2968.25           1466       30840.00    134956.40
   92.48        2968.50           1469       29564.00    129349.70
   92.51        2968.75           1472       28186.00    123297.00
   92.54        2969.00           1476       26287.00    114959.40
   92.58        2969.25           1479       24814.00    108495.10
   92.61        2969.50           1482       23089.00    100928.10
   92.64        2969.75           1486       21186.00     92584.18
   92.67        2970.00           1489       19630.00     85764.85
   92.70        2970.25           1492       18280.00     79850.60
   92.73        2970.50           1496       16327.00     71298.38
   92.76        2970.75           1499       14875.00     64942.89
   92.79        2971.00           1502       13533.00     59071.03
   92.82        2971.25           1506       11594.00     50590.68
   92.86        2971.50           1509        9994.00     43596.22
   92.89        2971.75           1513        7875.00     34337.45
   92.92        2972.00           1516        6397.00     27882.51
   92.95        2972.25           1519        4894.00     21320.96
   92.98        2972.50           1523        3033.00     13200.08
   93.01        2972.75           1526        1607.00      6980.10
   93.04        2973.00           1529         737.00      3186.44
   93.07        2973.25           1533         384.00      1647.42
   93.10        2973.50           1536         311.00      1329.17
   93.14        2973.75           1539         252.00      1071.96
   93.17        2974.00           1543         217.00       919.38
   93.20        2974.25           1546         160.00       670.89
   93.23        2974.50           1549         128.00       531.39
   93.26        2974.75           1553          94.00       383.18
   93.29        2975.00           1556          66.00       261.12
   93.32        2975.25           1559          59.00       230.60
   93.35        2975.50           1563          58.00       226.24
   93.38        2975.75           1566          60.00       234.96
   93.41        2976.00           1569          48.00       182.65
   93.45        2976.25           1573          56.00       217.53
   93.48        2976.50           1576          53.00       204.45
   93.51        2976.75           1579          62.00       243.68
   93.54        2977.00           1583          52.00       200.09
   93.57        2977.25           1586          56.00       217.53
   93.60        2977.50           1590          44.00       165.21
   93.63        2977.75           1593          51.00       195.73
   93.66        2978.00           1596          49.00       187.01
   93.69        2978.25           1600          50.00       191.37
   93.72        2978.50           1603          47.00       178.29
   93.76        2978.75           1606          50.00       191.37
   93.79        2979.00           1610          52.00       200.09
   93.82        2979.25           1613          49.00       187.01
   93.85        2979.50           1616          49.00       187.01
   93.88        2979.75           1620          48.00       182.65
   93.91        2980.00           1623          51.00       195.73
   93.94        2980.25           1626          58.00       226.24
   93.97        2980.50           1630          55.00       213.17
   94.00        2980.75           1633          51.00       195.73
   94.03        2981.00           1637          63.00       248.04
   94.07        2981.25           1640          60.00       234.96
   94.10        2981.50           1643          46.00       173.93
   94.13        2981.75           1647          48.00       182.65
   94.16        2982.00           1650          47.00       178.29
   94.19        2982.25           1653          53.00       204.45
   94.22        2982.50           1657          45.00       169.57
   94.25        2982.75           1660          50.00       191.37
   94.28        2983.00           1663          49.00       187.01
   94.31        2983.25           1667          48.00       182.65
   94.35        2983.50           1670          56.00       217.53
   94.38        2983.75           1673          47.00       178.29
   94.41        2984.00           1677          47.00       178.29
HS scan finished at 01:34:38
end
************************************************************
  HS Scan of (1) Internal mercury lamp
************************************************************
Integration time is 0.2294 seconds per sample
dh140718Manchester 53.47 2.23 3.126073pr1000
************************************************************
Dead Time -------------------------  3E-08 
Number of Cycles Used -------------  4 
Starting Wavelength (Angstroms) ---  2950 
Final Wavelength (Angstoms) -------  2984 
Wavelength Increment (Angstroms) --  .25 
Filter Wheel #1 Position ---------- (1) Ground quartz diffuser (ND=2.32)
Filter Wheel #2 Position ---------- (1) Neutral Density 0.494



************************************************************
HS scan start time = 21:42:07
Dark Count =  5 


Time (GMT)  Wavelength (Ang)  Step Number  Raw Counts  Counts/Second

 1302.49        2950.00           1222          52.00       204.88
 1302.55        2950.25           1226          64.00       257.19
 1302.58        2950.50           1229          54.00       213.60
 1302.62        2950.75           1232          56.00       222.32
 1302.65        2951.00           1236          57.00       226.68
 1302.68        2951.25           1239          55.00       217.96
 1302.71        2951.50           1242          50.00       196.17
 1302.74        2951.75           1246          48.00       187.45
 1302.77        2952.00           1249          58.00       231.04
 1302.80        2952.25           1252          62.00       248.48
 1302.83        2952.50           1256          60.00       239.76
 1302.86        2952.75           1259          54.00       213.60
 1302.89        2953.00           1262          73.00       296.43
 1302.93        2953.25           1266          53.00       209.24
 1302.96        2953.50           1269          57.00       226.68
 1302.99        2953.75           1272          52.00       204.88
 1303.02        2954.00           1276          58.00       231.04
 1303.05        2954.25           1279          51.00       200.52
 1303.08        2954.50           1282          54.00       213.60
 1303.11        2954.75           1286          52.00       204.88
 1303.14        2955.00           1289          61.00       244.12
 1303.17        2955.25           1292          57.00       226.68
 1303.20        2955.50           1296          52.00       204.88
 1303.24        2955.75           1299          48.00       187.45
 1303.27        2956.00           1302          64.00       257.19
 1303.30        2956.25           1306          52.00       204.88
 1303.33        2956.50           1309          61.00       244.12
 1303.36        2956.75           1312          52.00       204.88
 1303.39        2957.00           1316          55.00       217.96
 1303.42        2957.25           1319          57.00       226.68
 1303.45        2957.50           1322          58.00       231.04
 1303.48        2957.75           1326          51.00       200.52
 1303.51        2958.00           1329          48.00       187.45
 1303.54        2958.25           1332          48.00       187.45
 1303.57        2958.50           1336          60.00       239.76
 1303.61        2958.75           1339          55.00       217.96
 1303.64        2959.00           1342          51.00       200.52
 1303.67        2959.25           1346          61.00       244.12
 1303.70        2959.50           1349          73.00       296.43
 1303.73        2959.75           1352          76.00       309.51
 1303.76        2960.00           1356         107.00       444.64
 1303.79        2960.25           1359         141.00       592.86
 1303.82        2960.50           1362         171.00       723.64
 1303.85        2960.75           1366         231.00       985.21
 1303.88        2961.00           1369         270.00      1155.23
 1303.91        2961.25           1372         306.00      1312.17
 1303.95        2961.50           1376         392.00      1687.10
 1303.98        2961.75           1379         498.00      2149.22
 1304.01        2962.00           1382         963.00      4176.63
 1304.04        2962.25           1386        2625.00     11425.02
 1304.07        2962.50           1389        4240.00     18471.44
 1304.10        2962.75           1392        5592.00     24372.66
 1304.13        2963.00           1396        7800.00     34014.64
 1304.16        2963.25           1399        9314.00     40629.27
 1304.19        2963.50           1402       10767.00     46979.85
 1304.22        2963.75           1406       13016.00     56814.28
 1304.26        2964.00           1409       14698.00     64173.12
 1304.29        2964.25           1412       16252.00     70974.85
 1304.32        2964.50           1416       18314.00     80004.35
 1304.35        2964.75           1419       19891.00     86913.34
 1304.38        2965.00           1422       21478.00     93869.03
 1304.41        2965.25           1426       23521.00    102827.60
 1304.44        2965.50           1429       25161.00    110022.50
 1304.47        2965.75           1432       26678.00    116680.60
 1304.50        2966.00           1436       28880.00    126349.90
 1304.53        2966.25           1439       30293.00    132557.50
 1304.57        2966.50           1442       31692.00    138705.90
 1304.60        2966.75           1446       33199.00    145331.50
 1304.63        2967.00           1449       33796.00    147956.90
 1304.66        2967.25           1452       33720.00    147622.70
 1304.69        2967.50           1456       33816.00    148044.90
 1304.72        2967.75           1459       33822.00    148071.30
 1304.75        2968.00           1462       33668.00    147394.00
 1304.78        2968.25           1466       32643.00    142886.70
 1304.82        2968.50           1469       31120.00    136191.80
 1304.85        2968.75           1472       29917.00    130905.40
 1304.88        2969.00           1476       27929.00    122173.20
 1304.91        2969.25           1479       26266.00    114872.10
 1304.94        2969.50           1482       24835.00    108592.10
 1304.97        2969.75           1486       22551.00     98573.56
 1305.00        2970.00           1489       21260.00     92913.38
 1305.03        2970.25           1492       19832.00     86654.81
 1305.06        2970.50           1496       17701.00     77319.51
 1305.10        2970.75           1499       16168.00     70607.13
 1305.13        2971.00           1502       14666.00     64033.10
 1305.16        2971.25           1506       12549.00     54771.71
 1305.19        2971.50           1509       10821.00     47215.92
 1305.22        2971.75           1513        8867.00     38676.06
 1305.25        2972.00           1516        7351.00     32053.48
 1305.28        2972.25           1519        5651.00     24630.23
 1305.31        2972.50           1523        3745.00     16311.38
 1305.35        2972.75           1526        2410.00     10487.17
 1305.38        2973.00           1529        1110.00      4817.61
 1305.41        2973.25           1533         418.00      1800.45
 1305.44        2973.50           1536         316.00      1355.77
 1305.47        2973.75           1539         277.00      1185.74
 1305.50        2974.00           1543         229.00       976.49
 1305.53        2974.25           1546         158.00       666.97
 1305.56        2974.50           1549         119.00       496.96
 1305.59        2974.75           1553          83.00       340.02
 1305.62        2975.00           1556          63.00       252.84
 1305.65        2975.25           1559          61.00       244.12
 1305.68        2975.50           1563          52.00       204.88
 1305.72        2975.75           1566          50.00       196.17
 1305.75        2976.00           1569          52.00       204.88
 1305.78        2976.25           1573          51.00       200.52
 1305.81        2976.50           1576          62.00       248.48
 1305.84        2976.75           1579          52.00       204.88
 1305.87        2977.00           1583          58.00       231.04
 1305.90        2977.25           1586          60.00       239.76
 1305.93        2977.50           1590          49.00       191.81
 1305.96        2977.75           1593          49.00       191.81
 1306.00        2978.00           1596          52.00       204.88
 1306.03        2978.25           1600          55.00       217.96
 1306.06        2978.50           1603          53.00       209.24
 1306.09        2978.75           1606          44.00       170.01
 1306.12        2979.00           1610          51.00       200.52
 1306.15        2979.25           1613          59.00       235.40
 1306.18        2979.50           1616          46.00       178.73
 1306.21        2979.75           1620          42.00       161.29
 1306.24        2980.00           1623          49.00       191.81
 1306.28        2980.25           1626          50.00       196.17
 1306.31        2980.50           1630          50.00       196.17
 1306.34        2980.75           1633          47.00       183.09
 1306.37        2981.00           1637          53.00       209.24
 1306.40        2981.25           1640          50.00       196.17
 1306.43        2981.50           1643          46.00       178.73
 1306.46        2981.75           1647          54.00       213.60
 1306.49        2982.00           1650          53.00       209.24
 1306.52        2982.25           1653          53.00       209.24
 1306.56        2982.50           1657          49.00       191.81
 1306.59        2982.75           1660          52.00       204.88
 1306.62        2983.00           1663          57.00       226.68
 1306.65        2983.25           1667          46.00       178.73
 1306.68        2983.50           1670          48.00       187.45
 1306.71        2983.75           1673          47.00       183.09
 1306.74        2984.00           1677          52.00       204.88
HS scan finished at 21:46:57
end
