************************************************************
  HS Scan of (1) Internal mercury lamp
************************************************************
Integration time is 0.2294 seconds per sample
dh140717Manchester 53.47 2.23 2.857833pr1000
************************************************************
Dead Time -------------------------  3E-08 
Number of Cycles Used -------------  4 
Starting Wavelength (Angstroms) ---  2950 
Final Wavelength (Angstoms) -------  2984 
Wavelength Increment (Angstroms) --  .25 
Filter Wheel #1 Position ---------- (1) Ground quartz diffuser (ND=2.32)
Filter Wheel #2 Position ---------- (1) Neutral Density 0.494



************************************************************
HS scan start time = 01:29:02
Dark Count =  5.9 


Time (GMT)  Wavelength (Ang)  Step Number  Raw Counts  Counts/Second

   89.41        2950.00           1222         115.00       475.60
   89.48        2950.25           1226         117.00       484.31
   89.51        2950.50           1229         116.00       479.95
   89.54        2950.75           1232         115.00       475.60
   89.57        2951.00           1236         116.00       479.95
   89.60        2951.25           1239         119.00       493.03
   89.63        2951.50           1242         113.00       466.88
   89.66        2951.75           1246         118.00       488.67
   89.69        2952.00           1249         123.00       510.47
   89.73        2952.25           1252         122.00       506.11
   89.76        2952.50           1256         121.00       501.75
   89.79        2952.75           1259         112.00       462.52
   89.82        2953.00           1262         126.00       523.55
   89.85        2953.25           1266         112.00       462.52
   89.88        2953.50           1269         111.00       458.16
   89.91        2953.75           1272         116.00       479.95
   89.94        2954.00           1276         119.00       493.03
   89.97        2954.25           1279         102.00       418.92
   90.00        2954.50           1282         125.00       519.19
   90.03        2954.75           1286         115.00       475.60
   90.06        2955.00           1289         113.00       466.88
   90.10        2955.25           1292         121.00       501.75
   90.13        2955.50           1296         118.00       488.67
   90.16        2955.75           1299         125.00       519.19
   90.19        2956.00           1302         113.00       466.88
   90.22        2956.25           1306         110.00       453.80
   90.25        2956.50           1309         110.00       453.80
   90.28        2956.75           1312         111.00       458.16
   90.31        2957.00           1316         111.00       458.16
   90.34        2957.25           1319         115.00       475.60
   90.37        2957.50           1322         106.00       436.36
   90.41        2957.75           1326         112.00       462.52
   90.44        2958.00           1329         109.00       449.44
   90.47        2958.25           1332         122.00       506.11
   90.50        2958.50           1336         104.00       427.64
   90.53        2958.75           1339         121.00       501.75
   90.56        2959.00           1342         107.00       440.72
   90.59        2959.25           1346         118.00       488.67
   90.62        2959.50           1349         126.00       523.55
   90.65        2959.75           1352         126.00       523.55
   90.68        2960.00           1356         163.00       684.84
   90.72        2960.25           1359         188.00       793.83
   90.75        2960.50           1362         227.00       963.85
   90.78        2960.75           1366         293.00      1251.57
   90.81        2961.00           1369         334.00      1430.31
   90.84        2961.25           1372         369.00      1582.90
   90.87        2961.50           1376         433.00      1861.92
   90.90        2961.75           1379         526.00      2267.37
   90.93        2962.00           1382         858.00      3714.89
   90.96        2962.25           1386        2276.00      9898.75
   90.99        2962.50           1389        3861.00     16813.62
   91.02        2962.75           1392        5421.00     23622.23
   91.05        2963.00           1396        7484.00     32630.45
   91.08        2963.25           1399        9113.00     39747.02
   91.11        2963.50           1402       10792.00     47085.21
   91.15        2963.75           1406       12951.00     56526.03
   91.18        2964.00           1409       14833.00     64759.96
   91.21        2964.25           1412       16609.00     72533.86
   91.24        2964.50           1416       19084.00     83373.49
   91.27        2964.75           1419       21051.00     91993.29
   91.30        2965.00           1422       22555.00     98587.14
   91.33        2965.25           1426       24899.00    108869.00
   91.36        2965.50           1429       26510.00    115939.20
   91.39        2965.75           1432       28046.00    122683.10
   91.42        2966.00           1436       30416.00    133094.00
   91.45        2966.25           1439       32089.00    140447.10
   91.48        2966.50           1442       33689.00    147482.40
   91.52        2966.75           1446       35445.00    155207.10
   91.55        2967.00           1449       36345.00    159167.60
   91.58        2967.25           1452       36546.00    160052.20
   91.61        2967.50           1456       36518.00    159929.00
   91.64        2967.75           1459       36497.00    159836.50
   91.67        2968.00           1462       36491.00    159810.10
   91.70        2968.25           1466       35957.00    157460.00
   91.73        2968.50           1469       34734.00    152078.90
   91.76        2968.75           1472       33201.00    145336.30
   91.80        2969.00           1476       31084.00    136029.60
   91.83        2969.25           1479       29494.00    129043.10
   91.86        2969.50           1482       27961.00    122309.80
   91.89        2969.75           1486       25631.00    112081.10
   91.92        2970.00           1489       23958.00    104740.50
   91.95        2970.25           1492       22184.00     96960.35
   91.98        2970.50           1496       20056.00     87632.43
   92.01        2970.75           1499       18448.00     80587.36
   92.04        2971.00           1502       16692.00     72897.26
   92.07        2971.25           1506       14434.00     63013.96
   92.10        2971.50           1509       12706.00     55454.43
   92.14        2971.75           1513       10764.00     46962.81
   92.17        2972.00           1516        8980.00     39165.87
   92.20        2972.25           1519        7206.00     31416.26
   92.23        2972.50           1523        5173.00     22539.65
   92.26        2972.75           1526        3512.00     15290.80
   92.29        2973.00           1529        1915.00      8324.22
   92.32        2973.25           1533         685.00      2960.59
   92.35        2973.50           1536         434.00      1866.28
   92.38        2973.75           1539         352.00      1508.79
   92.41        2974.00           1543         282.00      1203.62
   92.45        2974.25           1546         228.00       968.21
   92.48        2974.50           1549         172.00       724.08
   92.51        2974.75           1553         137.00       571.50
   92.54        2975.00           1556         127.00       527.91
   92.57        2975.25           1559         105.00       432.00
   92.60        2975.50           1563         105.00       432.00
   92.63        2975.75           1566         103.00       423.28
   92.66        2976.00           1569         116.00       479.95
   92.69        2976.25           1573         101.00       414.56
   92.72        2976.50           1576         118.00       488.67
   92.76        2976.75           1579         110.00       453.80
   92.79        2977.00           1583         101.00       414.56
   92.82        2977.25           1586         112.00       462.52
   92.85        2977.50           1590         103.00       423.28
   92.88        2977.75           1593         106.00       436.36
   92.91        2978.00           1596         105.00       432.00
   92.94        2978.25           1600         100.00       410.21
   92.97        2978.50           1603         103.00       423.28
   93.00        2978.75           1606         104.00       427.64
   93.03        2979.00           1610         103.00       423.28
   93.06        2979.25           1613          90.00       366.61
   93.09        2979.50           1616         103.00       423.28
   93.13        2979.75           1620          99.00       405.85
   93.16        2980.00           1623         107.00       440.72
   93.19        2980.25           1626         112.00       462.52
   93.22        2980.50           1630          99.00       405.85
   93.25        2980.75           1633         112.00       462.52
   93.28        2981.00           1637         102.00       418.92
   93.31        2981.25           1640         104.00       427.64
   93.34        2981.50           1643          97.00       397.13
   93.37        2981.75           1647          92.00       375.33
   93.40        2982.00           1650          92.00       375.33
   93.43        2982.25           1653         101.00       414.56
   93.46        2982.50           1657          96.00       392.77
   93.49        2982.75           1660          93.00       379.69
   93.53        2983.00           1663          97.00       397.13
   93.56        2983.25           1667          94.00       384.05
   93.59        2983.50           1670          90.00       366.61
   93.62        2983.75           1673         101.00       414.56
   93.65        2984.00           1677          99.00       405.85
HS scan finished at 01:33:52
end
************************************************************
  HS Scan of (1) Internal mercury lamp
************************************************************
Integration time is 0.2294 seconds per sample
dh140717Manchester 53.47 2.23 2.804185pr1000
************************************************************
Dead Time -------------------------  3E-08 
Number of Cycles Used -------------  4 
Starting Wavelength (Angstroms) ---  2950 
Final Wavelength (Angstoms) -------  2984 
Wavelength Increment (Angstroms) --  .25 
Filter Wheel #1 Position ---------- (1) Ground quartz diffuser (ND=2.32)
Filter Wheel #2 Position ---------- (1) Neutral Density 0.494



************************************************************
HS scan start time = 21:42:00
Dark Count =  5.4 


Time (GMT)  Wavelength (Ang)  Step Number  Raw Counts  Counts/Second

 1302.37        2950.00           1222         116.00       482.13
 1302.44        2950.25           1226         109.00       451.62
 1302.47        2950.50           1229         105.00       434.18
 1302.50        2950.75           1232         109.00       451.62
 1302.53        2951.00           1236         124.00       517.01
 1302.56        2951.25           1239         115.00       477.77
 1302.60        2951.50           1242         113.00       469.06
 1302.63        2951.75           1246         125.00       521.37
 1302.66        2952.00           1249         109.00       451.62
 1302.69        2952.25           1252         112.00       464.70
 1302.72        2952.50           1256         131.00       547.52
 1302.75        2952.75           1259         114.00       473.42
 1302.78        2953.00           1262         100.00       412.39
 1302.81        2953.25           1266         114.00       473.42
 1302.84        2953.50           1269         107.00       442.90
 1302.87        2953.75           1272         122.00       508.29
 1302.90        2954.00           1276         117.00       486.49
 1302.94        2954.25           1279         114.00       473.42
 1302.97        2954.50           1282         121.00       503.93
 1303.00        2954.75           1286         103.00       425.46
 1303.03        2955.00           1289         113.00       469.06
 1303.06        2955.25           1292         104.00       429.82
 1303.09        2955.50           1296         113.00       469.06
 1303.12        2955.75           1299         121.00       503.93
 1303.15        2956.00           1302         114.00       473.42
 1303.18        2956.25           1306         103.00       425.46
 1303.21        2956.50           1309         114.00       473.42
 1303.24        2956.75           1312         114.00       473.42
 1303.27        2957.00           1316         121.00       503.93
 1303.30        2957.25           1319         108.00       447.26
 1303.33        2957.50           1322         115.00       477.77
 1303.36        2957.75           1326         113.00       469.06
 1303.40        2958.00           1329         104.00       429.82
 1303.43        2958.25           1332         109.00       451.62
 1303.46        2958.50           1336         109.00       451.62
 1303.49        2958.75           1339         125.00       521.37
 1303.52        2959.00           1342         108.00       447.26
 1303.55        2959.25           1346         112.00       464.70
 1303.58        2959.50           1349         132.00       551.88
 1303.61        2959.75           1352         126.00       525.73
 1303.64        2960.00           1356         154.00       647.79
 1303.67        2960.25           1359         188.00       796.01
 1303.70        2960.50           1362         236.00      1005.26
 1303.73        2960.75           1366         266.00      1136.05
 1303.77        2961.00           1369         328.00      1406.34
 1303.80        2961.25           1372         358.00      1537.12
 1303.83        2961.50           1376         428.00      1842.30
 1303.86        2961.75           1379         558.00      2409.07
 1303.89        2962.00           1382        1122.00      4868.19
 1303.92        2962.25           1386        2869.00     12487.68
 1303.95        2962.50           1389        4296.00     18714.08
 1303.98        2962.75           1392        6043.00     26339.90
 1304.01        2963.00           1396        8088.00     35270.96
 1304.04        2963.25           1399        9854.00     42987.40
 1304.08        2963.50           1402       11560.00     50445.08
 1304.11        2963.75           1406       13703.00     59817.80
 1304.14        2964.00           1409       15453.00     67475.60
 1304.17        2964.25           1412       17241.00     75303.31
 1304.20        2964.50           1416       19427.00     84878.46
 1304.23        2964.75           1419       21075.00     92100.68
 1304.26        2965.00           1422       22706.00     99251.50
 1304.29        2965.25           1426       24810.00    108480.60
 1304.32        2965.50           1429       26793.00    117183.70
 1304.36        2965.75           1432       28367.00    124095.00
 1304.39        2966.00           1436       30472.00    133342.30
 1304.42        2966.25           1439       32386.00    141755.00
 1304.45        2966.50           1442       33761.00    147801.30
 1304.48        2966.75           1446       35506.00    155477.70
 1304.51        2967.00           1449       35887.00    157154.20
 1304.54        2967.25           1452       36008.00    157686.70
 1304.57        2967.50           1456       35765.00    156617.30
 1304.60        2967.75           1459       35978.00    157554.60
 1304.63        2968.00           1462       35882.00    157132.20
 1304.66        2968.25           1466       35119.00    153774.90
 1304.70        2968.50           1469       33577.00    146992.00
 1304.73        2968.75           1472       31952.00    139847.00
 1304.76        2969.00           1476       29902.00    130837.70
 1304.79        2969.25           1479       28284.00    123730.50
 1304.82        2969.50           1482       26591.00    116296.90
 1304.85        2969.75           1486       24229.00    105931.60
 1304.88        2970.00           1489       22721.00     99317.28
 1304.91        2970.25           1492       20996.00     91754.41
 1304.95        2970.50           1496       18932.00     82709.77
 1304.98        2970.75           1499       17437.00     76161.62
 1305.01        2971.00           1502       15873.00     69314.00
 1305.04        2971.25           1506       13647.00     59572.81
 1305.07        2971.50           1509       11854.00     51730.62
 1305.10        2971.75           1513        9593.00     41846.75
 1305.13        2972.00           1516        7954.00     34685.60
 1305.16        2972.25           1519        6168.00     26885.67
 1305.19        2972.50           1523        4078.00     17762.73
 1305.23        2972.75           1526        2541.00     11056.85
 1305.26        2973.00           1529        1352.00      5871.13
 1305.29        2973.25           1533         560.00      2417.79
 1305.32        2973.50           1536         411.00      1768.18
 1305.35        2973.75           1539         374.00      1606.88
 1305.38        2974.00           1543         305.00      1306.07
 1305.41        2974.25           1546         242.00      1031.42
 1305.44        2974.50           1549         207.00       878.84
 1305.47        2974.75           1553         154.00       647.79
 1305.50        2975.00           1556         134.00       560.60
 1305.53        2975.25           1559         116.00       482.13
 1305.56        2975.50           1563         100.00       412.39
 1305.59        2975.75           1566         103.00       425.46
 1305.63        2976.00           1569         102.00       421.10
 1305.66        2976.25           1573          96.00       394.95
 1305.69        2976.50           1576         106.00       438.54
 1305.72        2976.75           1579          97.00       399.31
 1305.75        2977.00           1583         107.00       442.90
 1305.78        2977.25           1586          99.00       408.03
 1305.81        2977.50           1590          94.00       386.23
 1305.84        2977.75           1593          95.00       390.59
 1305.87        2978.00           1596          99.00       408.03
 1305.90        2978.25           1600         104.00       429.82
 1305.93        2978.50           1603         102.00       421.10
 1305.97        2978.75           1606         100.00       412.39
 1306.00        2979.00           1610         108.00       447.26
 1306.03        2979.25           1613          98.00       403.67
 1306.06        2979.50           1616          98.00       403.67
 1306.09        2979.75           1620          93.00       381.87
 1306.12        2980.00           1623         103.00       425.46
 1306.15        2980.25           1626          90.00       368.79
 1306.18        2980.50           1630          99.00       408.03
 1306.21        2980.75           1633         104.00       429.82
 1306.24        2981.00           1637          96.00       394.95
 1306.27        2981.25           1640          97.00       399.31
 1306.30        2981.50           1643          98.00       403.67
 1306.34        2981.75           1647         100.00       412.39
 1306.37        2982.00           1650          92.00       377.51
 1306.40        2982.25           1653         102.00       421.10
 1306.43        2982.50           1657          92.00       377.51
 1306.46        2982.75           1660          96.00       394.95
 1306.49        2983.00           1663         100.00       412.39
 1306.52        2983.25           1667          98.00       403.67
 1306.55        2983.50           1670          94.00       386.23
 1306.58        2983.75           1673         103.00       425.46
 1306.61        2984.00           1677          92.00       377.51
HS scan finished at 21:46:50
end
