************************************************************
  HS Scan of (1) Internal mercury lamp
************************************************************
Integration time is 0.2294 seconds per sample
dh120718Manchester 53.47 2.23 2.965129pr1000
************************************************************
Dead Time -------------------------  3E-08 
Number of Cycles Used -------------  4 
Starting Wavelength (Angstroms) ---  2950 
Final Wavelength (Angstoms) -------  2984 
Wavelength Increment (Angstroms) --  .25 
Filter Wheel #1 Position ---------- (1) Ground quartz diffuser (ND=2.32)
Filter Wheel #2 Position ---------- (1) Neutral Density 0.494



************************************************************
HS scan start time = 02:19:41
Dark Count =  6.7 


Time (GMT)  Wavelength (Ang)  Step Number  Raw Counts  Counts/Second

  140.05        2950.00           1222          63.00       245.42
  140.11        2950.25           1226          56.00       214.91
  140.14        2950.50           1229          57.00       219.27
  140.17        2950.75           1232          51.00       193.11
  140.21        2951.00           1236          57.00       219.27
  140.24        2951.25           1239          54.00       206.19
  140.27        2951.50           1242          46.00       171.32
  140.30        2951.75           1246          62.00       241.07
  140.33        2952.00           1249          54.00       206.19
  140.36        2952.25           1252          59.00       227.99
  140.39        2952.50           1256          46.00       171.32
  140.42        2952.75           1259          50.00       188.75
  140.45        2953.00           1262          53.00       201.83
  140.49        2953.25           1266          58.00       223.63
  140.52        2953.50           1269          51.00       193.11
  140.55        2953.75           1272          47.00       175.68
  140.58        2954.00           1276          52.00       197.47
  140.61        2954.25           1279          55.00       210.55
  140.64        2954.50           1282          52.00       197.47
  140.67        2954.75           1286          52.00       197.47
  140.70        2955.00           1289          60.00       232.35
  140.73        2955.25           1292          51.00       193.11
  140.77        2955.50           1296          50.00       188.75
  140.80        2955.75           1299          52.00       197.47
  140.83        2956.00           1302          55.00       210.55
  140.86        2956.25           1306          50.00       188.75
  140.89        2956.50           1309          55.00       210.55
  140.92        2956.75           1312          61.00       236.71
  140.95        2957.00           1316          49.00       184.40
  140.98        2957.25           1319          60.00       232.35
  141.01        2957.50           1322          60.00       232.35
  141.04        2957.75           1326          56.00       214.91
  141.07        2958.00           1329          60.00       232.35
  141.10        2958.25           1332          61.00       236.71
  141.14        2958.50           1336          56.00       214.91
  141.17        2958.75           1339          50.00       188.75
  141.20        2959.00           1342          62.00       241.07
  141.23        2959.25           1346          57.00       219.27
  141.26        2959.50           1349          58.00       223.63
  141.29        2959.75           1352          77.00       306.45
  141.32        2960.00           1356          95.00       384.92
  141.35        2960.25           1359         130.00       537.50
  141.38        2960.50           1362         143.00       594.17
  141.41        2960.75           1366         204.00       860.09
  141.44        2961.00           1369         246.00      1043.19
  141.48        2961.25           1372         284.00      1208.85
  141.51        2961.50           1376         331.00      1413.75
  141.54        2961.75           1379         509.00      2189.77
  141.57        2962.00           1382        1144.00      4958.45
  141.60        2962.25           1386        2880.00     12529.99
  141.63        2962.50           1389        4355.00     18965.89
  141.66        2962.75           1392        5651.00     24622.80
  141.69        2963.00           1396        7698.00     33561.67
  141.72        2963.25           1399        9029.00     39376.48
  141.75        2963.50           1402       10406.00     45394.39
  141.79        2963.75           1406       12693.00     55394.07
  141.82        2964.00           1409       14166.00     61837.80
  141.85        2964.25           1412       15719.00     68634.20
  141.88        2964.50           1416       17595.00     76847.85
  141.91        2964.75           1419       19183.00     83803.71
  141.94        2965.00           1422       20742.00     90635.39
  141.97        2965.25           1426       22746.00     99421.22
  142.00        2965.50           1429       24170.00    105667.00
  142.03        2965.75           1432       25887.00    113201.10
  142.07        2966.00           1436       27933.00    122183.30
  142.10        2966.25           1439       29426.00    128740.80
  142.13        2966.50           1442       30871.00    135090.00
  142.16        2966.75           1446       32125.00    140601.90
  142.19        2967.00           1449       32299.00    141366.80
  142.22        2967.25           1452       32232.00    141072.30
  142.25        2967.50           1456       32036.00    140210.60
  142.28        2967.75           1459       32250.00    141151.40
  142.31        2968.00           1462       32006.00    140078.70
  142.35        2968.25           1466       30831.00    134914.20
  142.38        2968.50           1469       29580.00    129417.40
  142.41        2968.75           1472       28281.00    123711.60
  142.44        2969.00           1476       26490.00    115847.90
  142.47        2969.25           1479       24945.00    109067.30
  142.50        2969.50           1482       23192.00    101377.20
  142.53        2969.75           1486       21220.00     92730.59
  142.56        2970.00           1489       19876.00     86840.16
  142.59        2970.25           1492       18436.00     80531.30
  142.63        2970.50           1496       16368.00     71475.25
  142.66        2970.75           1499       15016.00     65557.31
  142.69        2971.00           1502       13602.00     59370.26
  142.72        2971.25           1506       11583.00     50539.95
  142.75        2971.50           1509       10203.00     44507.08
  142.78        2971.75           1513        8196.00     35737.08
  142.81        2972.00           1516        6769.00     29504.31
  142.84        2972.25           1519        5319.00     23173.47
  142.87        2972.50           1523        3327.00     14480.14
  142.91        2972.75           1526        1914.00      8316.37
  142.94        2973.00           1529         854.00      3693.96
  142.97        2973.25           1533         391.00      1675.32
  143.00        2973.50           1536         329.00      1405.03
  143.03        2973.75           1539         255.00      1082.42
  143.06        2974.00           1543         224.00       947.28
  143.09        2974.25           1546         159.00       663.92
  143.12        2974.50           1549         115.00       472.11
  143.16        2974.75           1553          81.00       323.89
  143.19        2975.00           1556          62.00       241.07
  143.22        2975.25           1559          59.00       227.99
  143.25        2975.50           1563          64.00       249.78
  143.28        2975.75           1566          52.00       197.47
  143.31        2976.00           1569          66.00       258.50
  143.34        2976.25           1573          49.00       184.40
  143.37        2976.50           1576          51.00       193.11
  143.40        2976.75           1579          55.00       210.55
  143.43        2977.00           1583          46.00       171.32
  143.46        2977.25           1586          56.00       214.91
  143.49        2977.50           1590          57.00       219.27
  143.52        2977.75           1593          53.00       201.83
  143.55        2978.00           1596          48.00       180.04
  143.59        2978.25           1600          50.00       188.75
  143.62        2978.50           1603          53.00       201.83
  143.65        2978.75           1606          50.00       188.75
  143.68        2979.00           1610          50.00       188.75
  143.71        2979.25           1613          53.00       201.83
  143.74        2979.50           1616          55.00       210.55
  143.77        2979.75           1620          50.00       188.75
  143.80        2980.00           1623          62.00       241.07
  143.83        2980.25           1626          56.00       214.91
  143.86        2980.50           1630          54.00       206.19
  143.90        2980.75           1633          52.00       197.47
  143.93        2981.00           1637          46.00       171.32
  143.96        2981.25           1640          55.00       210.55
  143.99        2981.50           1643          48.00       180.04
  144.02        2981.75           1647          49.00       184.40
  144.05        2982.00           1650          49.00       184.40
  144.08        2982.25           1653          49.00       184.40
  144.11        2982.50           1657          55.00       210.55
  144.15        2982.75           1660          50.00       188.75
  144.18        2983.00           1663          58.00       223.63
  144.21        2983.25           1667          69.00       271.58
  144.24        2983.50           1670          43.00       158.24
  144.27        2983.75           1673          57.00       219.27
  144.30        2984.00           1677          52.00       197.47
HS scan finished at 02:24:31
end
