************************************************************
  HS Scan of (1) Internal mercury lamp
************************************************************
Integration time is 0.2294 seconds per sample
dh110718Manchester 53.47 2.23 2.857833pr1000
************************************************************
Dead Time -------------------------  3E-08 
Number of Cycles Used -------------  4 
Starting Wavelength (Angstroms) ---  2950 
Final Wavelength (Angstoms) -------  2984 
Wavelength Increment (Angstroms) --  .25 
Filter Wheel #1 Position ---------- (1) Ground quartz diffuser (ND=2.32)
Filter Wheel #2 Position ---------- (1) Neutral Density 0.494



************************************************************
HS scan start time = 01:43:07
Dark Count =  6.1 


Time (GMT)  Wavelength (Ang)  Step Number  Raw Counts  Counts/Second

  103.49        2950.00           1222          56.00       217.53
  103.56        2950.25           1226          51.00       195.73
  103.59        2950.50           1229          56.00       217.53
  103.62        2950.75           1232          54.00       208.81
  103.65        2951.00           1236          59.00       230.60
  103.68        2951.25           1239          57.00       221.88
  103.71        2951.50           1242          55.00       213.17
  103.74        2951.75           1246          60.00       234.96
  103.77        2952.00           1249          58.00       226.24
  103.80        2952.25           1252          60.00       234.96
  103.84        2952.50           1256          51.00       195.73
  103.87        2952.75           1259          57.00       221.88
  103.90        2953.00           1262          59.00       230.60
  103.93        2953.25           1266          55.00       213.17
  103.96        2953.50           1269          76.00       304.71
  103.99        2953.75           1272          53.00       204.45
  104.02        2954.00           1276          66.00       261.12
  104.05        2954.25           1279          58.00       226.24
  104.08        2954.50           1282          52.00       200.09
  104.11        2954.75           1286          57.00       221.88
  104.14        2955.00           1289          51.00       195.73
  104.17        2955.25           1292          52.00       200.09
  104.21        2955.50           1296          57.00       221.88
  104.24        2955.75           1299          54.00       208.81
  104.27        2956.00           1302          56.00       217.53
  104.30        2956.25           1306          61.00       239.32
  104.33        2956.50           1309          50.00       191.37
  104.36        2956.75           1312          61.00       239.32
  104.39        2957.00           1316          58.00       226.24
  104.42        2957.25           1319          56.00       217.53
  104.45        2957.50           1322          51.00       195.73
  104.49        2957.75           1326          61.00       239.32
  104.52        2958.00           1329          58.00       226.24
  104.55        2958.25           1332          63.00       248.04
  104.58        2958.50           1336          62.00       243.68
  104.61        2958.75           1339          58.00       226.24
  104.64        2959.00           1342          54.00       208.81
  104.67        2959.25           1346          56.00       217.53
  104.70        2959.50           1349          62.00       243.68
  104.73        2959.75           1352          69.00       274.20
  104.76        2960.00           1356         118.00       487.80
  104.80        2960.25           1359         132.00       548.83
  104.83        2960.50           1362         175.00       736.28
  104.86        2960.75           1366         211.00       893.22
  104.89        2961.00           1369         252.00      1071.96
  104.92        2961.25           1372         288.00      1228.90
  104.95        2961.50           1376         361.00      1547.15
  104.98        2961.75           1379         536.00      2310.10
  105.01        2962.00           1382        1195.00      5183.46
  105.04        2962.25           1386        2827.00     12301.40
  105.08        2962.50           1389        4168.00     18152.43
  105.11        2962.75           1392        5558.00     24219.42
  105.14        2963.00           1396        7396.00     32245.22
  105.17        2963.25           1399        8689.00     37893.54
  105.20        2963.50           1402       10091.00     44020.17
  105.23        2963.75           1406       11929.00     52055.51
  105.26        2964.00           1409       13164.00     57456.85
  105.29        2964.25           1412       14782.00     64535.90
  105.32        2964.50           1416       16643.00     72681.85
  105.36        2964.75           1419       18008.00     78659.25
  105.39        2965.00           1422       19351.00     84542.41
  105.42        2965.25           1426       21432.00     93662.56
  105.45        2965.50           1429       22976.00    100432.50
  105.48        2965.75           1432       24198.00    105792.50
  105.51        2966.00           1436       26185.00    114511.70
  105.54        2966.25           1439       27355.00    119648.00
  105.57        2966.50           1442       28607.00    125146.00
  105.60        2966.75           1446       30045.00    131463.00
  105.64        2967.00           1449       30172.00    132021.00
  105.67        2967.25           1452       30473.00    133343.60
  105.70        2967.50           1456       30322.00    132680.10
  105.73        2967.75           1459       30302.00    132592.20
  105.76        2968.00           1462       30190.00    132100.10
  105.79        2968.25           1466       29425.00    128739.10
  105.82        2968.50           1469       27902.00    122049.80
  105.85        2968.75           1472       26537.00    116056.80
  105.88        2969.00           1476       25056.00    109557.00
  105.92        2969.25           1479       23683.00    103533.40
  105.95        2969.50           1482       22330.00     97599.66
  105.98        2969.75           1486       20527.00     89695.71
  106.01        2970.00           1489       18802.00     82137.21
  106.04        2970.25           1492       17523.00     76535.18
  106.07        2970.50           1496       15881.00     69345.96
  106.10        2970.75           1499       14444.00     63056.84
  106.13        2971.00           1502       13045.00     56936.32
  106.16        2971.25           1506       11105.00     48452.68
  106.20        2971.50           1509        9710.00     42355.01
  106.23        2971.75           1513        7659.00     33393.95
  106.26        2972.00           1516        6280.00     27371.64
  106.29        2972.25           1519        4857.00     21159.46
  106.32        2972.50           1523        3159.00     13749.79
  106.35        2972.75           1526        1886.00      8196.87
  106.38        2973.00           1529         851.00      3683.49
  106.41        2973.25           1533         374.00      1603.83
  106.44        2973.50           1536         294.00      1255.06
  106.47        2973.75           1539         247.00      1050.16
  106.50        2974.00           1543         193.00       814.75
  106.54        2974.25           1546         145.00       605.50
  106.57        2974.50           1549         101.00       413.69
  106.60        2974.75           1553          79.00       317.79
  106.63        2975.00           1556          62.00       243.68
  106.66        2975.25           1559          61.00       239.32
  106.69        2975.50           1563          53.00       204.45
  106.72        2975.75           1566          59.00       230.60
  106.75        2976.00           1569          54.00       208.81
  106.78        2976.25           1573          65.00       256.76
  106.81        2976.50           1576          51.00       195.73
  106.85        2976.75           1579          50.00       191.37
  106.88        2977.00           1583          69.00       274.20
  106.91        2977.25           1586          55.00       213.17
  106.94        2977.50           1590          49.00       187.01
  106.97        2977.75           1593          52.00       200.09
  107.00        2978.00           1596          56.00       217.53
  107.03        2978.25           1600          49.00       187.01
  107.06        2978.50           1603          45.00       169.57
  107.09        2978.75           1606          50.00       191.37
  107.12        2979.00           1610          52.00       200.09
  107.15        2979.25           1613          56.00       217.53
  107.18        2979.50           1616          63.00       248.04
  107.22        2979.75           1620          49.00       187.01
  107.25        2980.00           1623          49.00       187.01
  107.28        2980.25           1626          63.00       248.04
  107.31        2980.50           1630          51.00       195.73
  107.34        2980.75           1633          55.00       213.17
  107.37        2981.00           1637          44.00       165.21
  107.40        2981.25           1640          51.00       195.73
  107.43        2981.50           1643          52.00       200.09
  107.46        2981.75           1647          53.00       204.45
  107.49        2982.00           1650          52.00       200.09
  107.52        2982.25           1653          44.00       165.21
  107.56        2982.50           1657          44.00       165.21
  107.59        2982.75           1660          51.00       195.73
  107.62        2983.00           1663          50.00       191.37
  107.65        2983.25           1667          49.00       187.01
  107.68        2983.50           1670          45.00       169.57
  107.71        2983.75           1673          51.00       195.73
  107.74        2984.00           1677          44.00       165.21
HS scan finished at 01:47:58
end
************************************************************
  HS Scan of (1) Internal mercury lamp
************************************************************
Integration time is 0.2294 seconds per sample
dh110718Manchester 53.47 2.23 3.126073pr1000
************************************************************
Dead Time -------------------------  3E-08 
Number of Cycles Used -------------  4 
Starting Wavelength (Angstroms) ---  2950 
Final Wavelength (Angstoms) -------  2984 
Wavelength Increment (Angstroms) --  .25 
Filter Wheel #1 Position ---------- (1) Ground quartz diffuser (ND=2.32)
Filter Wheel #2 Position ---------- (1) Neutral Density 0.494



************************************************************
HS scan start time = 21:42:03
Dark Count =  5 


Time (GMT)  Wavelength (Ang)  Step Number  Raw Counts  Counts/Second

 1302.42        2950.00           1222          52.00       204.88
 1302.49        2950.25           1226          56.00       222.32
 1302.52        2950.50           1229          54.00       213.60
 1302.55        2950.75           1232          59.00       235.40
 1302.58        2951.00           1236          55.00       217.96
 1302.62        2951.25           1239          59.00       235.40
 1302.65        2951.50           1242          62.00       248.48
 1302.68        2951.75           1246          55.00       217.96
 1302.71        2952.00           1249          49.00       191.81
 1302.74        2952.25           1252          57.00       226.68
 1302.77        2952.50           1256          53.00       209.24
 1302.80        2952.75           1259          50.00       196.17
 1302.83        2953.00           1262          66.00       265.91
 1302.86        2953.25           1266          53.00       209.24
 1302.89        2953.50           1269          63.00       252.84
 1302.92        2953.75           1272          58.00       231.04
 1302.96        2954.00           1276          51.00       200.52
 1302.99        2954.25           1279          55.00       217.96
 1303.02        2954.50           1282          54.00       213.60
 1303.05        2954.75           1286          48.00       187.45
 1303.08        2955.00           1289          58.00       231.04
 1303.11        2955.25           1292          59.00       235.40
 1303.14        2955.50           1296          62.00       248.48
 1303.17        2955.75           1299          52.00       204.88
 1303.20        2956.00           1302          53.00       209.24
 1303.24        2956.25           1306          48.00       187.45
 1303.27        2956.50           1309          54.00       213.60
 1303.30        2956.75           1312          58.00       231.04
 1303.33        2957.00           1316          57.00       226.68
 1303.36        2957.25           1319          47.00       183.09
 1303.39        2957.50           1322          58.00       231.04
 1303.42        2957.75           1326          46.00       178.73
 1303.45        2958.00           1329          49.00       191.81
 1303.48        2958.25           1332          53.00       209.24
 1303.51        2958.50           1336          54.00       213.60
 1303.55        2958.75           1339          57.00       226.68
 1303.58        2959.00           1342          54.00       213.60
 1303.61        2959.25           1346          64.00       257.19
 1303.64        2959.50           1349          59.00       235.40
 1303.67        2959.75           1352          74.00       300.79
 1303.70        2960.00           1356         100.00       414.13
 1303.73        2960.25           1359         138.00       579.78
 1303.76        2960.50           1362         185.00       784.67
 1303.79        2960.75           1366         228.00       972.13
 1303.82        2961.00           1369         262.00      1120.35
 1303.85        2961.25           1372         290.00      1242.42
 1303.88        2961.50           1376         385.00      1656.58
 1303.91        2961.75           1379         532.00      2297.46
 1303.95        2962.00           1382        1162.00      5044.36
 1303.98        2962.25           1386        2902.00     12633.38
 1304.01        2962.50           1389        4470.00     19475.20
 1304.04        2962.75           1392        5846.00     25481.55
 1304.07        2963.00           1396        7837.00     34176.26
 1304.10        2963.25           1399        9541.00     41621.25
 1304.13        2963.50           1402       11087.00     48378.80
 1304.16        2963.75           1406       13258.00     57872.85
 1304.19        2964.00           1409       14998.00     65485.98
 1304.23        2964.25           1412       16390.00     71579.00
 1304.26        2964.50           1416       18422.00     80477.41
 1304.29        2964.75           1419       20089.00     87780.99
 1304.32        2965.00           1422       21432.00     93667.38
 1304.35        2965.25           1426       23681.00    103529.40
 1304.38        2965.50           1429       25074.00    109640.80
 1304.41        2965.75           1432       26724.00    116882.50
 1304.44        2966.00           1436       28987.00    126819.90
 1304.47        2966.25           1439       30543.00    133656.00
 1304.50        2966.50           1442       31729.00    138868.50
 1304.54        2966.75           1446       33357.00    146026.30
 1304.57        2967.00           1449       33934.00    148563.90
 1304.60        2967.25           1452       34084.00    149223.70
 1304.63        2967.50           1456       34183.00    149659.10
 1304.66        2967.75           1459       34094.00    149267.60
 1304.69        2968.00           1462       34010.00    148898.20
 1304.72        2968.25           1466       33047.00    144663.10
 1304.75        2968.50           1469       31861.00    139448.80
 1304.78        2968.75           1472       30481.00    133383.60
 1304.82        2969.00           1476       28260.00    123626.80
 1304.85        2969.25           1479       26558.00    116153.80
 1304.88        2969.50           1482       25267.00    110487.70
 1304.91        2969.75           1486       22927.00    100222.40
 1304.94        2970.00           1489       21455.00     93768.21
 1304.97        2970.25           1492       19909.00     86992.21
 1305.00        2970.50           1496       17953.00     78423.18
 1305.03        2970.75           1499       16393.00     71592.13
 1305.06        2971.00           1502       14873.00     64938.94
 1305.10        2971.25           1506       12977.00     56643.69
 1305.13        2971.50           1509       11150.00     48654.23
 1305.16        2971.75           1513        9016.00     39327.11
 1305.19        2972.00           1516        7392.00     32232.55
 1305.22        2972.25           1519        5714.00     24905.26
 1305.25        2972.50           1523        3850.00     16769.55
 1305.28        2972.75           1526        2300.00     10007.36
 1305.31        2973.00           1529         975.00      4228.96
 1305.34        2973.25           1533         437.00      1883.28
 1305.37        2973.50           1536         336.00      1442.96
 1305.41        2973.75           1539         274.00      1172.67
 1305.44        2974.00           1543         235.00      1002.65
 1305.47        2974.25           1546         190.00       806.47
 1305.50        2974.50           1549         138.00       579.78
 1305.53        2974.75           1553          95.00       392.33
 1305.56        2975.00           1556          81.00       331.30
 1305.59        2975.25           1559          74.00       300.79
 1305.62        2975.50           1563          52.00       204.88
 1305.65        2975.75           1566          56.00       222.32
 1305.68        2976.00           1569          47.00       183.09
 1305.72        2976.25           1573          53.00       209.24
 1305.75        2976.50           1576          54.00       213.60
 1305.78        2976.75           1579          50.00       196.17
 1305.81        2977.00           1583          53.00       209.24
 1305.84        2977.25           1586          50.00       196.17
 1305.87        2977.50           1590          50.00       196.17
 1305.90        2977.75           1593          47.00       183.09
 1305.93        2978.00           1596          51.00       200.52
 1305.96        2978.25           1600          52.00       204.88
 1305.99        2978.50           1603          47.00       183.09
 1306.02        2978.75           1606          49.00       191.81
 1306.05        2979.00           1610          51.00       200.52
 1306.08        2979.25           1613          47.00       183.09
 1306.11        2979.50           1616          52.00       204.88
 1306.15        2979.75           1620          50.00       196.17
 1306.18        2980.00           1623          57.00       226.68
 1306.21        2980.25           1626          58.00       231.04
 1306.24        2980.50           1630          58.00       231.04
 1306.27        2980.75           1633          52.00       204.88
 1306.30        2981.00           1637          52.00       204.88
 1306.33        2981.25           1640          55.00       217.96
 1306.36        2981.50           1643          49.00       191.81
 1306.39        2981.75           1647          52.00       204.88
 1306.42        2982.00           1650          50.00       196.17
 1306.45        2982.25           1653          52.00       204.88
 1306.49        2982.50           1657          50.00       196.17
 1306.52        2982.75           1660          46.00       178.73
 1306.55        2983.00           1663          53.00       209.24
 1306.58        2983.25           1667          52.00       204.88
 1306.61        2983.50           1670          53.00       209.24
 1306.64        2983.75           1673          52.00       204.88
 1306.67        2984.00           1677          45.00       174.37
HS scan finished at 21:46:53
end
