************************************************************
  HS Scan of (1) Internal mercury lamp
************************************************************
Integration time is 0.2294 seconds per sample
dh130718Manchester 53.47 2.23 2.965129pr1000
************************************************************
Dead Time -------------------------  3E-08 
Number of Cycles Used -------------  4 
Starting Wavelength (Angstroms) ---  2950 
Final Wavelength (Angstoms) -------  2984 
Wavelength Increment (Angstroms) --  .25 
Filter Wheel #1 Position ---------- (1) Ground quartz diffuser (ND=2.32)
Filter Wheel #2 Position ---------- (1) Neutral Density 0.494



************************************************************
HS scan start time = 21:42:06
Dark Count =  4.8 


Time (GMT)  Wavelength (Ang)  Step Number  Raw Counts  Counts/Second

 1302.46        2950.00           1222          60.00       240.63
 1302.53        2950.25           1226          52.00       205.76
 1302.56        2950.50           1229          51.00       201.40
 1302.59        2950.75           1232          62.00       249.35
 1302.62        2951.00           1236          58.00       231.91
 1302.66        2951.25           1239          54.00       214.47
 1302.69        2951.50           1242          68.00       275.50
 1302.72        2951.75           1246          49.00       192.68
 1302.75        2952.00           1249          51.00       201.40
 1302.78        2952.25           1252          52.00       205.76
 1302.81        2952.50           1256          55.00       218.83
 1302.84        2952.75           1259          57.00       227.55
 1302.87        2953.00           1262          53.00       210.11
 1302.90        2953.25           1266          54.00       214.47
 1302.94        2953.50           1269          68.00       275.50
 1302.97        2953.75           1272          56.00       223.19
 1303.00        2954.00           1276          53.00       210.11
 1303.03        2954.25           1279          51.00       201.40
 1303.06        2954.50           1282          55.00       218.83
 1303.09        2954.75           1286          56.00       223.19
 1303.12        2955.00           1289          52.00       205.76
 1303.15        2955.25           1292          60.00       240.63
 1303.18        2955.50           1296          61.00       244.99
 1303.21        2955.75           1299          60.00       240.63
 1303.25        2956.00           1302          55.00       218.83
 1303.28        2956.25           1306          54.00       214.47
 1303.31        2956.50           1309          53.00       210.11
 1303.34        2956.75           1312          62.00       249.35
 1303.37        2957.00           1316          57.00       227.55
 1303.40        2957.25           1319          58.00       231.91
 1303.43        2957.50           1322          56.00       223.19
 1303.46        2957.75           1326          68.00       275.50
 1303.49        2958.00           1329          54.00       214.47
 1303.53        2958.25           1332          67.00       271.14
 1303.56        2958.50           1336          55.00       218.83
 1303.59        2958.75           1339          67.00       271.14
 1303.62        2959.00           1342          54.00       214.47
 1303.65        2959.25           1346          59.00       236.27
 1303.68        2959.50           1349          64.00       258.07
 1303.71        2959.75           1352          66.00       266.79
 1303.74        2960.00           1356         108.00       449.88
 1303.77        2960.25           1359         116.00       484.75
 1303.80        2960.50           1362         151.00       637.33
 1303.83        2960.75           1366         212.00       903.25
 1303.87        2961.00           1369         243.00      1038.39
 1303.90        2961.25           1372         294.00      1260.73
 1303.93        2961.50           1376         371.00      1596.41
 1303.96        2961.75           1379         517.00      2232.93
 1303.99        2962.00           1382        1159.00      5032.15
 1304.02        2962.25           1386        2808.00     12224.19
 1304.05        2962.50           1389        4316.00     18803.98
 1304.08        2962.75           1392        5704.00     24862.48
 1304.11        2963.00           1396        7611.00     33189.97
 1304.15        2963.25           1399        9033.00     39402.26
 1304.18        2963.50           1402       10551.00     46036.51
 1304.21        2963.75           1406       12734.00     55581.71
 1304.24        2964.00           1409       14328.00     62554.95
 1304.27        2964.25           1412       15773.00     68878.90
 1304.30        2964.50           1416       17815.00     77819.66
 1304.33        2964.75           1419       19307.00     84355.32
 1304.36        2965.00           1422       20900.00     91336.24
 1304.39        2965.25           1426       22673.00     99109.41
 1304.43        2965.50           1429       24214.00    105868.40
 1304.46        2965.75           1432       25629.00    112077.20
 1304.49        2966.00           1436       27625.00    120839.20
 1304.52        2966.25           1439       29057.00    127128.20
 1304.55        2966.50           1442       30637.00    134070.00
 1304.58        2966.75           1446       31958.00    139876.10
 1304.61        2967.00           1449       32229.00    141067.40
 1304.64        2967.25           1452       32295.00    141357.60
 1304.67        2967.50           1456       32259.00    141199.30
 1304.71        2967.75           1459       32351.00    141603.80
 1304.74        2968.00           1462       32125.00    140610.20
 1304.77        2968.25           1466       31084.00    136034.40
 1304.80        2968.50           1469       29985.00    131205.10
 1304.83        2968.75           1472       28455.00    124484.10
 1304.86        2969.00           1476       26446.00    115663.10
 1304.89        2969.25           1479       25033.00    109461.70
 1304.92        2969.50           1482       23405.00    102319.70
 1304.96        2969.75           1486       21309.00     93129.05
 1304.99        2970.00           1489       19955.00     87194.66
 1305.02        2970.25           1492       18482.00     80741.11
 1305.05        2970.50           1496       16591.00     72459.87
 1305.08        2970.75           1499       15153.00     66165.22
 1305.11        2971.00           1502       13713.00     59864.17
 1305.14        2971.25           1506       11773.00     51379.05
 1305.17        2971.50           1509       10143.00     44253.14
 1305.21        2971.75           1513        8216.00     35832.74
 1305.24        2972.00           1516        6700.00     29211.29
 1305.27        2972.25           1519        5234.00     22810.72
 1305.30        2972.50           1523        3226.00     14047.77
 1305.33        2972.75           1526        1967.00      8555.81
 1305.36        2973.00           1529         842.00      3649.92
 1305.39        2973.25           1533         413.00      1779.52
 1305.42        2973.50           1536         325.00      1395.87
 1305.46        2973.75           1539         271.00      1160.46
 1305.49        2974.00           1543         244.00      1042.75
 1305.52        2974.25           1546         182.00       772.47
 1305.55        2974.50           1549         155.00       654.76
 1305.58        2974.75           1553         105.00       436.80
 1305.61        2975.00           1556          79.00       323.46
 1305.64        2975.25           1559          58.00       231.91
 1305.67        2975.50           1563          56.00       223.19
 1305.70        2975.75           1566          59.00       236.27
 1305.73        2976.00           1569          47.00       183.96
 1305.77        2976.25           1573          51.00       201.40
 1305.80        2976.50           1576          56.00       223.19
 1305.83        2976.75           1579          47.00       183.96
 1305.86        2977.00           1583          57.00       227.55
 1305.89        2977.25           1586          54.00       214.47
 1305.92        2977.50           1590          52.00       205.76
 1305.95        2977.75           1593          49.00       192.68
 1305.98        2978.00           1596          53.00       210.11
 1306.01        2978.25           1600          51.00       201.40
 1306.04        2978.50           1603          55.00       218.83
 1306.07        2978.75           1606          52.00       205.76
 1306.11        2979.00           1610          49.00       192.68
 1306.14        2979.25           1613          51.00       201.40
 1306.17        2979.50           1616          49.00       192.68
 1306.20        2979.75           1620          50.00       197.04
 1306.23        2980.00           1623          54.00       214.47
 1306.26        2980.25           1626          47.00       183.96
 1306.29        2980.50           1630          54.00       214.47
 1306.32        2980.75           1633          64.00       258.07
 1306.35        2981.00           1637          46.00       179.60
 1306.38        2981.25           1640          55.00       218.83
 1306.42        2981.50           1643          48.00       188.32
 1306.45        2981.75           1647          49.00       192.68
 1306.48        2982.00           1650          51.00       201.40
 1306.51        2982.25           1653          62.00       249.35
 1306.54        2982.50           1657          56.00       223.19
 1306.57        2982.75           1660          41.00       157.80
 1306.60        2983.00           1663          48.00       188.32
 1306.63        2983.25           1667          47.00       183.96
 1306.66        2983.50           1670          46.00       179.60
 1306.69        2983.75           1673          50.00       197.04
 1306.73        2984.00           1677          47.00       183.96
HS scan finished at 21:46:57
end
