************************************************************
  HS Scan of (1) Internal mercury lamp
************************************************************
Integration time is 0.2294 seconds per sample
dh160718Manchester 53.47 2.23 3.072425pr1000
************************************************************
Dead Time -------------------------  3E-08 
Number of Cycles Used -------------  4 
Starting Wavelength (Angstroms) ---  2950 
Final Wavelength (Angstoms) -------  2984 
Wavelength Increment (Angstroms) --  .25 
Filter Wheel #1 Position ---------- (1) Ground quartz diffuser (ND=2.32)
Filter Wheel #2 Position ---------- (1) Neutral Density 0.494



************************************************************
HS scan start time = 01:42:51
Dark Count =  7.7 


Time (GMT)  Wavelength (Ang)  Step Number  Raw Counts  Counts/Second

  103.21        2950.00           1222          56.00       210.55
  103.28        2950.25           1226          50.00       184.40
  103.31        2950.50           1229          52.00       193.11
  103.34        2950.75           1232          53.00       197.47
  103.37        2951.00           1236          52.00       193.11
  103.40        2951.25           1239          62.00       236.71
  103.44        2951.50           1242          55.00       206.19
  103.47        2951.75           1246          48.00       175.68
  103.50        2952.00           1249          56.00       210.55
  103.53        2952.25           1252          51.00       188.75
  103.56        2952.50           1256          54.00       201.83
  103.59        2952.75           1259          56.00       210.55
  103.62        2953.00           1262          52.00       193.11
  103.65        2953.25           1266          55.00       206.19
  103.68        2953.50           1269          60.00       227.99
  103.71        2953.75           1272          52.00       193.11
  103.75        2954.00           1276          55.00       206.19
  103.78        2954.25           1279          62.00       236.71
  103.81        2954.50           1282          55.00       206.19
  103.84        2954.75           1286          59.00       223.63
  103.87        2955.00           1289          59.00       223.63
  103.90        2955.25           1292          44.00       158.24
  103.93        2955.50           1296          53.00       197.47
  103.96        2955.75           1299          64.00       245.42
  103.99        2956.00           1302          54.00       201.83
  104.02        2956.25           1306          57.00       214.91
  104.05        2956.50           1309          52.00       193.11
  104.09        2956.75           1312          53.00       197.47
  104.12        2957.00           1316          52.00       193.11
  104.15        2957.25           1319          52.00       193.11
  104.18        2957.50           1322          53.00       197.47
  104.21        2957.75           1326          59.00       223.63
  104.24        2958.00           1329          59.00       223.63
  104.27        2958.25           1332          54.00       201.83
  104.30        2958.50           1336          57.00       214.91
  104.33        2958.75           1339          59.00       223.63
  104.36        2959.00           1342          60.00       227.99
  104.40        2959.25           1346          59.00       223.63
  104.43        2959.50           1349          67.00       258.50
  104.46        2959.75           1352          75.00       293.38
  104.49        2960.00           1356         109.00       441.59
  104.52        2960.25           1359         142.00       585.45
  104.55        2960.50           1362         180.00       751.11
  104.58        2960.75           1366         232.00       977.80
  104.61        2961.00           1369         274.00      1160.89
  104.64        2961.25           1372         317.00      1348.35
  104.67        2961.50           1376         399.00      1705.84
  104.71        2961.75           1379         516.00      2215.93
  104.74        2962.00           1382        1117.00      4836.36
  104.77        2962.25           1386        2749.00     11954.16
  104.80        2962.50           1389        4283.00     18647.31
  104.83        2962.75           1392        5845.00     25465.39
  104.86        2963.00           1396        7718.00     33644.67
  104.89        2963.25           1399        9199.00     40114.94
  104.92        2963.50           1402       10883.00     47475.16
  104.95        2963.75           1406       13010.00     56776.22
  104.99        2964.00           1409       14466.00     63146.10
  105.02        2964.25           1412       16086.00     70236.33
  105.05        2964.50           1416       17930.00     78310.63
  105.08        2964.75           1419       19620.00     85714.02
  105.11        2965.00           1422       21399.00     93510.88
  105.14        2965.25           1426       23349.00    102061.40
  105.17        2965.50           1429       24775.00    108317.00
  105.20        2965.75           1432       26373.00    115329.90
  105.23        2966.00           1436       28442.00    124414.30
  105.27        2966.25           1439       29754.00    130177.40
  105.30        2966.50           1442       31197.00    136518.30
  105.33        2966.75           1446       32656.00    142932.00
  105.36        2967.00           1449       32896.00    143987.20
  105.39        2967.25           1452       33029.00    144572.10
  105.42        2967.50           1456       33124.00    144989.80
  105.45        2967.75           1459       33045.00    144642.40
  105.48        2968.00           1462       32917.00    144079.60
  105.52        2968.25           1466       31916.00    139678.70
  105.55        2968.50           1469       30623.00    133995.70
  105.58        2968.75           1472       29201.00    127748.00
  105.61        2969.00           1476       26973.00    117963.80
  105.64        2969.25           1479       25574.00    111823.10
  105.67        2969.50           1482       24062.00    105188.90
  105.70        2969.75           1486       22237.00     97184.85
  105.73        2970.00           1489       20849.00     91099.99
  105.76        2970.25           1492       19229.00     84000.87
  105.79        2970.50           1496       17321.00     75643.57
  105.83        2970.75           1499       15816.00     69054.41
  105.86        2971.00           1502       14260.00     62244.72
  105.89        2971.25           1506       12000.00     52358.99
  105.92        2971.50           1509       10456.00     45608.57
  105.95        2971.75           1513        8414.00     36685.08
  105.98        2972.00           1516        6926.00     30185.56
  106.01        2972.25           1519        5515.00     24024.72
  106.04        2972.50           1523        3599.00     15662.55
  106.07        2972.75           1526        2183.00      9485.26
  106.10        2973.00           1529        1005.00      4348.00
  106.13        2973.25           1533         413.00      1766.88
  106.17        2973.50           1536         321.00      1365.79
  106.20        2973.75           1539         268.00      1134.74
  106.23        2974.00           1543         225.00       947.28
  106.26        2974.25           1546         169.00       703.15
  106.29        2974.50           1549         128.00       524.42
  106.32        2974.75           1553          80.00       315.17
  106.35        2975.00           1556          69.00       267.22
  106.38        2975.25           1559          66.00       254.14
  106.41        2975.50           1563          58.00       219.27
  106.44        2975.75           1566          58.00       219.27
  106.48        2976.00           1569          52.00       193.11
  106.51        2976.25           1573          57.00       214.91
  106.54        2976.50           1576          51.00       188.75
  106.57        2976.75           1579          52.00       193.11
  106.60        2977.00           1583          53.00       197.47
  106.63        2977.25           1586          56.00       210.55
  106.66        2977.50           1590          54.00       201.83
  106.69        2977.75           1593          49.00       180.04
  106.72        2978.00           1596          55.00       206.19
  106.75        2978.25           1600          57.00       214.91
  106.79        2978.50           1603          47.00       171.32
  106.82        2978.75           1606          48.00       175.68
  106.85        2979.00           1610          52.00       193.11
  106.88        2979.25           1613          50.00       184.40
  106.91        2979.50           1616          47.00       171.32
  106.94        2979.75           1620          51.00       188.75
  106.97        2980.00           1623          49.00       180.04
  107.00        2980.25           1626          49.00       180.04
  107.03        2980.50           1630          56.00       210.55
  107.06        2980.75           1633          50.00       184.40
  107.09        2981.00           1637          55.00       206.19
  107.12        2981.25           1640          64.00       245.42
  107.16        2981.50           1643          56.00       210.55
  107.19        2981.75           1647          47.00       171.32
  107.22        2982.00           1650          53.00       197.47
  107.25        2982.25           1653          48.00       175.68
  107.28        2982.50           1657          43.00       153.88
  107.31        2982.75           1660          49.00       180.04
  107.34        2983.00           1663          56.00       210.55
  107.37        2983.25           1667          54.00       201.83
  107.40        2983.50           1670          47.00       171.32
  107.44        2983.75           1673          45.00       162.60
  107.47        2984.00           1677          54.00       201.83
HS scan finished at 01:47:41
end
************************************************************
  HS Scan of (1) Internal mercury lamp
************************************************************
Integration time is 0.2294 seconds per sample
dh160718Manchester 53.47 2.23 2.857833pr1000
************************************************************
Dead Time -------------------------  3E-08 
Number of Cycles Used -------------  4 
Starting Wavelength (Angstroms) ---  2950 
Final Wavelength (Angstoms) -------  2984 
Wavelength Increment (Angstroms) --  .25 
Filter Wheel #1 Position ---------- (1) Ground quartz diffuser (ND=2.32)
Filter Wheel #2 Position ---------- (1) Neutral Density 0.494



************************************************************
HS scan start time = 21:42:07
Dark Count =  5 


Time (GMT)  Wavelength (Ang)  Step Number  Raw Counts  Counts/Second

 1302.48        2950.00           1222          64.00       257.19
 1302.55        2950.25           1226          52.00       204.88
 1302.58        2950.50           1229          60.00       239.76
 1302.61        2950.75           1232          49.00       191.81
 1302.64        2951.00           1236          55.00       217.96
 1302.67        2951.25           1239          51.00       200.52
 1302.71        2951.50           1242          55.00       217.96
 1302.74        2951.75           1246          57.00       226.68
 1302.77        2952.00           1249          51.00       200.52
 1302.80        2952.25           1252          58.00       231.04
 1302.83        2952.50           1256          62.00       248.48
 1302.86        2952.75           1259          58.00       231.04
 1302.89        2953.00           1262          52.00       204.88
 1302.92        2953.25           1266          55.00       217.96
 1302.95        2953.50           1269          59.00       235.40
 1302.98        2953.75           1272          55.00       217.96
 1303.02        2954.00           1276          57.00       226.68
 1303.05        2954.25           1279          60.00       239.76
 1303.08        2954.50           1282          62.00       248.48
 1303.11        2954.75           1286          54.00       213.60
 1303.14        2955.00           1289          59.00       235.40
 1303.17        2955.25           1292          56.00       222.32
 1303.20        2955.50           1296          58.00       231.04
 1303.23        2955.75           1299          59.00       235.40
 1303.26        2956.00           1302          57.00       226.68
 1303.29        2956.25           1306          56.00       222.32
 1303.32        2956.50           1309          55.00       217.96
 1303.36        2956.75           1312          55.00       217.96
 1303.39        2957.00           1316          56.00       222.32
 1303.42        2957.25           1319          60.00       239.76
 1303.45        2957.50           1322          52.00       204.88
 1303.48        2957.75           1326          62.00       248.48
 1303.51        2958.00           1329          53.00       209.24
 1303.54        2958.25           1332          45.00       174.37
 1303.57        2958.50           1336          59.00       235.40
 1303.60        2958.75           1339          55.00       217.96
 1303.64        2959.00           1342          64.00       257.19
 1303.67        2959.25           1346          59.00       235.40
 1303.70        2959.50           1349          78.00       318.22
 1303.73        2959.75           1352          79.00       322.58
 1303.76        2960.00           1356         129.00       540.55
 1303.79        2960.25           1359         147.00       619.02
 1303.82        2960.50           1362         179.00       758.52
 1303.85        2960.75           1366         219.00       932.89
 1303.88        2961.00           1369         262.00      1120.35
 1303.92        2961.25           1372         305.00      1307.81
 1303.95        2961.50           1376         384.00      1652.22
 1303.98        2961.75           1379         557.00      2406.45
 1304.01        2962.00           1382        1212.00      5262.38
 1304.04        2962.25           1386        2834.00     12336.74
 1304.07        2962.50           1389        4244.00     18488.89
 1304.10        2962.75           1392        5549.00     24184.94
 1304.13        2963.00           1396        7275.00     31721.54
 1304.16        2963.25           1399        8638.00     37675.52
 1304.19        2963.50           1402       10059.00     43885.12
 1304.22        2963.75           1406       11843.00     51684.27
 1304.26        2964.00           1409       13346.00     58257.80
 1304.29        2964.25           1412       14853.00     64851.42
 1304.32        2964.50           1416       16630.00     72629.75
 1304.35        2964.75           1419       18012.00     78681.58
 1304.38        2965.00           1422       19557.00     85449.81
 1304.41        2965.25           1426       21565.00     94250.42
 1304.44        2965.50           1429       23110.00    101025.00
 1304.47        2965.75           1432       24535.00    107275.80
 1304.50        2966.00           1436       26274.00    114907.20
 1304.54        2966.25           1439       27581.00    120645.10
 1304.57        2966.50           1442       28781.00    125915.00
 1304.60        2966.75           1446       30297.00    132575.10
 1304.63        2967.00           1449       30512.00    133519.80
 1304.66        2967.25           1452       30727.00    134464.60
 1304.69        2967.50           1456       30619.00    133990.00
 1304.72        2967.75           1459       30542.00    133651.60
 1304.75        2968.00           1462       30646.00    134108.70
 1304.79        2968.25           1466       29737.00    130114.60
 1304.82        2968.50           1469       28421.00    124333.90
 1304.85        2968.75           1472       27202.00    118981.10
 1304.88        2969.00           1476       25338.00    110799.30
 1304.91        2969.25           1479       23645.00    103371.50
 1304.94        2969.50           1482       22596.00     98770.88
 1304.97        2969.75           1486       20845.00     91094.29
 1305.00        2970.00           1489       19287.00     84266.81
 1305.03        2970.25           1492       17960.00     78453.84
 1305.07        2970.50           1496       16098.00     70300.68
 1305.10        2970.75           1499       14595.00     63722.40
 1305.13        2971.00           1502       13128.00     57304.18
 1305.16        2971.25           1506       11275.00     49200.73
 1305.19        2971.50           1509        9702.00     42324.85
 1305.22        2971.75           1513        7805.00     34036.49
 1305.25        2972.00           1516        6472.00     28214.81
 1305.28        2972.25           1519        4997.00     21775.34
 1305.31        2972.50           1523        3223.00     14033.81
 1305.35        2972.75           1526        1902.00      8271.45
 1305.38        2973.00           1529         848.00      3675.21
 1305.41        2973.25           1533         376.00      1617.34
 1305.44        2973.50           1536         286.00      1224.98
 1305.47        2973.75           1539         227.00       967.77
 1305.50        2974.00           1543         186.00       789.03
 1305.53        2974.25           1546         135.00       566.71
 1305.56        2974.50           1549         113.00       470.80
 1305.59        2974.75           1553          74.00       300.79
 1305.62        2975.00           1556          61.00       244.12
 1305.65        2975.25           1559          58.00       231.04
 1305.68        2975.50           1563          57.00       226.68
 1305.72        2975.75           1566          49.00       191.81
 1305.75        2976.00           1569          56.00       222.32
 1305.78        2976.25           1573          51.00       200.52
 1305.81        2976.50           1576          58.00       231.04
 1305.84        2976.75           1579          53.00       209.24
 1305.87        2977.00           1583          54.00       213.60
 1305.90        2977.25           1586          53.00       209.24
 1305.93        2977.50           1590          55.00       217.96
 1305.96        2977.75           1593          54.00       213.60
 1306.00        2978.00           1596          60.00       239.76
 1306.03        2978.25           1600          55.00       217.96
 1306.06        2978.50           1603          43.00       165.65
 1306.09        2978.75           1606          51.00       200.52
 1306.12        2979.00           1610          55.00       217.96
 1306.15        2979.25           1613          56.00       222.32
 1306.18        2979.50           1616          49.00       191.81
 1306.21        2979.75           1620          53.00       209.24
 1306.24        2980.00           1623          47.00       183.09
 1306.27        2980.25           1626          59.00       235.40
 1306.31        2980.50           1630          56.00       222.32
 1306.34        2980.75           1633          52.00       204.88
 1306.37        2981.00           1637          49.00       191.81
 1306.40        2981.25           1640          43.00       165.65
 1306.43        2981.50           1643          47.00       183.09
 1306.46        2981.75           1647          54.00       213.60
 1306.49        2982.00           1650          53.00       209.24
 1306.52        2982.25           1653          48.00       187.45
 1306.55        2982.50           1657          49.00       191.81
 1306.58        2982.75           1660          45.00       174.37
 1306.61        2983.00           1663          59.00       235.40
 1306.65        2983.25           1667          45.00       174.37
 1306.68        2983.50           1670          44.00       170.01
 1306.71        2983.75           1673          58.00       231.04
 1306.74        2984.00           1677          55.00       217.96
HS scan finished at 21:46:57
end
