************************************************************
  HS Scan of (1) Internal mercury lamp
************************************************************
Integration time is 0.2294 seconds per sample
dh160717Manchester 53.47 2.23 2.911481pr1000
************************************************************
Dead Time -------------------------  3E-08 
Number of Cycles Used -------------  4 
Starting Wavelength (Angstroms) ---  2950 
Final Wavelength (Angstoms) -------  2984 
Wavelength Increment (Angstroms) --  .25 
Filter Wheel #1 Position ---------- (1) Ground quartz diffuser (ND=2.32)
Filter Wheel #2 Position ---------- (1) Neutral Density 0.494



************************************************************
HS scan start time = 01:43:04
Dark Count =  6.2 


Time (GMT)  Wavelength (Ang)  Step Number  Raw Counts  Counts/Second

  103.44        2950.00           1222         113.00       465.57
  103.50        2950.25           1226         103.00       421.98
  103.53        2950.50           1229         107.00       439.41
  103.57        2950.75           1232         102.00       417.62
  103.60        2951.00           1236         106.00       435.05
  103.63        2951.25           1239         118.00       487.37
  103.66        2951.50           1242         105.00       430.69
  103.69        2951.75           1246         115.00       474.29
  103.72        2952.00           1249         108.00       443.77
  103.75        2952.25           1252         115.00       474.29
  103.78        2952.50           1256         107.00       439.41
  103.81        2952.75           1259         110.00       452.49
  103.84        2953.00           1262         108.00       443.77
  103.87        2953.25           1266         107.00       439.41
  103.90        2953.50           1269         115.00       474.29
  103.94        2953.75           1272         116.00       478.65
  103.97        2954.00           1276         111.00       456.85
  104.00        2954.25           1279         114.00       469.93
  104.03        2954.50           1282         116.00       478.65
  104.06        2954.75           1286         105.00       430.69
  104.09        2955.00           1289         105.00       430.69
  104.12        2955.25           1292         108.00       443.77
  104.15        2955.50           1296         113.00       465.57
  104.18        2955.75           1299         107.00       439.41
  104.21        2956.00           1302         106.00       435.05
  104.25        2956.25           1306         119.00       491.72
  104.28        2956.50           1309         101.00       413.26
  104.31        2956.75           1312         103.00       421.98
  104.34        2957.00           1316         104.00       426.34
  104.37        2957.25           1319         105.00       430.69
  104.40        2957.50           1322         110.00       452.49
  104.43        2957.75           1326         110.00       452.49
  104.46        2958.00           1329         110.00       452.49
  104.49        2958.25           1332         103.00       421.98
  104.52        2958.50           1336         108.00       443.77
  104.55        2958.75           1339         107.00       439.41
  104.59        2959.00           1342         106.00       435.05
  104.62        2959.25           1346         105.00       430.69
  104.65        2959.50           1349         110.00       452.49
  104.68        2959.75           1352         122.00       504.80
  104.71        2960.00           1356         135.00       561.47
  104.74        2960.25           1359         178.00       748.93
  104.77        2960.50           1362         220.00       932.02
  104.80        2960.75           1366         288.00      1228.47
  104.83        2961.00           1369         315.00      1346.17
  104.87        2961.25           1372         378.00      1620.83
  104.90        2961.50           1376         479.00      2061.16
  104.93        2961.75           1379         732.00      3164.21
  104.96        2962.00           1382        1659.00      7206.44
  104.99        2962.25           1386        3831.00     16681.41
  105.02        2962.50           1389        5616.00     24472.19
  105.05        2962.75           1392        7232.00     31528.50
  105.08        2963.00           1396        9474.00     41323.21
  105.11        2963.25           1399       11119.00     48513.46
  105.15        2963.50           1402       12753.00     55658.69
  105.18        2963.75           1406       15174.00     66250.99
  105.21        2964.00           1409       16924.00     73911.75
  105.24        2964.25           1412       18662.00     81523.47
  105.27        2964.50           1416       21106.00     92233.06
  105.30        2964.75           1419       22741.00     99401.49
  105.33        2965.00           1422       24806.00    108459.60
  105.36        2965.25           1426       27091.00    118488.50
  105.39        2965.50           1429       28908.00    126467.60
  105.43        2965.75           1432       30810.00    134824.10
  105.46        2966.00           1436       32933.00    144156.50
  105.49        2966.25           1439       34592.00    151452.90
  105.52        2966.50           1442       36172.00    158404.90
  105.55        2966.75           1446       37720.00    165218.80
  105.58        2967.00           1449       38069.00    166755.40
  105.61        2967.25           1452       37901.00    166015.70
  105.64        2967.50           1456       38130.00    167024.00
  105.67        2967.75           1459       38021.00    166544.10
  105.70        2968.00           1462       37642.00    164875.40
  105.74        2968.25           1466       36329.00    159095.80
  105.77        2968.50           1469       34717.00    152002.80
  105.80        2968.75           1472       33126.00    145005.20
  105.83        2969.00           1476       30834.00    134929.60
  105.86        2969.25           1479       29178.00    127653.60
  105.89        2969.50           1482       27542.00    120468.60
  105.92        2969.75           1486       25281.00    110543.90
  105.95        2970.00           1489       23533.00    102875.00
  105.98        2970.25           1492       21812.00     95328.03
  106.02        2970.50           1496       19411.00     84804.85
  106.05        2970.75           1499       17617.00     76946.40
  106.08        2971.00           1502       15913.00     69485.59
  106.11        2971.25           1506       13544.00     59118.71
  106.14        2971.50           1509       11778.00     51394.79
  106.17        2971.75           1513        9488.00     41384.39
  106.20        2972.00           1516        7640.00     33310.52
  106.23        2972.25           1519        5851.00     25498.14
  106.26        2972.50           1523        3688.00     16057.43
  106.30        2972.75           1526        2128.00      9251.91
  106.33        2973.00           1529         980.00      4245.53
  106.36        2973.25           1533         507.00      2183.23
  106.39        2973.50           1536         428.00      1838.81
  106.42        2973.75           1539         388.00      1664.42
  106.45        2974.00           1543         305.00      1302.58
  106.48        2974.25           1546         263.00      1119.48
  106.51        2974.50           1549         205.00       866.63
  106.54        2974.75           1553         162.00       679.18
  106.57        2975.00           1556         134.00       557.11
  106.61        2975.25           1559         120.00       496.08
  106.64        2975.50           1563         106.00       435.05
  106.67        2975.75           1566         101.00       413.26
  106.70        2976.00           1569         102.00       417.62
  106.73        2976.25           1573         105.00       430.69
  106.76        2976.50           1576          98.00       400.18
  106.79        2976.75           1579          94.00       382.74
  106.82        2977.00           1583          96.00       391.46
  106.85        2977.25           1586          96.00       391.46
  106.88        2977.50           1590         100.00       408.90
  106.91        2977.75           1593         103.00       421.98
  106.94        2978.00           1596          91.00       369.66
  106.98        2978.25           1600          98.00       400.18
  107.01        2978.50           1603          90.00       365.30
  107.04        2978.75           1606         111.00       456.85
  107.07        2979.00           1610          95.00       387.10
  107.10        2979.25           1613          91.00       369.66
  107.13        2979.50           1616          92.00       374.02
  107.16        2979.75           1620          95.00       387.10
  107.19        2980.00           1623          98.00       400.18
  107.22        2980.25           1626         108.00       443.77
  107.25        2980.50           1630          98.00       400.18
  107.28        2980.75           1633          88.00       356.59
  107.31        2981.00           1637         100.00       408.90
  107.34        2981.25           1640          95.00       387.10
  107.38        2981.50           1643          95.00       387.10
  107.41        2981.75           1647          96.00       391.46
  107.44        2982.00           1650          94.00       382.74
  107.47        2982.25           1653          88.00       356.59
  107.50        2982.50           1657          85.00       343.51
  107.53        2982.75           1660          93.00       378.38
  107.56        2983.00           1663          87.00       352.23
  107.59        2983.25           1667          94.00       382.74
  107.62        2983.50           1670          86.00       347.87
  107.65        2983.75           1673          93.00       378.38
  107.68        2984.00           1677          93.00       378.38
HS scan finished at 01:47:54
end
************************************************************
  HS Scan of (1) Internal mercury lamp
************************************************************
Integration time is 0.2294 seconds per sample
dh160717Manchester 53.47 2.23 2.857833pr1000
************************************************************
Dead Time -------------------------  3E-08 
Number of Cycles Used -------------  4 
Starting Wavelength (Angstroms) ---  2950 
Final Wavelength (Angstoms) -------  2984 
Wavelength Increment (Angstroms) --  .25 
Filter Wheel #1 Position ---------- (1) Ground quartz diffuser (ND=2.32)
Filter Wheel #2 Position ---------- (1) Neutral Density 0.494



************************************************************
HS scan start time = 21:42:01
Dark Count =  7.8 


Time (GMT)  Wavelength (Ang)  Step Number  Raw Counts  Counts/Second

 1302.39        2950.00           1222         120.00       489.11
 1302.45        2950.25           1226         104.00       419.36
 1302.48        2950.50           1229         120.00       489.11
 1302.51        2950.75           1232         110.00       445.52
 1302.54        2951.00           1236         107.00       432.44
 1302.58        2951.25           1239          98.00       393.20
 1302.61        2951.50           1242         115.00       467.31
 1302.64        2951.75           1246         114.00       462.95
 1302.67        2952.00           1249         101.00       406.28
 1302.70        2952.25           1252         122.00       497.83
 1302.73        2952.50           1256         104.00       419.36
 1302.76        2952.75           1259         110.00       445.52
 1302.79        2953.00           1262         109.00       441.16
 1302.82        2953.25           1266         100.00       401.92
 1302.85        2953.50           1269         121.00       493.47
 1302.88        2953.75           1272         110.00       445.52
 1302.91        2954.00           1276         101.00       406.28
 1302.94        2954.25           1279         106.00       428.08
 1302.98        2954.50           1282         104.00       419.36
 1303.01        2954.75           1286         109.00       441.16
 1303.04        2955.00           1289         112.00       454.23
 1303.07        2955.25           1292         106.00       428.08
 1303.10        2955.50           1296         107.00       432.44
 1303.13        2955.75           1299         109.00       441.16
 1303.16        2956.00           1302         104.00       419.36
 1303.19        2956.25           1306         113.00       458.59
 1303.22        2956.50           1309         112.00       454.23
 1303.25        2956.75           1312         110.00       445.52
 1303.29        2957.00           1316         111.00       449.88
 1303.32        2957.25           1319         105.00       423.72
 1303.35        2957.50           1322         110.00       445.52
 1303.38        2957.75           1326         109.00       441.16
 1303.41        2958.00           1329         115.00       467.31
 1303.44        2958.25           1332         104.00       419.36
 1303.47        2958.50           1336         117.00       476.03
 1303.50        2958.75           1339         115.00       467.31
 1303.53        2959.00           1342         100.00       401.92
 1303.56        2959.25           1346         124.00       506.55
 1303.59        2959.50           1349         126.00       515.27
 1303.62        2959.75           1352         127.00       519.62
 1303.66        2960.00           1356         155.00       641.69
 1303.69        2960.25           1359         211.00       885.81
 1303.72        2960.50           1362         238.00      1003.52
 1303.75        2960.75           1366         277.00      1173.54
 1303.78        2961.00           1369         329.00      1400.23
 1303.81        2961.25           1372         355.00      1513.58
 1303.84        2961.50           1376         458.00      1962.63
 1303.87        2961.75           1379         615.00      2647.12
 1303.90        2962.00           1382        1265.00      5481.28
 1303.93        2962.25           1386        2998.00     13039.97
 1303.96        2962.50           1389        4695.00     20444.97
 1303.99        2962.75           1392        6349.00     27665.50
 1304.03        2963.00           1396        8585.00     37431.72
 1304.06        2963.25           1399       10302.00     44934.99
 1304.09        2963.50           1402       11774.00     51370.31
 1304.12        2963.75           1406       14141.00     61723.61
 1304.15        2964.00           1409       16053.00     70091.44
 1304.18        2964.25           1412       17822.00     77837.18
 1304.21        2964.50           1416       19862.00     86773.99
 1304.24        2964.75           1419       21478.00     93856.75
 1304.27        2965.00           1422       23264.00    101688.10
 1304.31        2965.25           1426       25553.00    111730.50
 1304.34        2965.50           1429       27422.00    119934.70
 1304.37        2965.75           1432       29051.00    127088.70
 1304.40        2966.00           1436       31544.00    138043.00
 1304.43        2966.25           1439       32962.00    144277.00
 1304.46        2966.50           1442       34395.00    150579.30
 1304.49        2966.75           1446       35974.00    157526.50
 1304.52        2967.00           1449       36498.00    159832.60
 1304.56        2967.25           1452       36422.00    159498.10
 1304.59        2967.50           1456       36404.00    159418.90
 1304.62        2967.75           1459       36414.00    159462.90
 1304.65        2968.00           1462       36201.00    158525.40
 1304.68        2968.25           1466       35485.00    155374.70
 1304.71        2968.50           1469       33924.00    148507.60
 1304.74        2968.75           1472       32209.00    140966.30
 1304.77        2969.00           1476       30017.00    131332.50
 1304.80        2969.25           1479       28422.00    124326.00
 1304.84        2969.50           1482       26479.00    115794.80
 1304.87        2969.75           1486       24350.00    106451.90
 1304.90        2970.00           1489       22612.00     98828.76
 1304.93        2970.25           1492       20913.00     91380.07
 1304.96        2970.50           1496       18936.00     82716.78
 1304.99        2970.75           1499       17181.00     75030.07
 1305.02        2971.00           1502       15779.00     68892.02
 1305.05        2971.25           1506       13369.00     58346.16
 1305.08        2971.50           1509       11785.00     51418.40
 1305.11        2971.75           1513        9425.00     41102.09
 1305.14        2972.00           1516        7805.00     34024.25
 1305.18        2972.25           1519        6017.00     26215.90
 1305.21        2972.50           1523        3929.00     17102.06
 1305.24        2972.75           1526        2385.00     10365.91
 1305.27        2973.00           1529        1222.00      5293.78
 1305.30        2973.25           1533         525.00      2254.73
 1305.33        2973.50           1536         409.00      1749.00
 1305.36        2973.75           1539         350.00      1491.78
 1305.39        2974.00           1543         300.00      1273.81
 1305.42        2974.25           1546         254.00      1073.27
 1305.46        2974.50           1549         190.00       794.26
 1305.49        2974.75           1553         157.00       650.41
 1305.52        2975.00           1556         132.00       541.42
 1305.55        2975.25           1559         117.00       476.03
 1305.58        2975.50           1563         102.00       410.64
 1305.61        2975.75           1566          92.00       367.05
 1305.64        2976.00           1569         106.00       428.08
 1305.67        2976.25           1573          94.00       375.77
 1305.70        2976.50           1576          97.00       388.85
 1305.73        2976.75           1579         101.00       406.28
 1305.76        2977.00           1583         100.00       401.92
 1305.80        2977.25           1586         103.00       415.00
 1305.83        2977.50           1590          95.00       380.13
 1305.86        2977.75           1593          93.00       371.41
 1305.89        2978.00           1596          88.00       349.61
 1305.92        2978.25           1600         100.00       401.92
 1305.95        2978.50           1603          96.00       384.49
 1305.98        2978.75           1606          97.00       388.85
 1306.01        2979.00           1610          96.00       384.49
 1306.04        2979.25           1613          98.00       393.20
 1306.07        2979.50           1616         103.00       415.00
 1306.10        2979.75           1620         105.00       423.72
 1306.13        2980.00           1623          97.00       388.85
 1306.16        2980.25           1626         102.00       410.64
 1306.20        2980.50           1630          95.00       380.13
 1306.23        2980.75           1633         106.00       428.08
 1306.26        2981.00           1637          92.00       367.05
 1306.29        2981.25           1640         105.00       423.72
 1306.32        2981.50           1643          95.00       380.13
 1306.35        2981.75           1647          94.00       375.77
 1306.38        2982.00           1650          85.00       336.53
 1306.41        2982.25           1653          93.00       371.41
 1306.44        2982.50           1657          96.00       384.49
 1306.48        2982.75           1660          90.00       358.33
 1306.51        2983.00           1663          90.00       358.33
 1306.54        2983.25           1667          93.00       371.41
 1306.57        2983.50           1670          84.00       332.17
 1306.60        2983.75           1673          84.00       332.17
 1306.63        2984.00           1677          95.00       380.13
HS scan finished at 21:46:51
end
