************************************************************
  HS Scan of (1) Internal mercury lamp
************************************************************
Integration time is 0.2294 seconds per sample
dh120717Manchester 53.47 2.23 2.804185pr1000
************************************************************
Dead Time -------------------------  3E-08 
Number of Cycles Used -------------  4 
Starting Wavelength (Angstroms) ---  2950 
Final Wavelength (Angstoms) -------  2984 
Wavelength Increment (Angstroms) --  .25 
Filter Wheel #1 Position ---------- (1) Ground quartz diffuser (ND=2.32)
Filter Wheel #2 Position ---------- (1) Neutral Density 0.494



************************************************************
HS scan start time = 02:18:48
Dark Count =  5.9 


Time (GMT)  Wavelength (Ang)  Step Number  Raw Counts  Counts/Second

  139.18        2950.00           1222          45.00       170.45
  139.24        2950.25           1226          38.00       139.93
  139.27        2950.50           1229          41.00       153.01
  139.31        2950.75           1232          36.00       131.21
  139.34        2951.00           1236          39.00       144.29
  139.37        2951.25           1239          35.00       126.85
  139.40        2951.50           1242          47.00       179.16
  139.43        2951.75           1246          41.00       153.01
  139.46        2952.00           1249          36.00       131.21
  139.49        2952.25           1252          40.00       148.65
  139.52        2952.50           1256          42.00       157.37
  139.55        2952.75           1259          48.00       183.52
  139.58        2953.00           1262          45.00       170.45
  139.61        2953.25           1266          39.00       144.29
  139.65        2953.50           1269          36.00       131.21
  139.68        2953.75           1272          44.00       166.09
  139.71        2954.00           1276          44.00       166.09
  139.74        2954.25           1279          45.00       170.45
  139.77        2954.50           1282          50.00       192.24
  139.80        2954.75           1286          42.00       157.37
  139.83        2955.00           1289          42.00       157.37
  139.86        2955.25           1292          41.00       153.01
  139.89        2955.50           1296          45.00       170.45
  139.92        2955.75           1299          46.00       174.80
  139.96        2956.00           1302          47.00       179.16
  139.99        2956.25           1306          42.00       157.37
  140.02        2956.50           1309          46.00       174.80
  140.05        2956.75           1312          41.00       153.01
  140.08        2957.00           1316          48.00       183.52
  140.11        2957.25           1319          47.00       179.16
  140.14        2957.50           1322          45.00       170.45
  140.17        2957.75           1326          43.00       161.73
  140.20        2958.00           1329          41.00       153.01
  140.23        2958.25           1332          45.00       170.45
  140.26        2958.50           1336          46.00       174.80
  140.29        2958.75           1339          50.00       192.24
  140.32        2959.00           1342          49.00       187.88
  140.36        2959.25           1346          50.00       192.24
  140.39        2959.50           1349          49.00       187.88
  140.42        2959.75           1352          69.00       275.07
  140.45        2960.00           1356          94.00       384.05
  140.48        2960.25           1359         132.00       549.70
  140.51        2960.50           1362         174.00       732.80
  140.54        2960.75           1366         232.00       985.64
  140.57        2961.00           1369         282.00      1203.62
  140.60        2961.25           1372         324.00      1386.72
  140.63        2961.50           1376         415.00      1783.44
  140.66        2961.75           1379         632.00      2729.52
  140.70        2962.00           1382        1286.00      5581.14
  140.73        2962.25           1386        3044.00     13248.95
  140.76        2962.50           1389        4622.00     20134.65
  140.79        2962.75           1392        6268.00     27320.12
  140.82        2963.00           1396        8285.00     36129.37
  140.85        2963.25           1399       10033.00     43767.55
  140.88        2963.50           1402       11670.00     50923.86
  140.91        2963.75           1406       13754.00     60038.73
  140.95        2964.00           1409       15401.00     67245.81
  140.98        2964.25           1412       17191.00     75082.18
  141.01        2964.50           1416       19463.00     85034.00
  141.04        2964.75           1419       21133.00     92352.74
  141.07        2965.00           1422       22868.00     99959.72
  141.10        2965.25           1426       25276.00    110523.20
  141.13        2965.50           1429       26774.00    117098.10
  141.16        2965.75           1432       28376.00    124132.30
  141.19        2966.00           1436       30475.00    133353.30
  141.23        2966.25           1439       31912.00    139669.00
  141.26        2966.50           1442       33380.00    146123.50
  141.29        2966.75           1446       35104.00    153706.70
  141.32        2967.00           1449       35875.00    157099.20
  141.35        2967.25           1452       36015.00    157715.30
  141.38        2967.50           1456       35936.00    157367.60
  141.41        2967.75           1459       35855.00    157011.20
  141.44        2968.00           1462       35677.00    156227.90
  141.47        2968.25           1466       34795.00    152347.30
  141.51        2968.50           1469       33583.00    147016.20
  141.54        2968.75           1472       31834.00    139326.10
  141.57        2969.00           1476       29737.00    130110.60
  141.60        2969.25           1479       28354.00    124035.70
  141.63        2969.50           1482       26518.00    115974.30
  141.66        2969.75           1486       24349.00    106455.80
  141.69        2970.00           1489       22753.00     99455.41
  141.72        2970.25           1492       20960.00     91594.41
  141.75        2970.50           1496       18904.00     82584.91
  141.78        2970.75           1499       17136.00     74841.35
  141.81        2971.00           1502       15570.00     67985.52
  141.84        2971.25           1506       13329.00     58179.49
  141.88        2971.50           1509       11618.00     50696.49
  141.91        2971.75           1513        9440.00     41175.94
  141.94        2972.00           1516        7723.00     33674.37
  141.97        2972.25           1519        6206.00     27049.41
  142.00        2972.50           1523        4058.00     17673.27
  142.03        2972.75           1526        2546.00     11076.48
  142.06        2973.00           1529        1292.00      5607.31
  142.09        2973.25           1533         466.00      2005.79
  142.12        2973.50           1536         325.00      1391.08
  142.15        2973.75           1539         287.00      1225.42
  142.18        2974.00           1543         246.00      1046.68
  142.22        2974.25           1546         175.00       737.16
  142.25        2974.50           1549         129.00       536.63
  142.28        2974.75           1553          80.00       323.02
  142.31        2975.00           1556          67.00       266.35
  142.34        2975.25           1559          54.00       209.68
  142.37        2975.50           1563          45.00       170.45
  142.40        2975.75           1566          47.00       179.16
  142.43        2976.00           1569          53.00       205.32
  142.46        2976.25           1573          45.00       170.45
  142.49        2976.50           1576          49.00       187.88
  142.53        2976.75           1579          42.00       157.37
  142.56        2977.00           1583          49.00       187.88
  142.59        2977.25           1586          46.00       174.80
  142.62        2977.50           1590          41.00       153.01
  142.65        2977.75           1593          43.00       161.73
  142.68        2978.00           1596          42.00       157.37
  142.71        2978.25           1600          41.00       153.01
  142.74        2978.50           1603          45.00       170.45
  142.77        2978.75           1606          58.00       227.12
  142.80        2979.00           1610          42.00       157.37
  142.84        2979.25           1613          46.00       174.80
  142.87        2979.50           1616          44.00       166.09
  142.90        2979.75           1620          39.00       144.29
  142.93        2980.00           1623          47.00       179.16
  142.96        2980.25           1626          39.00       144.29
  142.99        2980.50           1630          45.00       170.45
  143.02        2980.75           1633          43.00       161.73
  143.05        2981.00           1637          51.00       196.60
  143.08        2981.25           1640          51.00       196.60
  143.11        2981.50           1643          44.00       166.09
  143.14        2981.75           1647          38.00       139.93
  143.17        2982.00           1650          44.00       166.09
  143.20        2982.25           1653          42.00       157.37
  143.24        2982.50           1657          41.00       153.01
  143.27        2982.75           1660          45.00       170.45
  143.30        2983.00           1663          44.00       166.09
  143.33        2983.25           1667          47.00       179.16
  143.36        2983.50           1670          42.00       157.37
  143.39        2983.75           1673          42.00       157.37
  143.42        2984.00           1677          47.00       179.16
HS scan finished at 02:23:38
end
************************************************************
  HS Scan of (1) Internal mercury lamp
************************************************************
Integration time is 0.2294 seconds per sample
dh120717Manchester 53.47 2.23 2.965129pr1000
************************************************************
Dead Time -------------------------  3E-08 
Number of Cycles Used -------------  4 
Starting Wavelength (Angstroms) ---  2950 
Final Wavelength (Angstoms) -------  2984 
Wavelength Increment (Angstroms) --  .25 
Filter Wheel #1 Position ---------- (1) Ground quartz diffuser (ND=2.32)
Filter Wheel #2 Position ---------- (1) Neutral Density 0.494



************************************************************
HS scan start time = 21:42:04
Dark Count =  8.8 


Time (GMT)  Wavelength (Ang)  Step Number  Raw Counts  Counts/Second

 1302.44        2950.00           1222         134.00       545.78
 1302.51        2950.25           1226         118.00       476.03
 1302.54        2950.50           1229         126.00       510.91
 1302.57        2950.75           1232         121.00       489.11
 1302.60        2951.00           1236         121.00       489.11
 1302.63        2951.25           1239         122.00       493.47
 1302.66        2951.50           1242         131.00       532.70
 1302.70        2951.75           1246         125.00       506.55
 1302.73        2952.00           1249         116.00       467.31
 1302.76        2952.25           1252         129.00       523.98
 1302.79        2952.50           1256         124.00       502.19
 1302.82        2952.75           1259         122.00       493.47
 1302.85        2953.00           1262         117.00       471.67
 1302.88        2953.25           1266         135.00       550.14
 1302.91        2953.50           1269         123.00       497.83
 1302.94        2953.75           1272         122.00       493.47
 1302.97        2954.00           1276         108.00       432.44
 1303.00        2954.25           1279         115.00       462.95
 1303.03        2954.50           1282         118.00       476.03
 1303.07        2954.75           1286         120.00       484.75
 1303.10        2955.00           1289         121.00       489.11
 1303.13        2955.25           1292         120.00       484.75
 1303.16        2955.50           1296         114.00       458.59
 1303.19        2955.75           1299         116.00       467.31
 1303.22        2956.00           1302         125.00       506.55
 1303.25        2956.25           1306         129.00       523.98
 1303.28        2956.50           1309         123.00       497.83
 1303.31        2956.75           1312         122.00       493.47
 1303.34        2957.00           1316         122.00       493.47
 1303.38        2957.25           1319         118.00       476.03
 1303.41        2957.50           1322         124.00       502.19
 1303.44        2957.75           1326         132.00       537.06
 1303.47        2958.00           1329         123.00       497.83
 1303.50        2958.25           1332         129.00       523.98
 1303.53        2958.50           1336         121.00       489.11
 1303.56        2958.75           1339         123.00       497.83
 1303.59        2959.00           1342         115.00       462.95
 1303.62        2959.25           1346         126.00       510.91
 1303.65        2959.50           1349         124.00       502.19
 1303.68        2959.75           1352         138.00       563.22
 1303.71        2960.00           1356         165.00       680.92
 1303.75        2960.25           1359         201.00       837.86
 1303.78        2960.50           1362         260.00      1095.07
 1303.81        2960.75           1366         318.00      1347.92
 1303.84        2961.00           1369         365.00      1552.82
 1303.87        2961.25           1372         391.00      1666.17
 1303.90        2961.50           1376         478.00      2045.46
 1303.93        2961.75           1379         627.00      2695.07
 1303.96        2962.00           1382        1273.00      5511.81
 1303.99        2962.25           1386        3098.00     13471.88
 1304.03        2962.50           1389        4846.00     21099.67
 1304.06        2962.75           1392        6644.00     28949.28
 1304.09        2963.00           1396        9155.00     39917.88
 1304.12        2963.25           1399       10853.00     47339.20
 1304.15        2963.50           1402       12468.00     54400.84
 1304.18        2963.75           1406       14805.00     64624.74
 1304.21        2964.00           1409       16778.00     73261.10
 1304.24        2964.25           1412       18578.00     81144.11
 1304.27        2964.50           1416       20997.00     91743.88
 1304.30        2964.75           1419       22606.00     98798.06
 1304.34        2965.00           1422       24497.00    107092.40
 1304.37        2965.25           1426       27075.00    118406.80
 1304.40        2965.50           1429       28725.00    125652.40
 1304.43        2965.75           1432       30495.00    133428.40
 1304.46        2966.00           1436       32844.00    143753.80
 1304.49        2966.25           1439       34819.00    152440.10
 1304.52        2966.50           1442       36330.00    159088.80
 1304.55        2966.75           1446       37963.00    166277.30
 1304.58        2967.00           1449       38114.00    166942.10
 1304.61        2967.25           1452       38404.00    168219.10
 1304.65        2967.50           1456       38368.00    168060.60
 1304.68        2967.75           1459       38448.00    168412.80
 1304.71        2968.00           1462       38209.00    167360.40
 1304.74        2968.25           1466       36800.00    161157.40
 1304.77        2968.50           1469       35273.00    154437.50
 1304.80        2968.75           1472       33721.00    147610.40
 1304.83        2969.00           1476       31462.00    137678.20
 1304.86        2969.25           1479       29690.00    129891.40
 1304.89        2969.50           1482       27939.00    122200.40
 1304.93        2969.75           1486       25388.00    111002.00
 1304.96        2970.00           1489       23687.00    103539.10
 1304.99        2970.25           1492       21938.00     95869.05
 1305.02        2970.50           1496       19624.00     85726.74
 1305.05        2970.75           1499       17825.00     77845.93
 1305.08        2971.00           1502       16061.00     70122.07
 1305.11        2971.25           1506       13834.00     60376.05
 1305.14        2971.50           1509       11837.00     51641.41
 1305.17        2971.75           1513        9482.00     41346.81
 1305.20        2972.00           1516        7682.00     33482.61
 1305.24        2972.25           1519        5969.00     26001.97
 1305.27        2972.50           1523        3740.00     16272.98
 1305.30        2972.75           1526        2191.00      9515.36
 1305.33        2973.00           1529         995.00      4299.60
 1305.36        2973.25           1533         526.00      2254.73
 1305.39        2973.50           1536         425.00      1814.40
 1305.42        2973.75           1539         358.00      1522.30
 1305.45        2974.00           1543         292.00      1234.57
 1305.48        2974.25           1546         220.00       920.69
 1305.51        2974.50           1549         191.00       794.26
 1305.54        2974.75           1553         142.00       580.66
 1305.58        2975.00           1556         128.00       519.62
 1305.61        2975.25           1559         109.00       436.80
 1305.64        2975.50           1563         124.00       502.19
 1305.67        2975.75           1566         112.00       449.88
 1305.70        2976.00           1569         120.00       484.75
 1305.73        2976.25           1573         105.00       419.36
 1305.76        2976.50           1576         114.00       458.59
 1305.79        2976.75           1579         114.00       458.59
 1305.82        2977.00           1583         107.00       428.08
 1305.85        2977.25           1586         114.00       458.59
 1305.88        2977.50           1590         108.00       432.44
 1305.91        2977.75           1593         104.00       415.00
 1305.94        2978.00           1596         105.00       419.36
 1305.97        2978.25           1600         112.00       449.88
 1306.01        2978.50           1603         101.00       401.92
 1306.04        2978.75           1606         111.00       445.52
 1306.07        2979.00           1610         103.00       410.64
 1306.10        2979.25           1613         106.00       423.72
 1306.13        2979.50           1616         108.00       432.44
 1306.16        2979.75           1620         113.00       454.23
 1306.19        2980.00           1623          99.00       393.20
 1306.22        2980.25           1626         107.00       428.08
 1306.25        2980.50           1630         106.00       423.72
 1306.28        2980.75           1633         110.00       441.16
 1306.31        2981.00           1637         105.00       419.36
 1306.35        2981.25           1640          98.00       388.85
 1306.38        2981.50           1643         105.00       419.36
 1306.41        2981.75           1647         104.00       415.00
 1306.44        2982.00           1650         105.00       419.36
 1306.47        2982.25           1653         107.00       428.08
 1306.50        2982.50           1657         105.00       419.36
 1306.53        2982.75           1660         102.00       406.28
 1306.56        2983.00           1663         102.00       406.28
 1306.59        2983.25           1667         107.00       428.08
 1306.62        2983.50           1670         102.00       406.28
 1306.65        2983.75           1673         111.00       445.52
 1306.68        2984.00           1677         105.00       419.36
HS scan finished at 21:46:54
end
