************************************************************
  HS Scan of (1) Internal mercury lamp
************************************************************
Integration time is 0.2294 seconds per sample
dh150718Manchester 53.47 2.23 2.965129pr1000
************************************************************
Dead Time -------------------------  3E-08 
Number of Cycles Used -------------  4 
Starting Wavelength (Angstroms) ---  2950 
Final Wavelength (Angstoms) -------  2984 
Wavelength Increment (Angstroms) --  .25 
Filter Wheel #1 Position ---------- (1) Ground quartz diffuser (ND=2.32)
Filter Wheel #2 Position ---------- (1) Neutral Density 0.494



************************************************************
HS scan start time = 01:32:01
Dark Count =  5.7 


Time (GMT)  Wavelength (Ang)  Step Number  Raw Counts  Counts/Second

   92.39        2950.00           1222          52.00       201.83
   92.46        2950.25           1226          53.00       206.19
   92.49        2950.50           1229          54.00       210.55
   92.52        2950.75           1232          47.00       180.04
   92.55        2951.00           1236          57.00       223.63
   92.58        2951.25           1239          60.00       236.71
   92.61        2951.50           1242          58.00       227.99
   92.65        2951.75           1246          52.00       201.83
   92.68        2952.00           1249          52.00       201.83
   92.71        2952.25           1252          53.00       206.19
   92.74        2952.50           1256          50.00       193.11
   92.77        2952.75           1259          55.00       214.91
   92.80        2953.00           1262          54.00       210.55
   92.83        2953.25           1266          54.00       210.55
   92.86        2953.50           1269          56.00       219.27
   92.89        2953.75           1272          62.00       245.42
   92.92        2954.00           1276          72.00       289.02
   92.96        2954.25           1279          62.00       245.42
   92.99        2954.50           1282          59.00       232.35
   93.02        2954.75           1286          58.00       227.99
   93.05        2955.00           1289          58.00       227.99
   93.08        2955.25           1292          60.00       236.71
   93.11        2955.50           1296          51.00       197.47
   93.14        2955.75           1299          54.00       210.55
   93.17        2956.00           1302          52.00       201.83
   93.20        2956.25           1306          54.00       210.55
   93.23        2956.50           1309          54.00       210.55
   93.27        2956.75           1312          59.00       232.35
   93.30        2957.00           1316          53.00       206.19
   93.33        2957.25           1319          56.00       219.27
   93.36        2957.50           1322          57.00       223.63
   93.39        2957.75           1326          49.00       188.75
   93.42        2958.00           1329          58.00       227.99
   93.45        2958.25           1332          58.00       227.99
   93.48        2958.50           1336          62.00       245.42
   93.51        2958.75           1339          49.00       188.75
   93.54        2959.00           1342          55.00       214.91
   93.58        2959.25           1346          61.00       241.07
   93.61        2959.50           1349          65.00       258.50
   93.64        2959.75           1352          81.00       328.25
   93.67        2960.00           1356         116.00       480.83
   93.70        2960.25           1359         137.00       572.37
   93.73        2960.50           1362         185.00       781.62
   93.76        2960.75           1366         248.00      1056.27
   93.79        2961.00           1369         255.00      1086.78
   93.82        2961.25           1372         304.00      1300.40
   93.85        2961.50           1376         373.00      1601.21
   93.89        2961.75           1379         501.00      2159.25
   93.92        2962.00           1382        1039.00      4504.97
   93.95        2962.25           1386        2603.00     11325.99
   93.98        2962.50           1389        4037.00     17582.51
   94.01        2962.75           1392        5286.00     23033.79
   94.04        2963.00           1396        7303.00     31840.78
   94.07        2963.25           1399        8730.00     38074.42
   94.10        2963.50           1402       10202.00     44507.08
   94.13        2963.75           1406       12222.00     53338.55
   94.17        2964.00           1409       13806.00     60267.10
   94.20        2964.25           1412       15385.00     67176.66
   94.23        2964.50           1416       17614.00     76935.44
   94.26        2964.75           1419       19147.00     83650.38
   94.29        2965.00           1422       20368.00     89000.62
   94.32        2965.25           1426       22519.00     98430.16
   94.35        2965.50           1429       24085.00    105298.60
   94.38        2965.75           1432       25684.00    112314.60
   94.42        2966.00           1436       27560.00    120549.80
   94.45        2966.25           1439       28780.00    125907.60
   94.48        2966.50           1442       30157.00    131956.80
   94.51        2966.75           1446       31676.00    138632.50
   94.54        2967.00           1449       32233.00    141081.00
   94.57        2967.25           1452       32138.00    140663.40
   94.60        2967.50           1456       32146.00    140698.60
   94.63        2967.75           1459       32191.00    140896.40
   94.67        2968.00           1462       32142.00    140681.00
   94.70        2968.25           1466       31151.00    136324.90
   94.73        2968.50           1469       30024.00    131372.50
   94.76        2968.75           1472       28839.00    126166.70
   94.79        2969.00           1476       26774.00    117099.00
   94.82        2969.25           1479       25358.00    110884.00
   94.85        2969.50           1482       23943.00    104675.60
   94.88        2969.75           1486       21797.00     95264.46
   94.91        2970.00           1489       20329.00     88829.71
   94.95        2970.25           1492       18977.00     82905.60
   94.98        2970.50           1496       17040.00     74421.87
   95.01        2970.75           1499       15516.00     67750.03
   95.04        2971.00           1502       14046.00     61317.14
   95.07        2971.25           1506       12073.00     52686.97
   95.10        2971.50           1509       10506.00     45835.87
   95.13        2971.75           1513        8636.00     37663.72
   95.16        2972.00           1516        7175.00     31281.74
   95.19        2972.25           1519        5623.00     24504.93
   95.23        2972.50           1523        3766.00     16399.96
   95.26        2972.75           1526        2295.00      9982.50
   95.29        2973.00           1529        1023.00      4435.20
   95.32        2973.25           1533         390.00      1675.32
   95.35        2973.50           1536         302.00      1291.68
   95.38        2973.75           1539         254.00      1082.42
   95.41        2974.00           1543         211.00       894.97
   95.44        2974.25           1546         168.00       707.51
   95.47        2974.50           1549         117.00       485.19
   95.50        2974.75           1553          88.00       358.77
   95.54        2975.00           1556          63.00       249.78
   95.57        2975.25           1559          53.00       206.19
   95.60        2975.50           1563          55.00       214.91
   95.63        2975.75           1566          52.00       201.83
   95.66        2976.00           1569          61.00       241.07
   95.69        2976.25           1573          54.00       210.55
   95.72        2976.50           1576          50.00       193.11
   95.75        2976.75           1579          55.00       214.91
   95.78        2977.00           1583          50.00       193.11
   95.81        2977.25           1586          54.00       210.55
   95.84        2977.50           1590          60.00       236.71
   95.87        2977.75           1593          48.00       184.40
   95.91        2978.00           1596          50.00       193.11
   95.94        2978.25           1600          52.00       201.83
   95.97        2978.50           1603          53.00       206.19
   96.00        2978.75           1606          48.00       184.40
   96.03        2979.00           1610          50.00       193.11
   96.06        2979.25           1613          51.00       197.47
   96.09        2979.50           1616          49.00       188.75
   96.12        2979.75           1620          54.00       210.55
   96.16        2980.00           1623          50.00       193.11
   96.19        2980.25           1626          53.00       206.19
   96.22        2980.50           1630          50.00       193.11
   96.25        2980.75           1633          52.00       201.83
   96.28        2981.00           1637          53.00       206.19
   96.31        2981.25           1640          55.00       214.91
   96.34        2981.50           1643          53.00       206.19
   96.37        2981.75           1647          69.00       275.94
   96.40        2982.00           1650          54.00       210.55
   96.44        2982.25           1653          45.00       171.32
   96.47        2982.50           1657          48.00       184.40
   96.50        2982.75           1660          44.00       166.96
   96.53        2983.00           1663          48.00       184.40
   96.56        2983.25           1667          57.00       223.63
   96.59        2983.50           1670          54.00       210.55
   96.62        2983.75           1673          59.00       232.35
   96.65        2984.00           1677          49.00       188.75
HS scan finished at 01:36:52
end
************************************************************
  HS Scan of (1) Internal mercury lamp
************************************************************
Integration time is 0.2294 seconds per sample
dh150718Manchester 53.47 2.23 3.126073pr1000
************************************************************
Dead Time -------------------------  3E-08 
Number of Cycles Used -------------  4 
Starting Wavelength (Angstroms) ---  2950 
Final Wavelength (Angstoms) -------  2984 
Wavelength Increment (Angstroms) --  .25 
Filter Wheel #1 Position ---------- (1) Ground quartz diffuser (ND=2.32)
Filter Wheel #2 Position ---------- (1) Neutral Density 0.494



************************************************************
HS scan start time = 21:42:08
Dark Count =  8.3 


Time (GMT)  Wavelength (Ang)  Step Number  Raw Counts  Counts/Second

 1302.51        2950.00           1222          58.00       216.65
 1302.57        2950.25           1226          56.00       207.94
 1302.60        2950.50           1229          51.00       186.14
 1302.63        2950.75           1232          55.00       203.58
 1302.67        2951.00           1236          50.00       181.78
 1302.70        2951.25           1239          55.00       203.58
 1302.73        2951.50           1242          56.00       207.94
 1302.76        2951.75           1246          54.00       199.22
 1302.79        2952.00           1249          54.00       199.22
 1302.82        2952.25           1252          56.00       207.94
 1302.85        2952.50           1256          52.00       190.50
 1302.88        2952.75           1259          49.00       177.42
 1302.91        2953.00           1262          48.00       173.06
 1302.94        2953.25           1266          54.00       199.22
 1302.97        2953.50           1269          58.00       216.65
 1303.01        2953.75           1272          52.00       190.50
 1303.04        2954.00           1276          53.00       194.86
 1303.07        2954.25           1279          58.00       216.65
 1303.10        2954.50           1282          57.00       212.29
 1303.13        2954.75           1286          52.00       190.50
 1303.16        2955.00           1289          54.00       199.22
 1303.19        2955.25           1292          53.00       194.86
 1303.22        2955.50           1296          55.00       203.58
 1303.25        2955.75           1299          56.00       207.94
 1303.28        2956.00           1302          58.00       216.65
 1303.31        2956.25           1306          57.00       212.29
 1303.35        2956.50           1309          60.00       225.37
 1303.38        2956.75           1312          56.00       207.94
 1303.41        2957.00           1316          57.00       212.29
 1303.44        2957.25           1319          61.00       229.73
 1303.47        2957.50           1322          50.00       181.78
 1303.50        2957.75           1326          62.00       234.09
 1303.53        2958.00           1329          57.00       212.29
 1303.56        2958.25           1332          57.00       212.29
 1303.59        2958.50           1336          61.00       229.73
 1303.62        2958.75           1339          57.00       212.29
 1303.66        2959.00           1342          55.00       203.58
 1303.69        2959.25           1346          47.00       168.70
 1303.72        2959.50           1349          69.00       264.61
 1303.75        2959.75           1352          67.00       255.89
 1303.78        2960.00           1356          95.00       377.95
 1303.81        2960.25           1359         128.00       521.80
 1303.84        2960.50           1362         147.00       604.63
 1303.87        2960.75           1366         216.00       905.43
 1303.90        2961.00           1369         253.00      1066.73
 1303.93        2961.25           1372         295.00      1249.83
 1303.96        2961.50           1376         374.00      1594.24
 1303.99        2961.75           1379         549.00      2357.18
 1304.03        2962.00           1382        1331.00      5766.91
 1304.06        2962.25           1386        3134.00     13631.12
 1304.09        2962.50           1389        4719.00     20547.54
 1304.12        2962.75           1392        6293.00     27418.80
 1304.15        2963.00           1396        8328.00     36306.74
 1304.18        2963.25           1399        9795.00     42716.87
 1304.21        2963.50           1402       11379.00     49641.01
 1304.24        2963.75           1406       13460.00     58742.06
 1304.27        2964.00           1409       15059.00     65738.50
 1304.30        2964.25           1412       16602.00     72492.71
 1304.34        2964.50           1416       18671.00     81553.69
 1304.37        2964.75           1419       20315.00     88756.94
 1304.40        2965.00           1422       22018.00     96222.00
 1304.43        2965.25           1426       24065.00    105199.40
 1304.46        2965.50           1429       25772.00    112689.40
 1304.49        2965.75           1432       27490.00    120231.10
 1304.52        2966.00           1436       29281.00    128096.80
 1304.55        2966.25           1439       31039.00    135821.30
 1304.58        2966.50           1442       32372.00    141680.70
 1304.62        2966.75           1446       34007.00    148870.50
 1304.65        2967.00           1449       34195.00    149697.40
 1304.68        2967.25           1452       34214.00    149780.90
 1304.71        2967.50           1456       34298.00    150150.40
 1304.74        2967.75           1459       34203.00    149732.60
 1304.77        2968.00           1462       34227.00    149838.10
 1304.80        2968.25           1466       32966.00    144292.40
 1304.83        2968.50           1469       31490.00    137803.50
 1304.86        2968.75           1472       30060.00    131519.20
 1304.90        2969.00           1476       27668.00    121012.60
 1304.93        2969.25           1479       26432.00    115586.30
 1304.96        2969.50           1482       24908.00    108897.90
 1304.99        2969.75           1486       22932.00    100229.90
 1305.02        2970.00           1489       21417.00     93587.14
 1305.05        2970.25           1492       19870.00     86806.84
 1305.08        2970.50           1496       17624.00     76967.84
 1305.11        2970.75           1499       16062.00     70128.65
 1305.14        2971.00           1502       14560.00     63554.80
 1305.18        2971.25           1506       12324.00     53773.25
 1305.21        2971.50           1509       10807.00     47140.30
 1305.24        2971.75           1513        8656.00     37739.74
 1305.27        2972.00           1516        7042.00     30689.53
 1305.30        2972.25           1519        5413.00     23576.83
 1305.33        2972.50           1523        3407.00     14822.20
 1305.36        2972.75           1526        1916.00      8318.12
 1305.39        2973.00           1529         836.00      3608.50
 1305.42        2973.25           1533         431.00      1842.74
 1305.46        2973.50           1536         328.00      1393.69
 1305.49        2973.75           1539         293.00      1241.11
 1305.52        2974.00           1543         239.00      1005.70
 1305.55        2974.25           1546         171.00       709.26
 1305.58        2974.50           1549         128.00       521.80
 1305.61        2974.75           1553          87.00       343.07
 1305.64        2975.00           1556          68.00       260.25
 1305.67        2975.25           1559          56.00       207.94
 1305.70        2975.50           1563          51.00       186.14
 1305.73        2975.75           1566          56.00       207.94
 1305.76        2976.00           1569          57.00       212.29
 1305.80        2976.25           1573          50.00       181.78
 1305.83        2976.50           1576          51.00       186.14
 1305.86        2976.75           1579          53.00       194.86
 1305.89        2977.00           1583          59.00       221.01
 1305.92        2977.25           1586          51.00       186.14
 1305.95        2977.50           1590          52.00       190.50
 1305.98        2977.75           1593          52.00       190.50
 1306.01        2978.00           1596          55.00       203.58
 1306.05        2978.25           1600          49.00       177.42
 1306.08        2978.50           1603          52.00       190.50
 1306.11        2978.75           1606          52.00       190.50
 1306.14        2979.00           1610          49.00       177.42
 1306.17        2979.25           1613          56.00       207.94
 1306.20        2979.50           1616          53.00       194.86
 1306.23        2979.75           1620          59.00       221.01
 1306.26        2980.00           1623          42.00       146.91
 1306.29        2980.25           1626          50.00       181.78
 1306.32        2980.50           1630          58.00       216.65
 1306.35        2980.75           1633          51.00       186.14
 1306.38        2981.00           1637          56.00       207.94
 1306.42        2981.25           1640          48.00       173.06
 1306.45        2981.50           1643          53.00       194.86
 1306.48        2981.75           1647          49.00       177.42
 1306.51        2982.00           1650          48.00       173.06
 1306.54        2982.25           1653          51.00       186.14
 1306.57        2982.50           1657          55.00       203.58
 1306.60        2982.75           1660          45.00       159.98
 1306.63        2983.00           1663          53.00       194.86
 1306.66        2983.25           1667          54.00       199.22
 1306.69        2983.50           1670          56.00       207.94
 1306.72        2983.75           1673          50.00       181.78
 1306.76        2984.00           1677          50.00       181.78
HS scan finished at 21:46:58
end
