************************************************************
  HS Scan of (1) Internal mercury lamp
************************************************************
Integration time is 0.2294 seconds per sample
dh170718Manchester 53.47 2.23 2.804185pr1000
************************************************************
Dead Time -------------------------  3E-08 
Number of Cycles Used -------------  4 
Starting Wavelength (Angstroms) ---  2950 
Final Wavelength (Angstoms) -------  2984 
Wavelength Increment (Angstroms) --  .25 
Filter Wheel #1 Position ---------- (1) Ground quartz diffuser (ND=2.32)
Filter Wheel #2 Position ---------- (1) Neutral Density 0.494



************************************************************
HS scan start time = 01:42:30
Dark Count =  4.5 


Time (GMT)  Wavelength (Ang)  Step Number  Raw Counts  Counts/Second

  102.86        2950.00           1222          59.00       237.58
  102.93        2950.25           1226          56.00       224.50
  102.96        2950.50           1229          56.00       224.50
  102.99        2950.75           1232          60.00       241.94
  103.02        2951.00           1236          59.00       237.58
  103.05        2951.25           1239          55.00       220.14
  103.08        2951.50           1242          67.00       272.45
  103.11        2951.75           1246          47.00       185.27
  103.14        2952.00           1249          60.00       241.94
  103.17        2952.25           1252          63.00       255.02
  103.21        2952.50           1256          52.00       207.06
  103.24        2952.75           1259          51.00       202.70
  103.27        2953.00           1262          55.00       220.14
  103.30        2953.25           1266          61.00       246.30
  103.33        2953.50           1269          60.00       241.94
  103.36        2953.75           1272          49.00       193.99
  103.39        2954.00           1276          50.00       198.34
  103.42        2954.25           1279          60.00       241.94
  103.45        2954.50           1282          65.00       263.73
  103.48        2954.75           1286          55.00       220.14
  103.51        2955.00           1289          46.00       180.91
  103.55        2955.25           1292          53.00       211.42
  103.58        2955.50           1296          51.00       202.70
  103.61        2955.75           1299          53.00       211.42
  103.64        2956.00           1302          55.00       220.14
  103.67        2956.25           1306          52.00       207.06
  103.70        2956.50           1309          54.00       215.78
  103.73        2956.75           1312          59.00       237.58
  103.76        2957.00           1316          56.00       224.50
  103.79        2957.25           1319          52.00       207.06
  103.83        2957.50           1322          58.00       233.22
  103.86        2957.75           1326          51.00       202.70
  103.89        2958.00           1329          48.00       189.63
  103.92        2958.25           1332          49.00       193.99
  103.95        2958.50           1336          64.00       259.37
  103.98        2958.75           1339          57.00       228.86
  104.01        2959.00           1342          48.00       189.63
  104.04        2959.25           1346          55.00       220.14
  104.07        2959.50           1349          63.00       255.02
  104.10        2959.75           1352          77.00       316.04
  104.13        2960.00           1356         108.00       451.18
  104.16        2960.25           1359         136.00       573.24
  104.20        2960.50           1362         170.00       721.46
  104.23        2960.75           1366         218.00       930.71
  104.26        2961.00           1369         240.00      1026.62
  104.29        2961.25           1372         296.00      1270.75
  104.32        2961.50           1376         432.00      1863.66
  104.35        2961.75           1379         826.00      3581.47
  104.38        2962.00           1382        1773.00      7711.03
  104.41        2962.25           1386        3467.00     15100.56
  104.44        2962.50           1389        4712.00     20533.57
  104.47        2962.75           1392        6113.00     26649.46
  104.50        2963.00           1396        7824.00     34121.66
  104.53        2963.25           1399        9160.00     39958.51
  104.57        2963.50           1402       10527.00     45932.91
  104.60        2963.75           1406       12520.00     54647.07
  104.63        2964.00           1409       13915.00     60749.24
  104.66        2964.25           1412       15269.00     66674.21
  104.69        2964.50           1416       17287.00     75508.69
  104.72        2964.75           1419       18818.00     82214.30
  104.75        2965.00           1422       20242.00     88453.69
  104.78        2965.25           1426       21972.00     96036.97
  104.81        2965.50           1429       23332.00    102000.80
  104.85        2965.75           1432       24790.00    108396.80
  104.88        2966.00           1436       26740.00    116955.00
  104.91        2966.25           1439       28022.00    122583.80
  104.94        2966.50           1442       29069.00    127182.30
  104.97        2966.75           1446       29878.00    130736.30
  105.00        2967.00           1449       30030.00    131404.10
  105.03        2967.25           1452       30080.00    131623.80
  105.06        2967.50           1456       29964.00    131114.10
  105.09        2967.75           1459       30009.00    131311.80
  105.12        2968.00           1462       29645.00    129712.60
  105.16        2968.25           1466       28430.00    124375.60
  105.19        2968.50           1469       27018.00    118175.40
  105.22        2968.75           1472       25774.00    112714.90
  105.25        2969.00           1476       24021.00    105023.10
  105.28        2969.25           1479       22790.00     99623.81
  105.31        2969.50           1482       21332.00     93231.19
  105.34        2969.75           1486       19440.00     84939.36
  105.37        2970.00           1489       18081.00     78985.99
  105.40        2970.25           1492       16636.00     72658.21
  105.44        2970.50           1496       14841.00     64801.10
  105.47        2970.75           1499       13466.00     58784.92
  105.50        2971.00           1502       11995.00     52351.12
  105.53        2971.25           1506       10093.00     44035.90
  105.56        2971.50           1509        8742.00     38132.09
  105.59        2971.75           1513        6915.00     30151.50
  105.62        2972.00           1516        5544.00     24165.29
  105.65        2972.25           1519        4274.00     18622.00
  105.68        2972.50           1523        2535.00     11034.60
  105.72        2972.75           1526        1355.00      5888.14
  105.75        2973.00           1529         639.00      2766.14
  105.78        2973.25           1533         367.00      1580.28
  105.81        2973.50           1536         278.00      1192.28
  105.84        2973.75           1539         244.00      1044.06
  105.87        2974.00           1543         208.00       887.12
  105.90        2974.25           1546         145.00       612.48
  105.93        2974.50           1549         118.00       494.78
  105.96        2974.75           1553          75.00       307.33
  105.99        2975.00           1556          68.00       276.81
  106.02        2975.25           1559          60.00       241.94
  106.06        2975.50           1563          51.00       202.70
  106.09        2975.75           1566          52.00       207.06
  106.12        2976.00           1569          52.00       207.06
  106.15        2976.25           1573          52.00       207.06
  106.18        2976.50           1576          58.00       233.22
  106.21        2976.75           1579          55.00       220.14
  106.24        2977.00           1583          50.00       198.34
  106.27        2977.25           1586          59.00       237.58
  106.30        2977.50           1590          47.00       185.27
  106.34        2977.75           1593          55.00       220.14
  106.37        2978.00           1596          46.00       180.91
  106.40        2978.25           1600          57.00       228.86
  106.43        2978.50           1603          49.00       193.99
  106.46        2978.75           1606          49.00       193.99
  106.49        2979.00           1610          63.00       255.02
  106.52        2979.25           1613          44.00       172.19
  106.55        2979.50           1616          54.00       215.78
  106.58        2979.75           1620          57.00       228.86
  106.61        2980.00           1623          55.00       220.14
  106.64        2980.25           1626          54.00       215.78
  106.67        2980.50           1630          45.00       176.55
  106.71        2980.75           1633          47.00       185.27
  106.74        2981.00           1637          49.00       193.99
  106.77        2981.25           1640          42.00       163.47
  106.80        2981.50           1643          54.00       215.78
  106.83        2981.75           1647          50.00       198.34
  106.86        2982.00           1650          51.00       202.70
  106.89        2982.25           1653          51.00       202.70
  106.92        2982.50           1657          50.00       198.34
  106.95        2982.75           1660          50.00       198.34
  106.98        2983.00           1663          54.00       215.78
  107.02        2983.25           1667          54.00       215.78
  107.05        2983.50           1670          44.00       172.19
  107.08        2983.75           1673          51.00       202.70
  107.11        2984.00           1677          51.00       202.70
HS scan finished at 01:47:20
end
************************************************************
  HS Scan of (1) Internal mercury lamp
************************************************************
Integration time is 0.2294 seconds per sample
dh170718Manchester 53.47 2.23 2.857833pr1000
************************************************************
Dead Time -------------------------  3E-08 
Number of Cycles Used -------------  4 
Starting Wavelength (Angstroms) ---  2950 
Final Wavelength (Angstoms) -------  2984 
Wavelength Increment (Angstroms) --  .25 
Filter Wheel #1 Position ---------- (1) Ground quartz diffuser (ND=2.32)
Filter Wheel #2 Position ---------- (1) Neutral Density 0.494



************************************************************
HS scan start time = 21:42:07
Dark Count =  5.7 


Time (GMT)  Wavelength (Ang)  Step Number  Raw Counts  Counts/Second

 1302.49        2950.00           1222          55.00       214.91
 1302.56        2950.25           1226          58.00       227.99
 1302.59        2950.50           1229          51.00       197.47
 1302.62        2950.75           1232          60.00       236.71
 1302.65        2951.00           1236          58.00       227.99
 1302.68        2951.25           1239          59.00       232.35
 1302.71        2951.50           1242          61.00       241.07
 1302.74        2951.75           1246          53.00       206.19
 1302.77        2952.00           1249          66.00       262.86
 1302.80        2952.25           1252          51.00       197.47
 1302.84        2952.50           1256          61.00       241.07
 1302.87        2952.75           1259          63.00       249.78
 1302.90        2953.00           1262          55.00       214.91
 1302.93        2953.25           1266          57.00       223.63
 1302.96        2953.50           1269          58.00       227.99
 1302.99        2953.75           1272          56.00       219.27
 1303.02        2954.00           1276          57.00       223.63
 1303.05        2954.25           1279          53.00       206.19
 1303.08        2954.50           1282          50.00       193.11
 1303.11        2954.75           1286          63.00       249.78
 1303.14        2955.00           1289          54.00       210.55
 1303.18        2955.25           1292          53.00       206.19
 1303.21        2955.50           1296          55.00       214.91
 1303.24        2955.75           1299          55.00       214.91
 1303.27        2956.00           1302          53.00       206.19
 1303.30        2956.25           1306          52.00       201.83
 1303.33        2956.50           1309          55.00       214.91
 1303.36        2956.75           1312          54.00       210.55
 1303.39        2957.00           1316          55.00       214.91
 1303.42        2957.25           1319          51.00       197.47
 1303.45        2957.50           1322          57.00       223.63
 1303.48        2957.75           1326          54.00       210.55
 1303.52        2958.00           1329          53.00       206.19
 1303.55        2958.25           1332          56.00       219.27
 1303.58        2958.50           1336          55.00       214.91
 1303.61        2958.75           1339          56.00       219.27
 1303.64        2959.00           1342          54.00       210.55
 1303.67        2959.25           1346          63.00       249.78
 1303.70        2959.50           1349          67.00       267.22
 1303.73        2959.75           1352          81.00       328.25
 1303.76        2960.00           1356         107.00       441.59
 1303.79        2960.25           1359         130.00       541.86
 1303.83        2960.50           1362         156.00       655.20
 1303.86        2960.75           1366         207.00       877.53
 1303.89        2961.00           1369         241.00      1025.75
 1303.92        2961.25           1372         269.00      1147.82
 1303.95        2961.50           1376         360.00      1544.54
 1303.98        2961.75           1379         495.00      2133.09
 1304.01        2962.00           1382        1033.00      4478.81
 1304.04        2962.25           1386        2547.00     11081.71
 1304.07        2962.50           1389        3754.00     16347.60
 1304.10        2962.75           1392        5078.00     22125.84
 1304.13        2963.00           1396        6984.00     30447.59
 1304.17        2963.25           1399        8367.00     36488.49
 1304.20        2963.50           1402        9817.00     42824.38
 1304.23        2963.75           1406       11677.00     50955.34
 1304.26        2964.00           1409       13341.00     58232.86
 1304.29        2964.25           1412       14781.00     64533.28
 1304.32        2964.50           1416       16749.00     73147.71
 1304.35        2964.75           1419       18190.00     79458.15
 1304.38        2965.00           1422       19655.00     85876.15
 1304.41        2965.25           1426       21704.00     94856.74
 1304.45        2965.50           1429       22994.00    100513.20
 1304.48        2965.75           1432       24522.00    107215.70
 1304.51        2966.00           1436       26295.00    114996.30
 1304.54        2966.25           1439       27699.00    121160.20
 1304.57        2966.50           1442       28987.00    126816.80
 1304.60        2966.75           1446       30147.00    131912.90
 1304.63        2967.00           1449       30661.00    134171.50
 1304.66        2967.25           1452       30595.00    133881.50
 1304.69        2967.50           1456       30712.00    134395.60
 1304.73        2967.75           1459       30658.00    134158.30
 1304.76        2968.00           1462       30616.00    133973.70
 1304.79        2968.25           1466       29690.00    129905.00
 1304.82        2968.50           1469       28356.00    124045.30
 1304.85        2968.75           1472       27235.00    119122.90
 1304.88        2969.00           1476       25426.00    111182.40
 1304.91        2969.25           1479       24149.00    105579.30
 1304.94        2969.50           1482       22652.00     99013.39
 1304.97        2969.75           1486       20823.00     90994.80
 1305.01        2970.00           1489       19229.00     84009.63
 1305.04        2970.25           1492       17896.00     78170.47
 1305.07        2970.50           1496       16256.00     70989.30
 1305.10        2970.75           1499       14770.00     64485.14
 1305.13        2971.00           1502       13328.00     58175.99
 1305.16        2971.25           1506       11490.00     50137.69
 1305.19        2971.50           1509        9987.00     43567.37
 1305.22        2971.75           1513        8206.00     35785.13
 1305.25        2972.00           1516        6862.00     29914.81
 1305.28        2972.25           1519        5528.00     24090.20
 1305.31        2972.50           1523        3672.00     15989.80
 1305.35        2972.75           1526        2318.00     10082.82
 1305.38        2973.00           1529        1047.00      4539.85
 1305.41        2973.25           1533         431.00      1854.07
 1305.44        2973.50           1536         319.00      1365.79
 1305.47        2973.75           1539         260.00      1108.58
 1305.50        2974.00           1543         219.00       929.84
 1305.53        2974.25           1546         157.00       659.56
 1305.56        2974.50           1549         131.00       546.22
 1305.59        2974.75           1553          88.00       358.77
 1305.62        2975.00           1556          68.00       271.58
 1305.66        2975.25           1559          58.00       227.99
 1305.69        2975.50           1563          47.00       180.04
 1305.72        2975.75           1566          57.00       223.63
 1305.75        2976.00           1569          47.00       180.04
 1305.78        2976.25           1573          59.00       232.35
 1305.81        2976.50           1576          59.00       232.35
 1305.84        2976.75           1579          43.00       162.60
 1305.87        2977.00           1583          47.00       180.04
 1305.90        2977.25           1586          56.00       219.27
 1305.93        2977.50           1590          46.00       175.68
 1305.97        2977.75           1593          50.00       193.11
 1306.00        2978.00           1596          53.00       206.19
 1306.03        2978.25           1600          49.00       188.75
 1306.06        2978.50           1603          53.00       206.19
 1306.09        2978.75           1606          49.00       188.75
 1306.12        2979.00           1610          47.00       180.04
 1306.15        2979.25           1613          57.00       223.63
 1306.18        2979.50           1616          50.00       193.11
 1306.22        2979.75           1620          52.00       201.83
 1306.25        2980.00           1623          45.00       171.32
 1306.28        2980.25           1626          56.00       219.27
 1306.31        2980.50           1630          54.00       210.55
 1306.34        2980.75           1633          50.00       193.11
 1306.37        2981.00           1637          47.00       180.04
 1306.40        2981.25           1640          49.00       188.75
 1306.43        2981.50           1643          46.00       175.68
 1306.46        2981.75           1647          46.00       175.68
 1306.49        2982.00           1650          53.00       206.19
 1306.52        2982.25           1653          49.00       188.75
 1306.55        2982.50           1657          47.00       180.04
 1306.58        2982.75           1660          45.00       171.32
 1306.62        2983.00           1663          59.00       232.35
 1306.65        2983.25           1667          48.00       184.40
 1306.68        2983.50           1670          50.00       193.11
 1306.71        2983.75           1673          46.00       175.68
 1306.74        2984.00           1677          48.00       184.40
HS scan finished at 21:46:58
end
