************************************************************
  HS Scan of (1) Internal mercury lamp
************************************************************
Integration time is 0.2294 seconds per sample
dh180718Manchester 53.47 2.23 2.911481pr1000
************************************************************
Dead Time -------------------------  3E-08 
Number of Cycles Used -------------  4 
Starting Wavelength (Angstroms) ---  2950 
Final Wavelength (Angstoms) -------  2984 
Wavelength Increment (Angstroms) --  .25 
Filter Wheel #1 Position ---------- (1) Ground quartz diffuser (ND=2.32)
Filter Wheel #2 Position ---------- (1) Neutral Density 0.494



************************************************************
HS scan start time = 01:43:53
Dark Count =  8.100001 


Time (GMT)  Wavelength (Ang)  Step Number  Raw Counts  Counts/Second

  104.26        2950.00           1222          57.00       213.17
  104.32        2950.25           1226          53.00       195.73
  104.35        2950.50           1229          54.00       200.09
  104.39        2950.75           1232          54.00       200.09
  104.42        2951.00           1236          51.00       187.01
  104.45        2951.25           1239          51.00       187.01
  104.48        2951.50           1242          58.00       217.53
  104.51        2951.75           1246          58.00       217.53
  104.54        2952.00           1249          57.00       213.17
  104.57        2952.25           1252          56.00       208.81
  104.60        2952.50           1256          57.00       213.17
  104.63        2952.75           1259          55.00       204.45
  104.66        2953.00           1262          51.00       187.01
  104.69        2953.25           1266          51.00       187.01
  104.72        2953.50           1269          59.00       221.88
  104.75        2953.75           1272          51.00       187.01
  104.78        2954.00           1276          58.00       217.53
  104.82        2954.25           1279          51.00       187.01
  104.85        2954.50           1282          61.00       230.60
  104.88        2954.75           1286          58.00       217.53
  104.91        2955.00           1289          58.00       217.53
  104.94        2955.25           1292          56.00       208.81
  104.97        2955.50           1296          53.00       195.73
  105.00        2955.75           1299          55.00       204.45
  105.03        2956.00           1302          59.00       221.88
  105.06        2956.25           1306          49.00       178.29
  105.09        2956.50           1309          58.00       217.53
  105.13        2956.75           1312          53.00       195.73
  105.16        2957.00           1316          56.00       208.81
  105.19        2957.25           1319          49.00       178.29
  105.22        2957.50           1322          51.00       187.01
  105.25        2957.75           1326          52.00       191.37
  105.28        2958.00           1329          58.00       217.53
  105.31        2958.25           1332          57.00       213.17
  105.34        2958.50           1336          55.00       204.45
  105.37        2958.75           1339          55.00       204.45
  105.40        2959.00           1342          50.00       182.65
  105.43        2959.25           1346          65.00       248.04
  105.46        2959.50           1349          56.00       208.81
  105.50        2959.75           1352          70.00       269.84
  105.53        2960.00           1356          86.00       339.59
  105.56        2960.25           1359         120.00       487.80
  105.59        2960.50           1362         151.00       622.94
  105.62        2960.75           1366         204.00       853.99
  105.65        2961.00           1369         230.00       967.33
  105.68        2961.25           1372         285.00      1207.11
  105.71        2961.50           1376         366.00      1560.23
  105.74        2961.75           1379         552.00      2371.14
  105.77        2962.00           1382        1228.00      5318.63
  105.81        2962.25           1386        2968.00     12907.79
  105.84        2962.50           1389        4290.00     18676.11
  105.87        2962.75           1392        5741.00     25009.60
  105.90        2963.00           1396        7687.00     33507.51
  105.93        2963.25           1399        9057.00     39492.72
  105.96        2963.50           1402       10509.00     45838.50
  105.99        2963.75           1406       12410.00     54150.24
  106.02        2964.00           1409       13991.00     61066.00
  106.05        2964.25           1412       15552.00     67897.10
  106.09        2964.50           1416       17378.00     75891.43
  106.12        2964.75           1419       18885.00     82492.05
  106.15        2965.00           1422       20340.00     88867.39
  106.18        2965.25           1426       22343.00     97647.88
  106.21        2965.50           1429       23610.00    103204.40
  106.24        2965.75           1432       25036.00    109460.40
  106.27        2966.00           1436       27059.00    118339.60
  106.30        2966.25           1439       28279.00    123696.60
  106.33        2966.50           1442       29384.00    128550.20
  106.37        2966.75           1446       30922.00    135308.00
  106.40        2967.00           1449       31304.00    136986.90
  106.43        2967.25           1452       31248.00    136740.70
  106.46        2967.50           1456       31286.00    136907.70
  106.49        2967.75           1459       31231.00    136666.00
  106.52        2968.00           1462       31081.00    136006.70
  106.55        2968.25           1466       30134.00    131845.20
  106.58        2968.50           1469       28780.00    125897.00
  106.61        2968.75           1472       27556.00    120521.70
  106.65        2969.00           1476       25541.00    111676.50
  106.68        2969.25           1479       24067.00    105209.10
  106.71        2969.50           1482       22936.00    100248.30
  106.74        2969.75           1486       20975.00     91650.52
  106.77        2970.00           1489       19546.00     85388.03
  106.80        2970.25           1492       18193.00     79460.78
  106.83        2970.50           1496       16246.00     70935.02
  106.86        2970.75           1499       14694.00     64142.05
  106.89        2971.00           1502       13111.00     57216.26
  106.93        2971.25           1506       11244.00     49051.64
  106.96        2971.50           1509        9794.00     42713.38
  106.99        2971.75           1513        8004.00     34892.22
  107.02        2972.00           1516        6694.00     29170.68
  107.05        2972.25           1519        5191.00     22608.62
  107.08        2972.50           1523        3289.00     14308.24
  107.11        2972.75           1526        1902.00      8257.93
  107.14        2973.00           1529         826.00      3565.77
  107.17        2973.25           1533         416.00      1778.21
  107.20        2973.50           1536         325.00      1381.49
  107.24        2973.75           1539         290.00      1228.90
  107.27        2974.00           1543         243.00      1024.01
  107.30        2974.25           1546         181.00       753.72
  107.33        2974.50           1549         141.00       579.35
  107.36        2974.75           1553          89.00       352.66
  107.39        2975.00           1556          78.00       304.71
  107.42        2975.25           1559          63.00       239.32
  107.45        2975.50           1563          53.00       195.73
  107.48        2975.75           1566          58.00       217.53
  107.51        2976.00           1569          58.00       217.53
  107.54        2976.25           1573          53.00       195.73
  107.58        2976.50           1576          60.00       226.24
  107.61        2976.75           1579          52.00       191.37
  107.64        2977.00           1583          51.00       187.01
  107.67        2977.25           1586          47.00       169.57
  107.70        2977.50           1590          56.00       208.81
  107.73        2977.75           1593          54.00       200.09
  107.76        2978.00           1596          56.00       208.81
  107.79        2978.25           1600          53.00       195.73
  107.82        2978.50           1603          48.00       173.93
  107.85        2978.75           1606          49.00       178.29
  107.88        2979.00           1610          58.00       217.53
  107.92        2979.25           1613          59.00       221.88
  107.95        2979.50           1616          51.00       187.01
  107.98        2979.75           1620          50.00       182.65
  108.01        2980.00           1623          48.00       173.93
  108.04        2980.25           1626          50.00       182.65
  108.07        2980.50           1630          51.00       187.01
  108.10        2980.75           1633          49.00       178.29
  108.13        2981.00           1637          55.00       204.45
  108.16        2981.25           1640          46.00       165.21
  108.20        2981.50           1643          59.00       221.88
  108.23        2981.75           1647          49.00       178.29
  108.26        2982.00           1650          57.00       213.17
  108.29        2982.25           1653          51.00       187.01
  108.32        2982.50           1657          43.00       152.14
  108.35        2982.75           1660          52.00       191.37
  108.38        2983.00           1663          48.00       173.93
  108.41        2983.25           1667          56.00       208.81
  108.44        2983.50           1670          46.00       165.21
  108.47        2983.75           1673          48.00       173.93
  108.50        2984.00           1677          47.00       169.57
HS scan finished at 01:48:43
end
************************************************************
  HS Scan of (1) Internal mercury lamp
************************************************************
Integration time is 0.2294 seconds per sample
dh180718Manchester 53.47 2.23 3.126073pr1000
************************************************************
Dead Time -------------------------  3E-08 
Number of Cycles Used -------------  4 
Starting Wavelength (Angstroms) ---  2950 
Final Wavelength (Angstoms) -------  2984 
Wavelength Increment (Angstroms) --  .25 
Filter Wheel #1 Position ---------- (1) Ground quartz diffuser (ND=2.32)
Filter Wheel #2 Position ---------- (1) Neutral Density 0.494



************************************************************
HS scan start time = 21:12:06
Dark Count =  6.6 


Time (GMT)  Wavelength (Ang)  Step Number  Raw Counts  Counts/Second

 1272.46        2950.00           1222          46.00       171.75
 1272.53        2950.25           1226          57.00       219.71
 1272.56        2950.50           1229          56.00       215.35
 1272.59        2950.75           1232          56.00       215.35
 1272.62        2951.00           1236          50.00       189.19
 1272.65        2951.25           1239          54.00       206.63
 1272.68        2951.50           1242          47.00       176.11
 1272.72        2951.75           1246          55.00       210.99
 1272.75        2952.00           1249          54.00       206.63
 1272.78        2952.25           1252          52.00       197.91
 1272.81        2952.50           1256          52.00       197.91
 1272.84        2952.75           1259          58.00       224.06
 1272.87        2953.00           1262          56.00       215.35
 1272.90        2953.25           1266          49.00       184.83
 1272.93        2953.50           1269          59.00       228.42
 1272.96        2953.75           1272          53.00       202.27
 1272.99        2954.00           1276          56.00       215.35
 1273.03        2954.25           1279          54.00       206.63
 1273.06        2954.50           1282          52.00       197.91
 1273.09        2954.75           1286          42.00       154.32
 1273.12        2955.00           1289          56.00       215.35
 1273.15        2955.25           1292          53.00       202.27
 1273.18        2955.50           1296          53.00       202.27
 1273.21        2955.75           1299          47.00       176.11
 1273.24        2956.00           1302          53.00       202.27
 1273.27        2956.25           1306          52.00       197.91
 1273.31        2956.50           1309          62.00       241.50
 1273.34        2956.75           1312          49.00       184.83
 1273.37        2957.00           1316          54.00       206.63
 1273.40        2957.25           1319          53.00       202.27
 1273.43        2957.50           1322          50.00       189.19
 1273.46        2957.75           1326          57.00       219.71
 1273.49        2958.00           1329          52.00       197.91
 1273.52        2958.25           1332          56.00       215.35
 1273.55        2958.50           1336          55.00       210.99
 1273.58        2958.75           1339          49.00       184.83
 1273.62        2959.00           1342          51.00       193.55
 1273.65        2959.25           1346          57.00       219.71
 1273.68        2959.50           1349          60.00       232.78
 1273.71        2959.75           1352          76.00       302.53
 1273.74        2960.00           1356          96.00       389.72
 1273.77        2960.25           1359         133.00       551.01
 1273.80        2960.50           1362         162.00       677.43
 1273.83        2960.75           1366         214.00       904.12
 1273.86        2961.00           1369         259.00      1100.30
 1273.90        2961.25           1372         305.00      1300.84
 1273.93        2961.50           1376         377.00      1614.73
 1273.96        2961.75           1379         598.00      2578.23
 1273.99        2962.00           1382        1436.00      6232.20
 1274.02        2962.25           1386        3319.00     14445.67
 1274.05        2962.50           1389        4848.00     21118.00
 1274.08        2962.75           1392        6298.00     27448.05
 1274.11        2963.00           1396        8208.00     35789.94
 1274.14        2963.25           1399        9754.00     42545.12
 1274.17        2963.50           1402       11262.00     49136.90
 1274.21        2963.75           1406       13305.00     58071.44
 1274.24        2964.00           1409       14812.00     64665.00
 1274.27        2964.25           1412       16344.00     71370.61
 1274.30        2964.50           1416       18430.00     80505.45
 1274.33        2964.75           1419       19843.00     86695.99
 1274.36        2965.00           1422       21636.00     94554.68
 1274.39        2965.25           1426       23765.00    103890.90
 1274.42        2965.50           1429       25453.00    111296.90
 1274.45        2965.75           1432       26715.00    116836.00
 1274.49        2966.00           1436       28867.00    126285.70
 1274.52        2966.25           1439       30199.00    132137.40
 1274.55        2966.50           1442       31792.00    139138.40
 1274.58        2966.75           1446       32860.00    143833.80
 1274.61        2967.00           1449       33206.00    145355.20
 1274.64        2967.25           1452       33370.00    146076.40
 1274.67        2967.50           1456       33229.00    145456.40
 1274.70        2967.75           1459       33543.00    146837.20
 1274.73        2968.00           1462       33023.00    144550.50
 1274.77        2968.25           1466       32048.00    140263.80
 1274.80        2968.50           1469       30608.00    133934.60
 1274.83        2968.75           1472       28976.00    126764.50
 1274.86        2969.00           1476       27062.00    118359.40
 1274.89        2969.25           1479       25484.00    111432.90
 1274.92        2969.50           1482       24083.00    105285.80
 1274.95        2969.75           1486       22057.00     96400.46
 1274.98        2970.00           1489       20609.00     90052.90
 1275.01        2970.25           1492       19286.00     84255.42
 1275.05        2970.50           1496       17073.00     74562.43
 1275.08        2970.75           1499       15287.00     66743.80
 1275.11        2971.00           1502       13899.00     60670.05
 1275.14        2971.25           1506       11862.00     51760.35
 1275.17        2971.50           1509       10355.00     45171.90
 1275.20        2971.75           1513        8247.00     35960.31
 1275.23        2972.00           1516        6632.00     28906.49
 1275.26        2972.25           1519        5156.00     22462.39
 1275.29        2972.50           1523        3164.00     13769.42
 1275.33        2972.75           1526        1714.00      7444.56
 1275.36        2973.00           1529         761.00      3288.90
 1275.39        2973.25           1533         396.00      1697.56
 1275.42        2973.50           1536         315.00      1344.43
 1275.45        2973.75           1539         270.00      1148.25
 1275.48        2974.00           1543         225.00       952.08
 1275.51        2974.25           1546         144.00       598.96
 1275.54        2974.50           1549         118.00       485.62
 1275.57        2974.75           1553          75.00       298.17
 1275.60        2975.00           1556          66.00       258.94
 1275.63        2975.25           1559          56.00       215.35
 1275.67        2975.50           1563          50.00       189.19
 1275.70        2975.75           1566          54.00       206.63
 1275.73        2976.00           1569          53.00       202.27
 1275.76        2976.25           1573          52.00       197.91
 1275.79        2976.50           1576          47.00       176.11
 1275.82        2976.75           1579          54.00       206.63
 1275.85        2977.00           1583          52.00       197.91
 1275.88        2977.25           1586          51.00       193.55
 1275.91        2977.50           1590          52.00       197.91
 1275.94        2977.75           1593          47.00       176.11
 1275.98        2978.00           1596          50.00       189.19
 1276.01        2978.25           1600          49.00       184.83
 1276.04        2978.50           1603          50.00       189.19
 1276.07        2978.75           1606          43.00       158.68
 1276.10        2979.00           1610          48.00       180.47
 1276.13        2979.25           1613          51.00       193.55
 1276.16        2979.50           1616          52.00       197.91
 1276.19        2979.75           1620          50.00       189.19
 1276.22        2980.00           1623          48.00       180.47
 1276.25        2980.25           1626          50.00       189.19
 1276.28        2980.50           1630          52.00       197.91
 1276.31        2980.75           1633          49.00       184.83
 1276.34        2981.00           1637          42.00       154.32
 1276.38        2981.25           1640          59.00       228.42
 1276.41        2981.50           1643          48.00       180.47
 1276.44        2981.75           1647          47.00       176.11
 1276.47        2982.00           1650          51.00       193.55
 1276.50        2982.25           1653          52.00       197.91
 1276.53        2982.50           1657          50.00       189.19
 1276.56        2982.75           1660          52.00       197.91
 1276.59        2983.00           1663          47.00       176.11
 1276.62        2983.25           1667          44.00       163.03
 1276.65        2983.50           1670          47.00       176.11
 1276.69        2983.75           1673          54.00       206.63
 1276.72        2984.00           1677          51.00       193.55
HS scan finished at 21:16:56
end
