************************************************************
  HS Scan of (1) Internal mercury lamp
************************************************************
Integration time is 0.2294 seconds per sample
dh180717Manchester 53.47 2.23 2.857833pr1000
************************************************************
Dead Time -------------------------  3E-08 
Number of Cycles Used -------------  4 
Starting Wavelength (Angstroms) ---  2950 
Final Wavelength (Angstoms) -------  2984 
Wavelength Increment (Angstroms) --  .25 
Filter Wheel #1 Position ---------- (1) Ground quartz diffuser (ND=2.32)
Filter Wheel #2 Position ---------- (1) Neutral Density 0.494



************************************************************
HS scan start time = 01:43:26
Dark Count =  5.1 


Time (GMT)  Wavelength (Ang)  Step Number  Raw Counts  Counts/Second

  103.80        2950.00           1222         114.00       474.72
  103.87        2950.25           1226         117.00       487.80
  103.90        2950.50           1229         121.00       505.24
  103.93        2950.75           1232         108.00       448.57
  103.96        2951.00           1236         105.00       435.49
  103.99        2951.25           1239          99.00       409.33
  104.02        2951.50           1242         113.00       470.36
  104.05        2951.75           1246          98.00       404.97
  104.08        2952.00           1249          98.00       404.97
  104.11        2952.25           1252         108.00       448.57
  104.14        2952.50           1256         105.00       435.49
  104.18        2952.75           1259         107.00       444.21
  104.21        2953.00           1262         102.00       422.41
  104.24        2953.25           1266          94.00       387.54
  104.27        2953.50           1269         109.00       452.93
  104.30        2953.75           1272         110.00       457.29
  104.33        2954.00           1276         107.00       444.21
  104.36        2954.25           1279         102.00       422.41
  104.39        2954.50           1282         109.00       452.93
  104.42        2954.75           1286         112.00       466.00
  104.45        2955.00           1289         108.00       448.57
  104.49        2955.25           1292         107.00       444.21
  104.52        2955.50           1296         113.00       470.36
  104.55        2955.75           1299         103.00       426.77
  104.58        2956.00           1302         113.00       470.36
  104.61        2956.25           1306         109.00       452.93
  104.64        2956.50           1309         101.00       418.05
  104.67        2956.75           1312         101.00       418.05
  104.70        2957.00           1316         101.00       418.05
  104.73        2957.25           1319         105.00       435.49
  104.76        2957.50           1322         111.00       461.65
  104.79        2957.75           1326          99.00       409.33
  104.82        2958.00           1329         105.00       435.49
  104.86        2958.25           1332          96.00       396.26
  104.89        2958.50           1336          96.00       396.26
  104.92        2958.75           1339         100.00       413.69
  104.95        2959.00           1342          99.00       409.33
  104.98        2959.25           1346         102.00       422.41
  105.01        2959.50           1349         103.00       426.77
  105.04        2959.75           1352         134.00       561.91
  105.07        2960.00           1356         153.00       644.74
  105.10        2960.25           1359         193.00       819.11
  105.13        2960.50           1362         221.00       941.18
  105.16        2960.75           1366         284.00      1215.82
  105.19        2961.00           1369         324.00      1390.21
  105.22        2961.25           1372         356.00      1529.71
  105.26        2961.50           1376         462.00      1991.84
  105.29        2961.75           1379         611.00      2641.45
  105.32        2962.00           1382        1208.00      5244.50
  105.35        2962.25           1386        3027.00     13178.27
  105.38        2962.50           1389        4711.00     20526.58
  105.41        2962.75           1392        6294.00     27437.14
  105.44        2963.00           1396        8470.00     36941.10
  105.47        2963.25           1399       10070.00     43932.76
  105.50        2963.50           1402       11914.00     51994.30
  105.53        2963.75           1406       14173.00     61875.44
  105.56        2964.00           1409       15920.00     69521.05
  105.60        2964.25           1412       17912.00     78243.18
  105.63        2964.50           1416       20568.00     89879.79
  105.66        2964.75           1419       22274.00     97358.49
  105.69        2965.00           1422       24120.00    105454.70
  105.72        2965.25           1426       26419.00    115543.20
  105.75        2965.50           1429       28262.00    123635.20
  105.78        2965.75           1432       29881.00    130746.80
  105.81        2966.00           1436       32056.00    140305.50
  105.84        2966.25           1439       33835.00    148128.00
  105.88        2966.50           1442       35448.00    155223.80
  105.91        2966.75           1446       37063.00    162331.40
  105.94        2967.00           1449       37552.00    164484.00
  105.97        2967.25           1452       37498.00    164246.30
  106.00        2967.50           1456       37604.00    164713.00
  106.03        2967.75           1459       37443.00    164004.20
  106.06        2968.00           1462       37296.00    163357.00
  106.09        2968.25           1466       36418.00    159492.40
  106.12        2968.50           1469       34951.00    153037.10
  106.16        2968.75           1472       33305.00    145797.10
  106.19        2969.00           1476       31132.00    136244.10
  106.22        2969.25           1479       29516.00    129143.20
  106.25        2969.50           1482       27921.00    122137.60
  106.28        2969.75           1486       25597.00    111935.40
  106.31        2970.00           1489       23699.00    103607.90
  106.34        2970.25           1492       21998.00     96148.34
  106.37        2970.50           1496       19866.00     86803.35
  106.41        2970.75           1499       18213.00     79561.52
  106.44        2971.00           1502       16430.00     71753.68
  106.47        2971.25           1506       13978.00     61022.25
  106.50        2971.50           1509       12373.00     54001.54
  106.53        2971.75           1513       10111.00     44111.96
  106.56        2972.00           1516        8371.00     36508.58
  106.59        2972.25           1519        6712.00     29262.38
  106.62        2972.50           1523        4531.00     19740.98
  106.65        2972.75           1526        2922.00     12720.20
  106.69        2973.00           1529        1478.00      6421.90
  106.72        2973.25           1533         593.00      2562.97
  106.75        2973.50           1536         430.00      1852.33
  106.78        2973.75           1539         372.00      1599.47
  106.81        2974.00           1543         334.00      1433.80
  106.84        2974.25           1546         239.00      1019.65
  106.87        2974.50           1549         196.00       832.19
  106.90        2974.75           1553         144.00       605.50
  106.93        2975.00           1556         125.00       522.68
  106.97        2975.25           1559         108.00       448.57
  107.00        2975.50           1563         102.00       422.41
  107.03        2975.75           1566         104.00       431.13
  107.06        2976.00           1569         107.00       444.21
  107.09        2976.25           1573          92.00       378.82
  107.12        2976.50           1576          98.00       404.97
  107.15        2976.75           1579          98.00       404.97
  107.18        2977.00           1583          90.00       370.10
  107.21        2977.25           1586          94.00       387.54
  107.24        2977.50           1590         109.00       452.93
  107.27        2977.75           1593          89.00       365.74
  107.30        2978.00           1596          94.00       387.54
  107.34        2978.25           1600          99.00       409.33
  107.37        2978.50           1603          88.00       361.38
  107.40        2978.75           1606         106.00       439.85
  107.43        2979.00           1610          94.00       387.54
  107.46        2979.25           1613         104.00       431.13
  107.49        2979.50           1616          93.00       383.18
  107.52        2979.75           1620          88.00       361.38
  107.55        2980.00           1623          92.00       378.82
  107.58        2980.25           1626          91.00       374.46
  107.61        2980.50           1630         101.00       418.05
  107.65        2980.75           1633          93.00       383.18
  107.68        2981.00           1637          92.00       378.82
  107.71        2981.25           1640          88.00       361.38
  107.74        2981.50           1643          83.00       339.59
  107.77        2981.75           1647          95.00       391.90
  107.80        2982.00           1650          87.00       357.02
  107.83        2982.25           1653          92.00       378.82
  107.86        2982.50           1657          96.00       396.26
  107.89        2982.75           1660          95.00       391.90
  107.92        2983.00           1663          84.00       343.94
  107.95        2983.25           1667          89.00       365.74
  107.99        2983.50           1670          96.00       396.26
  108.02        2983.75           1673          94.00       387.54
  108.05        2984.00           1677          97.00       400.62
HS scan finished at 01:48:16
end
************************************************************
  HS Scan of (1) Internal mercury lamp
************************************************************
Integration time is 0.2294 seconds per sample
dh180717Manchester 53.47 2.23 3.018777pr1000
************************************************************
Dead Time -------------------------  3E-08 
Number of Cycles Used -------------  4 
Starting Wavelength (Angstroms) ---  2950 
Final Wavelength (Angstoms) -------  2984 
Wavelength Increment (Angstroms) --  .25 
Filter Wheel #1 Position ---------- (1) Ground quartz diffuser (ND=2.32)
Filter Wheel #2 Position ---------- (1) Neutral Density 0.494



************************************************************
HS scan start time = 21:12:02
Dark Count =  7.2 


Time (GMT)  Wavelength (Ang)  Step Number  Raw Counts  Counts/Second

 1272.41        2950.00           1222         106.00       430.69
 1272.47        2950.25           1226         116.00       474.29
 1272.50        2950.50           1229         111.00       452.49
 1272.53        2950.75           1232         109.00       443.77
 1272.57        2951.00           1236         104.00       421.98
 1272.60        2951.25           1239         111.00       452.49
 1272.63        2951.50           1242         102.00       413.26
 1272.66        2951.75           1246         108.00       439.41
 1272.69        2952.00           1249         104.00       421.98
 1272.72        2952.25           1252         110.00       448.13
 1272.75        2952.50           1256         103.00       417.62
 1272.78        2952.75           1259         105.00       426.34
 1272.81        2953.00           1262         108.00       439.41
 1272.85        2953.25           1266         107.00       435.05
 1272.88        2953.50           1269         101.00       408.90
 1272.91        2953.75           1272         100.00       404.54
 1272.94        2954.00           1276         114.00       465.57
 1272.97        2954.25           1279         109.00       443.77
 1273.00        2954.50           1282         105.00       426.34
 1273.03        2954.75           1286         108.00       439.41
 1273.06        2955.00           1289         105.00       426.34
 1273.09        2955.25           1292         100.00       404.54
 1273.13        2955.50           1296         108.00       439.41
 1273.16        2955.75           1299         109.00       443.77
 1273.19        2956.00           1302         109.00       443.77
 1273.22        2956.25           1306         105.00       426.34
 1273.25        2956.50           1309          97.00       391.46
 1273.28        2956.75           1312         109.00       443.77
 1273.31        2957.00           1316         102.00       413.26
 1273.34        2957.25           1319         104.00       421.98
 1273.37        2957.50           1322          96.00       387.10
 1273.41        2957.75           1326         102.00       413.26
 1273.44        2958.00           1329          95.00       382.74
 1273.47        2958.25           1332         102.00       413.26
 1273.50        2958.50           1336          98.00       395.82
 1273.53        2958.75           1339         109.00       443.77
 1273.56        2959.00           1342         106.00       430.69
 1273.59        2959.25           1346         107.00       435.05
 1273.62        2959.50           1349         107.00       435.05
 1273.65        2959.75           1352         134.00       552.76
 1273.68        2960.00           1356         178.00       744.57
 1273.72        2960.25           1359         192.00       805.60
 1273.75        2960.50           1362         243.00      1027.93
 1273.78        2960.75           1366         312.00      1328.74
 1273.81        2961.00           1369         369.00      1577.23
 1273.84        2961.25           1372         414.00      1773.42
 1273.87        2961.50           1376         510.00      2191.95
 1273.90        2961.75           1379         700.00      3020.33
 1273.93        2962.00           1382        1415.00      6138.01
 1273.96        2962.25           1386        3430.00     14927.35
 1273.99        2962.50           1389        5337.00     23249.86
 1274.02        2962.75           1392        6992.00     30475.98
 1274.06        2963.00           1396        9377.00     40894.95
 1274.09        2963.25           1399       11127.00     48544.05
 1274.12        2963.50           1402       12804.00     55877.38
 1274.15        2963.75           1406       15516.00     67743.47
 1274.18        2964.00           1409       17392.00     75956.68
 1274.21        2964.25           1412       19303.00     84327.29
 1274.24        2964.50           1416       22082.00     96507.44
 1274.27        2964.75           1419       24075.00    105248.10
 1274.30        2965.00           1422       25986.00    113633.50
 1274.34        2965.25           1426       28409.00    124271.50
 1274.37        2965.50           1429       30257.00    132389.60
 1274.40        2965.75           1432       32435.00    141962.50
 1274.43        2966.00           1436       34643.00    151672.90
 1274.46        2966.25           1439       36426.00    159518.30
 1274.49        2966.50           1442       38166.00    167178.10
 1274.52        2966.75           1446       39772.00    174251.20
 1274.55        2967.00           1449       40311.00    176625.70
 1274.58        2967.25           1452       40673.00    178220.60
 1274.62        2967.50           1456       40515.00    177524.50
 1274.65        2967.75           1459       40498.00    177449.60
 1274.68        2968.00           1462       40222.00    176233.60
 1274.71        2968.25           1466       39461.00    172881.30
 1274.74        2968.50           1469       37819.00    165650.30
 1274.77        2968.75           1472       36085.00    158017.60
 1274.80        2969.00           1476       33654.00    147322.80
 1274.83        2969.25           1479       31934.00    139760.00
 1274.86        2969.50           1482       30378.00    132921.30
 1274.89        2969.75           1486       27661.00    120986.70
 1274.92        2970.00           1489       26106.00    114160.20
 1274.96        2970.25           1492       24053.00    105151.60
 1274.99        2970.50           1496       21481.00     93872.53
 1275.02        2970.75           1499       19674.00     85952.83
 1275.05        2971.00           1502       17837.00     77905.50
 1275.08        2971.25           1506       15116.00     65992.78
 1275.11        2971.50           1509       13209.00     57648.87
 1275.14        2971.75           1513       10905.00     47573.52
 1275.17        2972.00           1516        9176.00     40016.63
 1275.21        2972.25           1519        7270.00     31690.10
 1275.24        2972.50           1523        4858.00     21159.03
 1275.27        2972.75           1526        3230.00     14054.75
 1275.30        2973.00           1529        1572.00      6822.67
 1275.33        2973.25           1533         590.00      2540.73
 1275.36        2973.50           1536         432.00      1851.89
 1275.39        2973.75           1539         366.00      1564.15
 1275.42        2974.00           1543         311.00      1324.38
 1275.46        2974.25           1546         245.00      1036.65
 1275.49        2974.50           1549         193.00       809.96
 1275.52        2974.75           1553         139.00       574.55
 1275.55        2975.00           1556         119.00       487.37
 1275.58        2975.25           1559         108.00       439.41
 1275.61        2975.50           1563         102.00       413.26
 1275.64        2975.75           1566          98.00       395.82
 1275.67        2976.00           1569         102.00       413.26
 1275.70        2976.25           1573          95.00       382.74
 1275.74        2976.50           1576          96.00       387.10
 1275.77        2976.75           1579          96.00       387.10
 1275.80        2977.00           1583          95.00       382.74
 1275.83        2977.25           1586          96.00       387.10
 1275.86        2977.50           1590         102.00       413.26
 1275.89        2977.75           1593         101.00       408.90
 1275.92        2978.00           1596          96.00       387.10
 1275.95        2978.25           1600          83.00       330.43
 1275.98        2978.50           1603          89.00       356.59
 1276.02        2978.75           1606         102.00       413.26
 1276.05        2979.00           1610          97.00       391.46
 1276.08        2979.25           1613          97.00       391.46
 1276.11        2979.50           1616          99.00       400.18
 1276.14        2979.75           1620         102.00       413.26
 1276.17        2980.00           1623          90.00       360.95
 1276.20        2980.25           1626          96.00       387.10
 1276.23        2980.50           1630          96.00       387.10
 1276.26        2980.75           1633          84.00       334.79
 1276.29        2981.00           1637          90.00       360.95
 1276.33        2981.25           1640          93.00       374.02
 1276.36        2981.50           1643          91.00       365.30
 1276.39        2981.75           1647          91.00       365.30
 1276.42        2982.00           1650          84.00       334.79
 1276.45        2982.25           1653          91.00       365.30
 1276.48        2982.50           1657          96.00       387.10
 1276.51        2982.75           1660          88.00       352.23
 1276.54        2983.00           1663          91.00       365.30
 1276.58        2983.25           1667          95.00       382.74
 1276.61        2983.50           1670          90.00       360.95
 1276.64        2983.75           1673          82.00       326.07
 1276.67        2984.00           1677          84.00       334.79
HS scan finished at 21:16:53
end
