************************************************************
  HS Scan of (1) Internal mercury lamp
************************************************************
Integration time is 0.2294 seconds per sample
dh110717Manchester 53.47 2.23 2.857833pr1000
************************************************************
Dead Time -------------------------  3E-08 
Number of Cycles Used -------------  4 
Starting Wavelength (Angstroms) ---  2950 
Final Wavelength (Angstoms) -------  2984 
Wavelength Increment (Angstroms) --  .25 
Filter Wheel #1 Position ---------- (1) Ground quartz diffuser (ND=2.32)
Filter Wheel #2 Position ---------- (1) Neutral Density 0.494



************************************************************
HS scan start time = 01:42:15
Dark Count =  6.7 


Time (GMT)  Wavelength (Ang)  Step Number  Raw Counts  Counts/Second

  102.62        2950.00           1222          39.00       140.80
  102.69        2950.25           1226          43.00       158.24
  102.72        2950.50           1229          36.00       127.72
  102.75        2950.75           1232          38.00       136.44
  102.78        2951.00           1236          39.00       140.80
  102.81        2951.25           1239          44.00       162.60
  102.84        2951.50           1242          43.00       158.24
  102.87        2951.75           1246          45.00       166.96
  102.90        2952.00           1249          44.00       162.60
  102.94        2952.25           1252          43.00       158.24
  102.97        2952.50           1256          39.00       140.80
  103.00        2952.75           1259          50.00       188.75
  103.03        2953.00           1262          42.00       153.88
  103.06        2953.25           1266          50.00       188.75
  103.09        2953.50           1269          44.00       162.60
  103.12        2953.75           1272          44.00       162.60
  103.15        2954.00           1276          46.00       171.32
  103.18        2954.25           1279          41.00       149.52
  103.21        2954.50           1282          55.00       210.55
  103.24        2954.75           1286          46.00       171.32
  103.27        2955.00           1289          41.00       149.52
  103.30        2955.25           1292          43.00       158.24
  103.33        2955.50           1296          61.00       236.71
  103.37        2955.75           1299          37.00       132.08
  103.40        2956.00           1302          41.00       149.52
  103.43        2956.25           1306          39.00       140.80
  103.46        2956.50           1309          42.00       153.88
  103.49        2956.75           1312          38.00       136.44
  103.52        2957.00           1316          42.00       153.88
  103.55        2957.25           1319          40.00       145.16
  103.58        2957.50           1322          45.00       166.96
  103.61        2957.75           1326          37.00       132.08
  103.64        2958.00           1329          41.00       149.52
  103.67        2958.25           1332          49.00       184.40
  103.71        2958.50           1336          48.00       180.04
  103.74        2958.75           1339          45.00       166.96
  103.77        2959.00           1342          55.00       210.55
  103.80        2959.25           1346          45.00       166.96
  103.83        2959.50           1349          54.00       206.19
  103.86        2959.75           1352          79.00       315.17
  103.89        2960.00           1356         113.00       463.39
  103.92        2960.25           1359         139.00       576.73
  103.95        2960.50           1362         193.00       812.14
  103.98        2960.75           1366         253.00      1073.71
  104.01        2961.00           1369         295.00      1256.80
  104.04        2961.25           1372         329.00      1405.03
  104.07        2961.50           1376         428.00      1836.63
  104.10        2961.75           1379         635.00      2739.11
  104.13        2962.00           1382        1281.00      5555.85
  104.16        2962.25           1386        2994.00     13027.32
  104.19        2962.50           1389        4728.00     20593.80
  104.23        2962.75           1392        6409.00     27932.29
  104.26        2963.00           1396        8694.00     37912.76
  104.29        2963.25           1399       10180.00     44406.55
  104.32        2963.50           1402       11812.00     51541.28
  104.35        2963.75           1406       14265.00     62270.98
  104.38        2964.00           1409       15835.00     69141.96
  104.41        2964.25           1412       17703.00     77320.83
  104.44        2964.50           1416       19811.00     86555.34
  104.47        2964.75           1419       21614.00     94457.79
  104.51        2965.00           1422       23345.00    102048.20
  104.54        2965.25           1426       25464.00    111344.70
  104.57        2965.50           1429       27359.00    119662.90
  104.60        2965.75           1432       29036.00    127027.60
  104.63        2966.00           1436       31231.00    136672.10
  104.66        2966.25           1439       32886.00    143947.70
  104.69        2966.50           1442       34265.00    150012.30
  104.72        2966.75           1446       35745.00    156523.60
  104.75        2967.00           1449       36235.00    158679.90
  104.78        2967.25           1452       36196.00    158508.30
  104.81        2967.50           1456       36089.00    158037.40
  104.85        2967.75           1459       35991.00    157606.10
  104.88        2968.00           1462       36003.00    157658.90
  104.91        2968.25           1466       34786.00    152304.20
  104.94        2968.50           1469       33157.00    145139.30
  104.97        2968.75           1472       31743.00    138922.60
  105.00        2969.00           1476       29437.00    128789.20
  105.03        2969.25           1479       27868.00    121897.90
  105.06        2969.50           1482       26043.00    113885.80
  105.09        2969.75           1486       23892.00    104447.50
  105.12        2970.00           1489       22317.00     97540.02
  105.16        2970.25           1492       20640.00     90188.33
  105.19        2970.50           1496       18524.00     80916.77
  105.22        2970.75           1499       16745.00     73125.81
  105.25        2971.00           1502       15183.00     66288.19
  105.28        2971.25           1506       12868.00     56159.49
  105.31        2971.50           1509       11155.00     48668.65
  105.34        2971.75           1513        8894.00     38786.61
  105.37        2972.00           1516        7247.00     31591.83
  105.40        2972.25           1519        5695.00     24814.89
  105.43        2972.50           1523        3547.00     15440.02
  105.47        2972.75           1526        2098.00      9118.89
  105.50        2973.00           1529        1007.00      4361.08
  105.53        2973.25           1533         446.00      1915.11
  105.56        2973.50           1536         316.00      1348.35
  105.59        2973.75           1539         282.00      1200.13
  105.62        2974.00           1543         244.00      1034.47
  105.65        2974.25           1546         160.00       668.28
  105.68        2974.50           1549         122.00       502.62
  105.71        2974.75           1553          84.00       336.97
  105.75        2975.00           1556          60.00       232.35
  105.78        2975.25           1559          52.00       197.47
  105.81        2975.50           1563          49.00       184.40
  105.84        2975.75           1566          50.00       188.75
  105.87        2976.00           1569          48.00       180.04
  105.90        2976.25           1573          36.00       127.72
  105.93        2976.50           1576          52.00       197.47
  105.96        2976.75           1579          42.00       153.88
  105.99        2977.00           1583          50.00       188.75
  106.02        2977.25           1586          51.00       193.11
  106.06        2977.50           1590          41.00       149.52
  106.09        2977.75           1593          41.00       149.52
  106.12        2978.00           1596          43.00       158.24
  106.15        2978.25           1600          42.00       153.88
  106.18        2978.50           1603          41.00       149.52
  106.21        2978.75           1606          47.00       175.68
  106.24        2979.00           1610          41.00       149.52
  106.27        2979.25           1613          39.00       140.80
  106.30        2979.50           1616          53.00       201.83
  106.33        2979.75           1620          47.00       175.68
  106.36        2980.00           1623          47.00       175.68
  106.39        2980.25           1626          42.00       153.88
  106.43        2980.50           1630          42.00       153.88
  106.46        2980.75           1633          41.00       149.52
  106.49        2981.00           1637          45.00       166.96
  106.52        2981.25           1640          39.00       140.80
  106.55        2981.50           1643          49.00       184.40
  106.58        2981.75           1647          39.00       140.80
  106.61        2982.00           1650          51.00       193.11
  106.64        2982.25           1653          40.00       145.16
  106.67        2982.50           1657          53.00       201.83
  106.70        2982.75           1660          39.00       140.80
  106.73        2983.00           1663          44.00       162.60
  106.77        2983.25           1667          40.00       145.16
  106.80        2983.50           1670          45.00       166.96
  106.83        2983.75           1673          46.00       171.32
  106.86        2984.00           1677          43.00       158.24
HS scan finished at 01:47:04
end
************************************************************
  HS Scan of (1) Internal mercury lamp
************************************************************
Integration time is 0.2294 seconds per sample
dh110717Manchester 53.47 2.23 2.804185pr1000
************************************************************
Dead Time -------------------------  3E-08 
Number of Cycles Used -------------  4 
Starting Wavelength (Angstroms) ---  2950 
Final Wavelength (Angstoms) -------  2984 
Wavelength Increment (Angstroms) --  .25 
Filter Wheel #1 Position ---------- (1) Ground quartz diffuser (ND=2.32)
Filter Wheel #2 Position ---------- (1) Neutral Density 0.494



************************************************************
HS scan start time = 21:42:01
Dark Count =  8.100001 


Time (GMT)  Wavelength (Ang)  Step Number  Raw Counts  Counts/Second

 1302.39        2950.00           1222          42.00       147.78
 1302.45        2950.25           1226          43.00       152.14
 1302.48        2950.50           1229          49.00       178.29
 1302.52        2950.75           1232          51.00       187.01
 1302.55        2951.00           1236          47.00       169.57
 1302.58        2951.25           1239          42.00       147.78
 1302.61        2951.50           1242          39.00       134.70
 1302.64        2951.75           1246          41.00       143.42
 1302.67        2952.00           1249          47.00       169.57
 1302.70        2952.25           1252          48.00       173.93
 1302.73        2952.50           1256          44.00       156.50
 1302.76        2952.75           1259          42.00       147.78
 1302.79        2953.00           1262          46.00       165.21
 1302.82        2953.25           1266          40.00       139.06
 1302.86        2953.50           1269          43.00       152.14
 1302.89        2953.75           1272          42.00       147.78
 1302.92        2954.00           1276          39.00       134.70
 1302.95        2954.25           1279          37.00       125.98
 1302.98        2954.50           1282          39.00       134.70
 1303.01        2954.75           1286          43.00       152.14
 1303.04        2955.00           1289          40.00       139.06
 1303.07        2955.25           1292          39.00       134.70
 1303.10        2955.50           1296          42.00       147.78
 1303.13        2955.75           1299          41.00       143.42
 1303.16        2956.00           1302          52.00       191.37
 1303.19        2956.25           1306          49.00       178.29
 1303.23        2956.50           1309          40.00       139.06
 1303.26        2956.75           1312          33.00       108.54
 1303.29        2957.00           1316          48.00       173.93
 1303.32        2957.25           1319          39.00       134.70
 1303.35        2957.50           1322          38.00       130.34
 1303.38        2957.75           1326          41.00       143.42
 1303.41        2958.00           1329          43.00       152.14
 1303.44        2958.25           1332          48.00       173.93
 1303.47        2958.50           1336          46.00       165.21
 1303.50        2958.75           1339          46.00       165.21
 1303.53        2959.00           1342          53.00       195.73
 1303.56        2959.25           1346          51.00       187.01
 1303.59        2959.50           1349          58.00       217.53
 1303.63        2959.75           1352          81.00       317.79
 1303.66        2960.00           1356         130.00       531.39
 1303.69        2960.25           1359         178.00       740.64
 1303.72        2960.50           1362         214.00       897.58
 1303.75        2960.75           1366         276.00      1167.87
 1303.78        2961.00           1369         315.00      1337.89
 1303.81        2961.25           1372         347.00      1477.40
 1303.84        2961.50           1376         420.00      1795.65
 1303.87        2961.75           1379         681.00      2933.56
 1303.91        2962.00           1382        1411.00      6116.64
 1303.94        2962.25           1386        3148.00     13693.07
 1303.97        2962.50           1389        4750.00     20683.71
 1304.00        2962.75           1392        6449.00     28100.84
 1304.03        2963.00           1396        8654.00     37731.88
 1304.06        2963.25           1399       10172.00     44365.46
 1304.09        2963.50           1402       11919.00     52003.04
 1304.12        2963.75           1406       14059.00     61363.52
 1304.15        2964.00           1409       15611.00     68155.35
 1304.18        2964.25           1412       17253.00     75344.05
 1304.21        2964.50           1416       19475.00     85076.94
 1304.24        2964.75           1419       21168.00     92496.51
 1304.28        2965.00           1422       22853.00     99884.30
 1304.31        2965.25           1426       25226.00    110294.20
 1304.34        2965.50           1429       26967.00    117935.70
 1304.37        2965.75           1432       28614.00    125167.90
 1304.40        2966.00           1436       30833.00    134916.80
 1304.43        2966.25           1439       32318.00    141444.20
 1304.46        2966.50           1442       33783.00    147886.10
 1304.49        2966.75           1446       35008.00    153274.70
 1304.52        2967.00           1449       35439.00    155171.00
 1304.56        2967.25           1452       35430.00    155131.40
 1304.59        2967.50           1456       35081.00    153595.80
 1304.62        2967.75           1459       35290.00    154515.40
 1304.65        2968.00           1462       34820.00    152447.60
 1304.68        2968.25           1466       33653.00    147314.40
 1304.71        2968.50           1469       32123.00    140586.90
 1304.74        2968.75           1472       30649.00    134108.20
 1304.77        2969.00           1476       28491.00    124627.70
 1304.80        2969.25           1479       26792.00    117167.50
 1304.83        2969.50           1482       25121.00    109833.40
 1304.86        2969.75           1486       23106.00    100993.80
 1304.89        2970.00           1489       21390.00     93469.66
 1304.92        2970.25           1492       19855.00     86742.00
 1304.96        2970.50           1496       17669.00     77165.79
 1304.99        2970.75           1499       16009.00     69897.52
 1305.02        2971.00           1502       14425.00     62964.96
 1305.05        2971.25           1506       12275.00     53559.84
 1305.08        2971.50           1509       10490.00     45755.45
 1305.11        2971.75           1513        8335.00     36338.20
 1305.14        2972.00           1516        6796.00     29616.10
 1305.17        2972.25           1519        5170.00     22516.95
 1305.20        2972.50           1523        3116.00     13553.46
 1305.23        2972.75           1526        1721.00      7468.54
 1305.26        2973.00           1529         757.00      3264.92
 1305.29        2973.25           1533         377.00      1608.19
 1305.33        2973.50           1536         265.00      1119.92
 1305.36        2973.75           1539         227.00       954.26
 1305.39        2974.00           1543         174.00       723.21
 1305.42        2974.25           1546         116.00       470.36
 1305.45        2974.50           1549          80.00       313.43
 1305.48        2974.75           1553          58.00       217.53
 1305.51        2975.00           1556          46.00       165.21
 1305.54        2975.25           1559          47.00       169.57
 1305.57        2975.50           1563          41.00       143.42
 1305.60        2975.75           1566          45.00       160.86
 1305.63        2976.00           1569          43.00       152.14
 1305.66        2976.25           1573          38.00       130.34
 1305.69        2976.50           1576          44.00       156.50
 1305.72        2976.75           1579          39.00       134.70
 1305.76        2977.00           1583          42.00       147.78
 1305.79        2977.25           1586          45.00       160.86
 1305.82        2977.50           1590          43.00       152.14
 1305.85        2977.75           1593          47.00       169.57
 1305.88        2978.00           1596          40.00       139.06
 1305.91        2978.25           1600          39.00       134.70
 1305.94        2978.50           1603          42.00       147.78
 1305.97        2978.75           1606          44.00       156.50
 1306.00        2979.00           1610          54.00       200.09
 1306.03        2979.25           1613          42.00       147.78
 1306.06        2979.50           1616          39.00       134.70
 1306.09        2979.75           1620          45.00       160.86
 1306.12        2980.00           1623          48.00       173.93
 1306.16        2980.25           1626          45.00       160.86
 1306.19        2980.50           1630          45.00       160.86
 1306.22        2980.75           1633          38.00       130.34
 1306.25        2981.00           1637          43.00       152.14
 1306.28        2981.25           1640          37.00       125.98
 1306.31        2981.50           1643          45.00       160.86
 1306.34        2981.75           1647          43.00       152.14
 1306.37        2982.00           1650          40.00       139.06
 1306.40        2982.25           1653          44.00       156.50
 1306.43        2982.50           1657          46.00       165.21
 1306.46        2982.75           1660          50.00       182.65
 1306.49        2983.00           1663          38.00       130.34
 1306.52        2983.25           1667          40.00       139.06
 1306.55        2983.50           1670          45.00       160.86
 1306.58        2983.75           1673          40.00       139.06
 1306.61        2984.00           1677          47.00       169.57
HS scan finished at 21:46:50
end
