************************************************************
  HS Scan of (1) Internal mercury lamp
************************************************************
Integration time is 0.2294 seconds per sample
dh100718Manchester 53.47 2.23 2.911481pr1000
************************************************************
Dead Time -------------------------  3E-08 
Number of Cycles Used -------------  4 
Starting Wavelength (Angstroms) ---  2950 
Final Wavelength (Angstoms) -------  2984 
Wavelength Increment (Angstroms) --  .25 
Filter Wheel #1 Position ---------- (1) Ground quartz diffuser (ND=2.32)
Filter Wheel #2 Position ---------- (1) Neutral Density 0.494



************************************************************
HS scan start time = 01:43:09
Dark Count =  6.6 


Time (GMT)  Wavelength (Ang)  Step Number  Raw Counts  Counts/Second

  103.52        2950.00           1222          53.00       202.27
  103.59        2950.25           1226          52.00       197.91
  103.62        2950.50           1229          63.00       245.86
  103.65        2950.75           1232          59.00       228.42
  103.68        2951.00           1236          55.00       210.99
  103.71        2951.25           1239          53.00       202.27
  103.74        2951.50           1242          54.00       206.63
  103.78        2951.75           1246          58.00       224.06
  103.81        2952.00           1249          62.00       241.50
  103.84        2952.25           1252          54.00       206.63
  103.87        2952.50           1256          70.00       276.38
  103.90        2952.75           1259          61.00       237.14
  103.93        2953.00           1262          56.00       215.35
  103.96        2953.25           1266          59.00       228.42
  103.99        2953.50           1269          60.00       232.78
  104.02        2953.75           1272          54.00       206.63
  104.05        2954.00           1276          49.00       184.83
  104.09        2954.25           1279          52.00       197.91
  104.12        2954.50           1282          59.00       228.42
  104.15        2954.75           1286          58.00       224.06
  104.18        2955.00           1289          53.00       202.27
  104.21        2955.25           1292          52.00       197.91
  104.24        2955.50           1296          57.00       219.71
  104.27        2955.75           1299          64.00       250.22
  104.30        2956.00           1302          59.00       228.42
  104.33        2956.25           1306          59.00       228.42
  104.36        2956.50           1309          54.00       206.63
  104.39        2956.75           1312          57.00       219.71
  104.43        2957.00           1316          53.00       202.27
  104.46        2957.25           1319          54.00       206.63
  104.49        2957.50           1322          59.00       228.42
  104.52        2957.75           1326          53.00       202.27
  104.55        2958.00           1329          50.00       189.19
  104.58        2958.25           1332          58.00       224.06
  104.61        2958.50           1336          56.00       215.35
  104.64        2958.75           1339          46.00       171.75
  104.67        2959.00           1342          58.00       224.06
  104.70        2959.25           1346          57.00       219.71
  104.73        2959.50           1349          59.00       228.42
  104.76        2959.75           1352          67.00       263.30
  104.79        2960.00           1356          98.00       398.44
  104.82        2960.25           1359         109.00       446.39
  104.86        2960.50           1362         146.00       607.68
  104.89        2960.75           1366         194.00       816.93
  104.92        2961.00           1369         224.00       947.72
  104.95        2961.25           1372         261.00      1109.02
  104.98        2961.50           1376         351.00      1501.38
  105.01        2961.75           1379         497.00      2137.89
  105.04        2962.00           1382        1075.00      4658.02
  105.07        2962.25           1386        2689.00     11697.22
  105.10        2962.50           1389        4081.00     17770.59
  105.14        2962.75           1392        5519.00     24046.99
  105.17        2963.00           1396        7228.00     31509.28
  105.20        2963.25           1399        8608.00     37537.45
  105.23        2963.50           1402       10099.00     44052.96
  105.26        2963.75           1406       11988.00     52311.33
  105.29        2964.00           1409       13612.00     59414.44
  105.32        2964.25           1412       15179.00     66271.13
  105.35        2964.50           1416       17088.00     74628.10
  105.38        2964.75           1419       18666.00     81539.24
  105.41        2965.00           1422       20080.00     87734.55
  105.45        2965.25           1426       22077.00     96488.13
  105.48        2965.50           1429       23481.00    102645.20
  105.51        2965.75           1432       25097.00    109734.70
  105.54        2966.00           1436       26896.00    117630.60
  105.57        2966.25           1439       28167.00    123211.40
  105.60        2966.50           1442       29631.00    129641.90
  105.63        2966.75           1446       30916.00    135288.20
  105.66        2967.00           1449       31386.00    137353.90
  105.69        2967.25           1452       31351.00    137200.00
  105.73        2967.50           1456       31243.00    136725.30
  105.76        2967.75           1459       31314.00    137037.40
  105.79        2968.00           1462       31394.00    137389.00
  105.82        2968.25           1466       30444.00    133214.00
  105.85        2968.50           1469       29089.00    127260.90
  105.88        2968.75           1472       27870.00    121907.10
  105.91        2969.00           1476       25989.00    113649.30
  105.94        2969.25           1479       24528.00    107238.10
  105.97        2969.50           1482       23309.00    101890.80
  106.01        2969.75           1486       21419.00     93603.37
  106.04        2970.00           1489       19824.00     86612.72
  106.07        2970.25           1492       18541.00     80991.68
  106.10        2970.50           1496       16423.00     71716.47
  106.13        2970.75           1499       15112.00     65977.90
  106.16        2971.00           1502       13608.00     59396.95
  106.19        2971.25           1506       11736.00     51209.39
  106.22        2971.50           1509       10175.00     44385.13
  106.25        2971.75           1513        8358.00     36445.24
  106.29        2972.00           1516        6963.00     30351.95
  106.32        2972.25           1519        5573.00     24282.72
  106.35        2972.50           1523        3710.00     16151.68
  106.38        2972.75           1526        2439.00     10606.69
  106.41        2973.00           1529        1229.00      5329.54
  106.44        2973.25           1533         486.00      2089.93
  106.47        2973.50           1536         340.00      1453.42
  106.50        2973.75           1539         284.00      1209.29
  106.53        2974.00           1543         230.00       973.87
  106.57        2974.25           1546         182.00       764.62
  106.60        2974.50           1549         147.00       612.04
  106.63        2974.75           1553         100.00       407.15
  106.66        2975.00           1556          70.00       276.38
  106.69        2975.25           1559          58.00       224.06
  106.72        2975.50           1563          51.00       193.55
  106.75        2975.75           1566          49.00       184.83
  106.78        2976.00           1569          58.00       224.06
  106.81        2976.25           1573          52.00       197.91
  106.84        2976.50           1576          54.00       206.63
  106.87        2976.75           1579          58.00       224.06
  106.91        2977.00           1583          49.00       184.83
  106.94        2977.25           1586          51.00       193.55
  106.97        2977.50           1590          53.00       202.27
  107.00        2977.75           1593          52.00       197.91
  107.03        2978.00           1596          50.00       189.19
  107.06        2978.25           1600          52.00       197.91
  107.09        2978.50           1603          48.00       180.47
  107.12        2978.75           1606          51.00       193.55
  107.15        2979.00           1610          52.00       197.91
  107.18        2979.25           1613          56.00       215.35
  107.21        2979.50           1616          51.00       193.55
  107.25        2979.75           1620          56.00       215.35
  107.28        2980.00           1623          59.00       228.42
  107.31        2980.25           1626          49.00       184.83
  107.34        2980.50           1630          51.00       193.55
  107.37        2980.75           1633          45.00       167.39
  107.40        2981.00           1637          48.00       180.47
  107.43        2981.25           1640          48.00       180.47
  107.46        2981.50           1643          49.00       184.83
  107.49        2981.75           1647          47.00       176.11
  107.52        2982.00           1650          56.00       215.35
  107.56        2982.25           1653          49.00       184.83
  107.59        2982.50           1657          42.00       154.32
  107.62        2982.75           1660          54.00       206.63
  107.65        2983.00           1663          52.00       197.91
  107.68        2983.25           1667          51.00       193.55
  107.71        2983.50           1670          43.00       158.68
  107.74        2983.75           1673          49.00       184.83
  107.77        2984.00           1677          46.00       171.75
HS scan finished at 01:47:59
end
************************************************************
  HS Scan of (1) Internal mercury lamp
************************************************************
Integration time is 0.2294 seconds per sample
dh100718Manchester 53.47 2.23 3.018777pr1000
************************************************************
Dead Time -------------------------  3E-08 
Number of Cycles Used -------------  4 
Starting Wavelength (Angstroms) ---  2950 
Final Wavelength (Angstoms) -------  2984 
Wavelength Increment (Angstroms) --  .25 
Filter Wheel #1 Position ---------- (1) Ground quartz diffuser (ND=2.32)
Filter Wheel #2 Position ---------- (1) Neutral Density 0.494



************************************************************
HS scan start time = 21:42:08
Dark Count =  6.3 


Time (GMT)  Wavelength (Ang)  Step Number  Raw Counts  Counts/Second

 1302.51        2950.00           1222          52.00       199.22
 1302.58        2950.25           1226          53.00       203.58
 1302.61        2950.50           1229          59.00       229.73
 1302.64        2950.75           1232          58.00       225.37
 1302.67        2951.00           1236          52.00       199.22
 1302.70        2951.25           1239          58.00       225.37
 1302.73        2951.50           1242          55.00       212.29
 1302.76        2951.75           1246          50.00       190.50
 1302.79        2952.00           1249          54.00       207.94
 1302.82        2952.25           1252          53.00       203.58
 1302.86        2952.50           1256          59.00       229.73
 1302.89        2952.75           1259          51.00       194.86
 1302.92        2953.00           1262          64.00       251.53
 1302.95        2953.25           1266          55.00       212.29
 1302.98        2953.50           1269          62.00       242.81
 1303.01        2953.75           1272          55.00       212.29
 1303.04        2954.00           1276          54.00       207.94
 1303.07        2954.25           1279          58.00       225.37
 1303.10        2954.50           1282          52.00       199.22
 1303.13        2954.75           1286          56.00       216.65
 1303.16        2955.00           1289          48.00       181.78
 1303.20        2955.25           1292          48.00       181.78
 1303.23        2955.50           1296          69.00       273.32
 1303.26        2955.75           1299          59.00       229.73
 1303.29        2956.00           1302          64.00       251.53
 1303.32        2956.25           1306          52.00       199.22
 1303.35        2956.50           1309          57.00       221.01
 1303.38        2956.75           1312          51.00       194.86
 1303.41        2957.00           1316          60.00       234.09
 1303.44        2957.25           1319          60.00       234.09
 1303.47        2957.50           1322          57.00       221.01
 1303.51        2957.75           1326          59.00       229.73
 1303.54        2958.00           1329          52.00       199.22
 1303.57        2958.25           1332          66.00       260.25
 1303.60        2958.50           1336          54.00       207.94
 1303.63        2958.75           1339          65.00       255.89
 1303.66        2959.00           1342          58.00       225.37
 1303.69        2959.25           1346          61.00       238.45
 1303.72        2959.50           1349          84.00       338.71
 1303.75        2959.75           1352          86.00       347.43
 1303.79        2960.00           1356         119.00       491.29
 1303.82        2960.25           1359         162.00       678.74
 1303.85        2960.50           1362         193.00       813.88
 1303.88        2960.75           1366         245.00      1040.57
 1303.91        2961.00           1369         287.00      1223.67
 1303.94        2961.25           1372         323.00      1380.62
 1303.97        2961.50           1376         398.00      1707.59
 1304.00        2961.75           1379         503.00      2165.35
 1304.03        2962.00           1382         971.00      4205.85
 1304.06        2962.25           1386        2551.00     11096.54
 1304.10        2962.50           1389        4075.00     17745.72
 1304.13        2962.75           1392        5476.00     23860.58
 1304.16        2963.00           1396        7335.00     31977.92
 1304.19        2963.25           1399        8879.00     38722.82
 1304.22        2963.50           1402       10325.00     45042.08
 1304.25        2963.75           1406       12453.00     54346.17
 1304.28        2964.00           1409       14107.00     61581.41
 1304.31        2964.25           1412       15549.00     67891.85
 1304.34        2964.50           1416       17585.00     76805.80
 1304.38        2964.75           1419       19180.00     83792.33
 1304.41        2965.00           1422       20830.00     91022.84
 1304.44        2965.25           1426       22719.00     99304.56
 1304.47        2965.50           1429       24275.00    106129.40
 1304.50        2965.75           1432       25884.00    113189.70
 1304.53        2966.00           1436       27714.00    121223.40
 1304.56        2966.25           1439       29139.00    127481.80
 1304.59        2966.50           1442       30550.00    133681.10
 1304.62        2966.75           1446       32084.00    140423.40
 1304.65        2967.00           1449       32539.00    142423.70
 1304.69        2967.25           1452       32629.00    142819.40
 1304.72        2967.50           1456       32674.00    143017.30
 1304.75        2967.75           1459       32599.00    142687.50
 1304.78        2968.00           1462       32480.00    142164.30
 1304.81        2968.25           1466       31609.00    138335.40
 1304.84        2968.50           1469       30426.00    133136.20
 1304.87        2968.75           1472       28921.00    126524.20
 1304.90        2969.00           1476       27226.00    119080.70
 1304.93        2969.25           1479       25438.00    111232.40
 1304.97        2969.50           1482       24123.00    105462.60
 1305.00        2969.75           1486       22019.00     96235.15
 1305.03        2970.00           1489       20700.00     90453.05
 1305.06        2970.25           1492       19181.00     83796.71
 1305.09        2970.50           1496       17088.00     74629.41
 1305.12        2970.75           1499       15640.00     68290.16
 1305.15        2971.00           1502       14160.00     61813.30
 1305.18        2971.25           1506       12151.00     53025.44
 1305.22        2971.50           1509       10676.00     46576.38
 1305.25        2971.75           1513        8884.00     38744.66
 1305.28        2972.00           1516        7293.00     31794.48
 1305.31        2972.25           1519        5752.00     25065.49
 1305.34        2972.50           1523        3739.00     16279.53
 1305.37        2972.75           1526        2223.00      9665.84
 1305.40        2973.00           1529        1031.00      4467.47
 1305.43        2973.25           1533         421.00      1807.86
 1305.46        2973.50           1536         321.00      1371.90
 1305.50        2973.75           1539         243.00      1031.85
 1305.53        2974.00           1543         218.00       922.87
 1305.56        2974.25           1546         155.00       648.23
 1305.59        2974.50           1549         125.00       517.44
 1305.62        2974.75           1553          89.00       360.51
 1305.65        2975.00           1556          65.00       255.89
 1305.68        2975.25           1559          58.00       225.37
 1305.71        2975.50           1563          58.00       225.37
 1305.75        2975.75           1566          55.00       212.29
 1305.78        2976.00           1569          50.00       190.50
 1305.81        2976.25           1573          47.00       177.42
 1305.84        2976.50           1576          51.00       194.86
 1305.87        2976.75           1579          50.00       190.50
 1305.90        2977.00           1583          53.00       203.58
 1305.93        2977.25           1586          57.00       221.01
 1305.96        2977.50           1590          55.00       212.29
 1305.99        2977.75           1593          58.00       225.37
 1306.02        2978.00           1596          47.00       177.42
 1306.05        2978.25           1600          56.00       216.65
 1306.09        2978.50           1603          52.00       199.22
 1306.12        2978.75           1606          49.00       186.14
 1306.15        2979.00           1610          52.00       199.22
 1306.18        2979.25           1613          51.00       194.86
 1306.21        2979.50           1616          52.00       199.22
 1306.24        2979.75           1620          48.00       181.78
 1306.27        2980.00           1623          50.00       190.50
 1306.30        2980.25           1626          49.00       186.14
 1306.33        2980.50           1630          43.00       159.98
 1306.36        2980.75           1633          52.00       199.22
 1306.40        2981.00           1637          51.00       194.86
 1306.43        2981.25           1640          51.00       194.86
 1306.46        2981.50           1643          51.00       194.86
 1306.49        2981.75           1647          41.00       151.26
 1306.52        2982.00           1650          53.00       203.58
 1306.55        2982.25           1653          50.00       190.50
 1306.58        2982.50           1657          50.00       190.50
 1306.61        2982.75           1660          49.00       186.14
 1306.64        2983.00           1663          54.00       207.94
 1306.68        2983.25           1667          50.00       190.50
 1306.71        2983.50           1670          46.00       173.06
 1306.74        2983.75           1673          50.00       190.50
 1306.77        2984.00           1677          48.00       181.78
HS scan finished at 21:46:59
end
