************************************************************
  HS Scan of (1) Internal mercury lamp
************************************************************
Integration time is 0.2294 seconds per sample
dh100717Manchester 53.47 2.23 2.911481pr1000
************************************************************
Dead Time -------------------------  3E-08 
Number of Cycles Used -------------  4 
Starting Wavelength (Angstroms) ---  2950 
Final Wavelength (Angstoms) -------  2984 
Wavelength Increment (Angstroms) --  .25 
Filter Wheel #1 Position ---------- (1) Ground quartz diffuser (ND=2.32)
Filter Wheel #2 Position ---------- (1) Neutral Density 0.494



************************************************************
HS scan start time = 01:41:03
Dark Count =  6.3 


Time (GMT)  Wavelength (Ang)  Step Number  Raw Counts  Counts/Second

  101.42        2950.00           1222          38.00       138.19
  101.49        2950.25           1226          44.00       164.34
  101.52        2950.50           1229          41.00       151.26
  101.55        2950.75           1232          43.00       159.98
  101.58        2951.00           1236          40.00       146.91
  101.61        2951.25           1239          41.00       151.26
  101.64        2951.50           1242          37.00       133.83
  101.67        2951.75           1246          44.00       164.34
  101.70        2952.00           1249          39.00       142.55
  101.73        2952.25           1252          59.00       229.73
  101.76        2952.50           1256          44.00       164.34
  101.80        2952.75           1259          47.00       177.42
  101.83        2953.00           1262          41.00       151.26
  101.86        2953.25           1266          43.00       159.98
  101.89        2953.50           1269          48.00       181.78
  101.92        2953.75           1272          46.00       173.06
  101.95        2954.00           1276          41.00       151.26
  101.98        2954.25           1279          42.00       155.62
  102.01        2954.50           1282          39.00       142.55
  102.04        2954.75           1286          38.00       138.19
  102.07        2955.00           1289          55.00       212.29
  102.10        2955.25           1292          40.00       146.91
  102.13        2955.50           1296          41.00       151.26
  102.16        2955.75           1299          36.00       129.47
  102.20        2956.00           1302          50.00       190.50
  102.23        2956.25           1306          42.00       155.62
  102.26        2956.50           1309          42.00       155.62
  102.29        2956.75           1312          43.00       159.98
  102.32        2957.00           1316          50.00       190.50
  102.35        2957.25           1319          45.00       168.70
  102.38        2957.50           1322          45.00       168.70
  102.41        2957.75           1326          46.00       173.06
  102.44        2958.00           1329          36.00       129.47
  102.47        2958.25           1332          44.00       164.34
  102.51        2958.50           1336          44.00       164.34
  102.54        2958.75           1339          39.00       142.55
  102.57        2959.00           1342          45.00       168.70
  102.60        2959.25           1346          39.00       142.55
  102.63        2959.50           1349          56.00       216.65
  102.66        2959.75           1352          70.00       277.68
  102.69        2960.00           1356          98.00       399.74
  102.72        2960.25           1359         146.00       608.99
  102.75        2960.50           1362         169.00       709.26
  102.78        2960.75           1366         237.00      1005.70
  102.82        2961.00           1369         274.00      1167.00
  102.85        2961.25           1372         349.00      1493.96
  102.88        2961.50           1376         462.00      1986.61
  102.91        2961.75           1379         746.00      3224.81
  102.94        2962.00           1382        1494.00      6486.44
  102.97        2962.25           1386        3298.00     14355.35
  103.00        2962.50           1389        5061.00     22049.02
  103.03        2962.75           1392        6780.00     29554.09
  103.06        2963.00           1396        9122.00     39784.60
  103.09        2963.25           1399       10804.00     47135.92
  103.12        2963.50           1402       12451.00     54337.42
  103.15        2963.75           1406       14744.00     64368.74
  103.19        2964.00           1409       16561.00     72321.96
  103.22        2964.25           1412       18438.00     80541.81
  103.25        2964.50           1416       20635.00     90168.16
  103.28        2964.75           1419       22337.00     97629.46
  103.31        2965.00           1422       24008.00    104958.10
  103.34        2965.25           1426       26552.00    116121.80
  103.37        2965.50           1429       28216.00    123427.90
  103.40        2965.75           1432       30075.00    131593.90
  103.43        2966.00           1436       32467.00    142107.20
  103.47        2966.25           1439       33988.00    148795.70
  103.50        2966.50           1442       35430.00    155139.30
  103.53        2966.75           1446       37060.00    162312.90
  103.56        2967.00           1449       37557.00    164500.80
  103.59        2967.25           1452       37441.00    163990.10
  103.62        2967.50           1456       37482.00    164170.60
  103.65        2967.75           1459       37353.00    163602.70
  103.68        2968.00           1462       37379.00    163717.10
  103.71        2968.25           1466       36157.00    158338.40
  103.74        2968.50           1469       34666.00    151778.00
  103.77        2968.75           1472       33008.00    144485.90
  103.81        2969.00           1476       30902.00    135228.00
  103.84        2969.25           1479       29029.00    126998.60
  103.87        2969.50           1482       27137.00    118690.00
  103.90        2969.75           1486       24987.00    109253.30
  103.93        2970.00           1489       23244.00    101607.00
  103.96        2970.25           1492       21671.00     94709.42
  103.99        2970.50           1496       19431.00     84892.03
  104.02        2970.75           1499       17711.00     77357.60
  104.05        2971.00           1502       16034.00     70014.83
  104.08        2971.25           1506       13727.00     59918.87
  104.12        2971.50           1509       11934.00     52076.51
  104.15        2971.75           1513        9557.00     41685.49
  104.18        2972.00           1516        7894.00     34419.57
  104.21        2972.25           1519        6131.00     26720.19
  104.24        2972.50           1523        3967.00     17274.42
  104.27        2972.75           1526        2547.00     11079.10
  104.30        2973.00           1529        1154.00      5003.80
  104.33        2973.25           1533         494.00      2126.12
  104.36        2973.50           1536         360.00      1541.92
  104.40        2973.75           1539         298.00      1271.63
  104.43        2974.00           1543         263.00      1119.04
  104.46        2974.25           1546         185.00       779.01
  104.49        2974.50           1549         148.00       617.71
  104.52        2974.75           1553          93.00       377.95
  104.55        2975.00           1556          64.00       251.53
  104.58        2975.25           1559          55.00       212.29
  104.61        2975.50           1563          47.00       177.42
  104.64        2975.75           1566          48.00       181.78
  104.67        2976.00           1569          47.00       177.42
  104.70        2976.25           1573          46.00       173.06
  104.74        2976.50           1576          51.00       194.86
  104.77        2976.75           1579          42.00       155.62
  104.80        2977.00           1583          48.00       181.78
  104.83        2977.25           1586          45.00       168.70
  104.86        2977.50           1590          48.00       181.78
  104.89        2977.75           1593          41.00       151.26
  104.92        2978.00           1596          50.00       190.50
  104.95        2978.25           1600          44.00       164.34
  104.98        2978.50           1603          39.00       142.55
  105.02        2978.75           1606          41.00       151.26
  105.05        2979.00           1610          42.00       155.62
  105.08        2979.25           1613          40.00       146.91
  105.11        2979.50           1616          38.00       138.19
  105.14        2979.75           1620          47.00       177.42
  105.17        2980.00           1623          44.00       164.34
  105.20        2980.25           1626          43.00       159.98
  105.23        2980.50           1630          46.00       173.06
  105.26        2980.75           1633          39.00       142.55
  105.29        2981.00           1637          45.00       168.70
  105.32        2981.25           1640          36.00       129.47
  105.35        2981.50           1643          43.00       159.98
  105.38        2981.75           1647          38.00       138.19
  105.41        2982.00           1650          46.00       173.06
  105.45        2982.25           1653          51.00       194.86
  105.48        2982.50           1657          48.00       181.78
  105.51        2982.75           1660          46.00       173.06
  105.54        2983.00           1663          38.00       138.19
  105.57        2983.25           1667          40.00       146.91
  105.60        2983.50           1670          39.00       142.55
  105.63        2983.75           1673          39.00       142.55
  105.66        2984.00           1677          36.00       129.47
HS scan finished at 01:45:53
end
************************************************************
  HS Scan of (1) Internal mercury lamp
************************************************************
Integration time is 0.2294 seconds per sample
dh100717Manchester 53.47 2.23 2.857833pr1000
************************************************************
Dead Time -------------------------  3E-08 
Number of Cycles Used -------------  4 
Starting Wavelength (Angstroms) ---  2950 
Final Wavelength (Angstoms) -------  2984 
Wavelength Increment (Angstroms) --  .25 
Filter Wheel #1 Position ---------- (1) Ground quartz diffuser (ND=2.32)
Filter Wheel #2 Position ---------- (1) Neutral Density 0.494



************************************************************
HS scan start time = 21:42:02
Dark Count =  5.2 


Time (GMT)  Wavelength (Ang)  Step Number  Raw Counts  Counts/Second

 1302.40        2950.00           1222          40.00       151.70
 1302.47        2950.25           1226          35.00       129.90
 1302.50        2950.50           1229          39.00       147.34
 1302.53        2950.75           1232          41.00       156.06
 1302.56        2951.00           1236          43.00       164.78
 1302.59        2951.25           1239          42.00       160.42
 1302.62        2951.50           1242          48.00       186.57
 1302.65        2951.75           1246          46.00       177.86
 1302.68        2952.00           1249          40.00       151.70
 1302.71        2952.25           1252          38.00       142.98
 1302.75        2952.50           1256          45.00       173.50
 1302.78        2952.75           1259          43.00       164.78
 1302.81        2953.00           1262          46.00       177.86
 1302.84        2953.25           1266          45.00       173.50
 1302.87        2953.50           1269          46.00       177.86
 1302.90        2953.75           1272          42.00       160.42
 1302.93        2954.00           1276          44.00       169.14
 1302.96        2954.25           1279          51.00       199.65
 1302.99        2954.50           1282          36.00       134.26
 1303.02        2954.75           1286          49.00       190.93
 1303.05        2955.00           1289          53.00       208.37
 1303.08        2955.25           1292          40.00       151.70
 1303.11        2955.50           1296          43.00       164.78
 1303.15        2955.75           1299          60.00       238.89
 1303.18        2956.00           1302          48.00       186.57
 1303.21        2956.25           1306          50.00       195.29
 1303.24        2956.50           1309          38.00       142.98
 1303.27        2956.75           1312          45.00       173.50
 1303.30        2957.00           1316          49.00       190.93
 1303.33        2957.25           1319          38.00       142.98
 1303.36        2957.50           1322          41.00       156.06
 1303.39        2957.75           1326          40.00       151.70
 1303.42        2958.00           1329          42.00       160.42
 1303.45        2958.25           1332          47.00       182.22
 1303.49        2958.50           1336          42.00       160.42
 1303.52        2958.75           1339          42.00       160.42
 1303.55        2959.00           1342          43.00       164.78
 1303.58        2959.25           1346          50.00       195.29
 1303.61        2959.50           1349          55.00       217.09
 1303.64        2959.75           1352          66.00       265.04
 1303.67        2960.00           1356          99.00       408.90
 1303.70        2960.25           1359         134.00       561.47
 1303.73        2960.50           1362         178.00       753.29
 1303.76        2960.75           1366         235.00      1001.77
 1303.79        2961.00           1369         302.00      1293.86
 1303.83        2961.25           1372         335.00      1437.73
 1303.86        2961.50           1376         452.00      1947.80
 1303.89        2961.75           1379         735.00      3181.65
 1303.92        2962.00           1382        1510.00      6561.01
 1303.95        2962.25           1386        3348.00     14578.30
 1303.98        2962.50           1389        5027.00     21905.41
 1304.01        2962.75           1392        6547.00     28541.43
 1304.04        2963.00           1396        8666.00     37796.97
 1304.07        2963.25           1399       10153.00     44295.10
 1304.10        2963.50           1402       11941.00     52111.92
 1304.13        2963.75           1406       14061.00     61384.96
 1304.17        2964.00           1409       15815.00     69060.99
 1304.20        2964.25           1412       17669.00     77178.50
 1304.23        2964.50           1416       19770.00     86382.25
 1304.26        2964.75           1419       21354.00     93324.57
 1304.29        2965.00           1422       23004.00    100559.20
 1304.32        2965.25           1426       25287.00    110574.60
 1304.35        2965.50           1429       27051.00    118317.20
 1304.38        2965.75           1432       28697.00    125545.20
 1304.41        2966.00           1436       30894.00    135197.70
 1304.45        2966.25           1439       32396.00    141799.90
 1304.48        2966.50           1442       33776.00    147868.10
 1304.51        2966.75           1446       35466.00    155302.50
 1304.54        2967.00           1449       35648.00    156103.40
 1304.57        2967.25           1452       35654.00    156129.80
 1304.60        2967.50           1456       35743.00    156521.40
 1304.63        2967.75           1459       35721.00    156424.60
 1304.66        2968.00           1462       35447.00    155218.90
 1304.70        2968.25           1466       34352.00    150401.60
 1304.73        2968.50           1469       32935.00    144169.70
 1304.76        2968.75           1472       31383.00    137346.80
 1304.79        2969.00           1476       29145.00    127513.00
 1304.82        2969.25           1479       27632.00    120868.20
 1304.85        2969.50           1482       26001.00    113708.10
 1304.88        2969.75           1486       23898.00    104480.40
 1304.91        2970.00           1489       22205.00     97055.51
 1304.94        2970.25           1492       20462.00     89414.77
 1304.98        2970.50           1496       18511.00     80866.40
 1305.01        2970.75           1499       16915.00     73876.72
 1305.04        2971.00           1502       15103.00     65944.63
 1305.07        2971.25           1506       12914.00     56367.25
 1305.10        2971.50           1509       11056.00     48242.39
 1305.13        2971.75           1513        9095.00     39671.43
 1305.16        2972.00           1516        7428.00     32388.91
 1305.19        2972.25           1519        5757.00     25092.12
 1305.22        2972.50           1523        3549.00     15455.29
 1305.25        2972.75           1526        2121.00      9225.74
 1305.28        2973.00           1529         992.00      4302.21
 1305.31        2973.25           1533         433.00      1864.97
 1305.34        2973.50           1536         349.00      1498.76
 1305.38        2973.75           1539         287.00      1228.47
 1305.41        2974.00           1543         229.00       975.62
 1305.44        2974.25           1546         162.00       683.54
 1305.47        2974.50           1549         112.00       465.57
 1305.50        2974.75           1553          78.00       317.35
 1305.53        2975.00           1556          60.00       238.89
 1305.56        2975.25           1559          56.00       221.45
 1305.59        2975.50           1563          48.00       186.57
 1305.62        2975.75           1566          42.00       160.42
 1305.65        2976.00           1569          42.00       160.42
 1305.68        2976.25           1573          43.00       164.78
 1305.72        2976.50           1576          45.00       173.50
 1305.75        2976.75           1579          36.00       134.26
 1305.78        2977.00           1583          39.00       147.34
 1305.81        2977.25           1586          48.00       186.57
 1305.84        2977.50           1590          41.00       156.06
 1305.87        2977.75           1593          43.00       164.78
 1305.90        2978.00           1596          39.00       147.34
 1305.93        2978.25           1600          45.00       173.50
 1305.96        2978.50           1603          43.00       164.78
 1305.99        2978.75           1606          38.00       142.98
 1306.02        2979.00           1610          38.00       142.98
 1306.05        2979.25           1613          42.00       160.42
 1306.08        2979.50           1616          40.00       151.70
 1306.12        2979.75           1620          43.00       164.78
 1306.15        2980.00           1623          42.00       160.42
 1306.18        2980.25           1626          44.00       169.14
 1306.21        2980.50           1630          40.00       151.70
 1306.24        2980.75           1633          39.00       147.34
 1306.27        2981.00           1637          39.00       147.34
 1306.30        2981.25           1640          43.00       164.78
 1306.33        2981.50           1643          40.00       151.70
 1306.36        2981.75           1647          45.00       173.50
 1306.39        2982.00           1650          39.00       147.34
 1306.42        2982.25           1653          43.00       164.78
 1306.45        2982.50           1657          48.00       186.57
 1306.48        2982.75           1660          45.00       173.50
 1306.52        2983.00           1663          46.00       177.86
 1306.55        2983.25           1667          41.00       156.06
 1306.58        2983.50           1670          41.00       156.06
 1306.61        2983.75           1673          44.00       169.14
 1306.64        2984.00           1677          39.00       147.34
HS scan finished at 21:46:51
end
