************************************************************
  HS Scan of (1) Internal mercury lamp
************************************************************
Integration time is 0.2294 seconds per sample
dh150717Manchester 53.47 2.23 2.857833pr1000
************************************************************
Dead Time -------------------------  3E-08 
Number of Cycles Used -------------  4 
Starting Wavelength (Angstroms) ---  2950 
Final Wavelength (Angstoms) -------  2984 
Wavelength Increment (Angstroms) --  .25 
Filter Wheel #1 Position ---------- (1) Ground quartz diffuser (ND=2.32)
Filter Wheel #2 Position ---------- (1) Neutral Density 0.494



************************************************************
HS scan start time = 01:31:21
Dark Count =  3.4 


Time (GMT)  Wavelength (Ang)  Step Number  Raw Counts  Counts/Second

   91.72        2950.00           1222         115.00       486.49
   91.79        2950.25           1226         114.00       482.13
   91.82        2950.50           1229         120.00       508.29
   91.85        2950.75           1232         113.00       477.77
   91.88        2951.00           1236         114.00       482.13
   91.91        2951.25           1239         116.00       490.85
   91.95        2951.50           1242         119.00       503.93
   91.98        2951.75           1246         109.00       460.34
   92.01        2952.00           1249         112.00       473.42
   92.04        2952.25           1252         108.00       455.98
   92.07        2952.50           1256         105.00       442.90
   92.10        2952.75           1259         112.00       473.42
   92.13        2953.00           1262         115.00       486.49
   92.16        2953.25           1266         117.00       495.21
   92.19        2953.50           1269         110.00       464.70
   92.22        2953.75           1272         119.00       503.93
   92.25        2954.00           1276         112.00       473.42
   92.28        2954.25           1279         113.00       477.77
   92.31        2954.50           1282         115.00       486.49
   92.35        2954.75           1286         111.00       469.06
   92.38        2955.00           1289         113.00       477.77
   92.41        2955.25           1292         113.00       477.77
   92.44        2955.50           1296         112.00       473.42
   92.47        2955.75           1299         103.00       434.18
   92.50        2956.00           1302         107.00       451.62
   92.53        2956.25           1306         104.00       438.54
   92.56        2956.50           1309         119.00       503.93
   92.59        2956.75           1312         112.00       473.42
   92.62        2957.00           1316         106.00       447.26
   92.65        2957.25           1319         112.00       473.42
   92.68        2957.50           1322         118.00       499.57
   92.72        2957.75           1326         117.00       495.21
   92.75        2958.00           1329         117.00       495.21
   92.78        2958.25           1332         114.00       482.13
   92.81        2958.50           1336         111.00       469.06
   92.84        2958.75           1339         107.00       451.62
   92.87        2959.00           1342         110.00       464.70
   92.90        2959.25           1346         117.00       495.21
   92.93        2959.50           1349         119.00       503.93
   92.96        2959.75           1352         107.00       451.62
   92.99        2960.00           1356         167.00       713.18
   93.03        2960.25           1359         187.00       800.37
   93.06        2960.50           1362         220.00       944.23
   93.09        2960.75           1366         287.00      1236.31
   93.12        2961.00           1369         317.00      1367.10
   93.15        2961.25           1372         364.00      1572.00
   93.18        2961.50           1376         452.00      1955.65
   93.21        2961.75           1379         557.00      2413.43
   93.24        2962.00           1382        1040.00      4519.36
   93.27        2962.25           1386        2741.00     11938.02
   93.30        2962.50           1389        4308.00     18775.18
   93.33        2962.75           1392        5801.00     25292.07
   93.36        2963.00           1396        7997.00     34882.17
   93.40        2963.25           1399        9612.00     41938.52
   93.43        2963.50           1402       11401.00     49758.62
   93.46        2963.75           1406       13879.00     60596.55
   93.49        2964.00           1409       15730.00     68696.79
   93.52        2964.25           1412       17415.00     76074.03
   93.55        2964.50           1416       19557.00     85456.83
   93.58        2964.75           1419       21134.00     92368.06
   93.61        2965.00           1422       23011.00    100597.80
   93.64        2965.25           1426       25369.00    110942.30
   93.67        2965.50           1429       26778.00    117126.60
   93.71        2965.75           1432       28678.00    125469.70
   93.74        2966.00           1436       30893.00    135201.20
   93.77        2966.25           1439       32592.00    142669.50
   93.80        2966.50           1442       34024.00    148966.80
   93.83        2966.75           1446       35775.00    156670.10
   93.86        2967.00           1449       36569.00    160164.40
   93.89        2967.25           1452       36579.00    160208.50
   93.92        2967.50           1456       36493.00    159829.90
   93.96        2967.75           1459       36379.00    159328.20
   93.99        2968.00           1462       36368.00    159279.80
   94.02        2968.25           1466       35685.00    156274.10
   94.05        2968.50           1469       34512.00    151113.30
   94.08        2968.75           1472       33057.00    144714.10
   94.11        2969.00           1476       30854.00    135029.80
   94.14        2969.25           1479       29163.00    127600.00
   94.17        2969.50           1482       27320.00    119506.20
   94.20        2969.75           1486       25105.00    109783.80
   94.23        2970.00           1489       23529.00    102869.70
   94.26        2970.25           1492       21822.00     95384.16
   94.29        2970.50           1496       19518.00     85285.94
   94.32        2970.75           1499       17756.00     77567.38
   94.36        2971.00           1502       16176.00     70649.15
   94.39        2971.25           1506       14064.00     61405.96
   94.42        2971.50           1509       12378.00     54030.84
   94.45        2971.75           1513       10405.00     45404.44
   94.48        2972.00           1516        8716.00     38023.29
   94.51        2972.25           1519        6998.00     30518.78
   94.54        2972.50           1523        4795.00     20900.63
   94.57        2972.75           1526        3105.00     13525.98
   94.60        2973.00           1529        1565.00      6808.72
   94.63        2973.25           1533         593.00      2570.38
   94.67        2973.50           1536         417.00      1803.06
   94.70        2973.75           1539         340.00      1467.37
   94.73        2974.00           1543         296.00      1275.55
   94.76        2974.25           1546         225.00       966.03
   94.79        2974.50           1549         178.00       761.13
   94.82        2974.75           1553         139.00       591.12
   94.85        2975.00           1556         116.00       490.85
   94.88        2975.25           1559         130.00       551.88
   94.91        2975.50           1563          97.00       408.03
   94.95        2975.75           1566         109.00       460.34
   94.98        2976.00           1569         106.00       447.26
   95.01        2976.25           1573         102.00       429.82
   95.04        2976.50           1576          94.00       394.95
   95.07        2976.75           1579          97.00       408.03
   95.10        2977.00           1583         106.00       447.26
   95.13        2977.25           1586         106.00       447.26
   95.16        2977.50           1590         105.00       442.90
   95.19        2977.75           1593         117.00       495.21
   95.22        2978.00           1596         106.00       447.26
   95.25        2978.25           1600         102.00       429.82
   95.29        2978.50           1603         105.00       442.90
   95.32        2978.75           1606         100.00       421.10
   95.35        2979.00           1610          94.00       394.95
   95.38        2979.25           1613          98.00       412.39
   95.41        2979.50           1616         105.00       442.90
   95.44        2979.75           1620          91.00       381.87
   95.47        2980.00           1623          99.00       416.74
   95.50        2980.25           1626          92.00       386.23
   95.54        2980.50           1630         107.00       451.62
   95.57        2980.75           1633          99.00       416.74
   95.60        2981.00           1637          90.00       377.51
   95.63        2981.25           1640         103.00       434.18
   95.66        2981.50           1643         104.00       438.54
   95.69        2981.75           1647         100.00       421.10
   95.72        2982.00           1650          94.00       394.95
   95.75        2982.25           1653          99.00       416.74
   95.78        2982.50           1657          92.00       386.23
   95.81        2982.75           1660          95.00       399.31
   95.84        2983.00           1663          94.00       394.95
   95.87        2983.25           1667          94.00       394.95
   95.90        2983.50           1670          94.00       394.95
   95.94        2983.75           1673         105.00       442.90
   95.97        2984.00           1677         100.00       421.10
HS scan finished at 01:36:11
end
************************************************************
  HS Scan of (1) Internal mercury lamp
************************************************************
Integration time is 0.2294 seconds per sample
dh150717Manchester 53.47 2.23 3.072425pr1000
************************************************************
Dead Time -------------------------  3E-08 
Number of Cycles Used -------------  4 
Starting Wavelength (Angstroms) ---  2950 
Final Wavelength (Angstoms) -------  2984 
Wavelength Increment (Angstroms) --  .25 
Filter Wheel #1 Position ---------- (1) Ground quartz diffuser (ND=2.32)
Filter Wheel #2 Position ---------- (1) Neutral Density 0.494



************************************************************
HS scan start time = 21:42:02
Dark Count =  6.2 


Time (GMT)  Wavelength (Ang)  Step Number  Raw Counts  Counts/Second

 1302.41        2950.00           1222         112.00       461.21
 1302.48        2950.25           1226         111.00       456.85
 1302.51        2950.50           1229         120.00       496.08
 1302.54        2950.75           1232         116.00       478.65
 1302.57        2951.00           1236         111.00       456.85
 1302.60        2951.25           1239         112.00       461.21
 1302.63        2951.50           1242         111.00       456.85
 1302.66        2951.75           1246         118.00       487.37
 1302.69        2952.00           1249         116.00       478.65
 1302.72        2952.25           1252         113.00       465.57
 1302.75        2952.50           1256         120.00       496.08
 1302.79        2952.75           1259         119.00       491.72
 1302.82        2953.00           1262         123.00       509.16
 1302.85        2953.25           1266         111.00       456.85
 1302.88        2953.50           1269         110.00       452.49
 1302.91        2953.75           1272         110.00       452.49
 1302.94        2954.00           1276         110.00       452.49
 1302.97        2954.25           1279         109.00       448.13
 1303.00        2954.50           1282         116.00       478.65
 1303.03        2954.75           1286         114.00       469.93
 1303.06        2955.00           1289         110.00       452.49
 1303.09        2955.25           1292         118.00       487.37
 1303.13        2955.50           1296         107.00       439.41
 1303.16        2955.75           1299         108.00       443.77
 1303.19        2956.00           1302         106.00       435.05
 1303.22        2956.25           1306         106.00       435.05
 1303.25        2956.50           1309         101.00       413.26
 1303.28        2956.75           1312         111.00       456.85
 1303.31        2957.00           1316         101.00       413.26
 1303.34        2957.25           1319         105.00       430.69
 1303.37        2957.50           1322         112.00       461.21
 1303.40        2957.75           1326         106.00       435.05
 1303.43        2958.00           1329         110.00       452.49
 1303.46        2958.25           1332         103.00       421.98
 1303.50        2958.50           1336          91.00       369.66
 1303.53        2958.75           1339         108.00       443.77
 1303.56        2959.00           1342         108.00       443.77
 1303.59        2959.25           1346         104.00       426.34
 1303.62        2959.50           1349         124.00       513.52
 1303.65        2959.75           1352         146.00       609.43
 1303.68        2960.00           1356         190.00       801.24
 1303.71        2960.25           1359         217.00       918.94
 1303.74        2960.50           1362         264.00      1123.84
 1303.78        2960.75           1366         339.00      1450.80
 1303.81        2961.00           1369         406.00      1742.90
 1303.84        2961.25           1372         443.00      1904.21
 1303.87        2961.50           1376         534.00      2300.94
 1303.90        2961.75           1379         748.00      3233.97
 1303.93        2962.00           1382        1595.00      6927.33
 1303.96        2962.25           1386        3821.00     16637.77
 1303.99        2962.50           1389        5594.00     24376.15
 1304.02        2962.75           1392        7435.00     32415.11
 1304.05        2963.00           1396        9774.00     42634.27
 1304.09        2963.25           1399       11629.00     50743.28
 1304.12        2963.50           1402       13509.00     58965.60
 1304.15        2963.75           1406       16102.00     70312.95
 1304.18        2964.00           1409       17975.00     78514.28
 1304.21        2964.25           1412       20177.00     88161.38
 1304.24        2964.50           1416       22688.00     99169.06
 1304.27        2964.75           1419       24319.00    106322.90
 1304.30        2965.00           1422       26283.00    114941.50
 1304.33        2965.25           1426       28741.00    125734.10
 1304.37        2965.50           1429       30565.00    133747.40
 1304.40        2965.75           1432       32504.00    142270.30
 1304.43        2966.00           1436       34855.00    152609.90
 1304.46        2966.25           1439       36632.00    160429.40
 1304.49        2966.50           1442       38726.00    169648.50
 1304.52        2966.75           1446       40310.00    176625.70
 1304.55        2967.00           1449       40975.00    179555.70
 1304.58        2967.25           1452       40728.00    178467.40
 1304.61        2967.50           1456       40897.00    179212.00
 1304.64        2967.75           1459       40829.00    178912.40
 1304.68        2968.00           1462       40593.00    177872.60
 1304.71        2968.25           1466       39426.00    172731.50
 1304.74        2968.50           1469       37870.00    165879.20
 1304.77        2968.75           1472       36058.00    157903.20
 1304.80        2969.00           1476       33603.00    147102.90
 1304.83        2969.25           1479       31559.00    138116.00
 1304.86        2969.50           1482       29708.00    129981.90
 1304.89        2969.75           1486       27013.00    118146.00
 1304.92        2970.00           1489       25247.00    110394.70
 1304.96        2970.25           1492       23457.00    102541.60
 1304.99        2970.50           1496       20975.00     91658.84
 1305.02        2970.75           1499       19185.00     83814.66
 1305.05        2971.00           1502       17357.00     75807.78
 1305.08        2971.25           1506       14781.00     64531.09
 1305.11        2971.50           1509       13015.00     56804.66
 1305.14        2971.75           1513       10409.00     45409.69
 1305.17        2972.00           1516        8529.00     37194.05
 1305.20        2972.25           1519        6667.00     29061.07
 1305.24        2972.50           1523        4259.00     18549.12
 1305.27        2972.75           1526        2554.00     11110.07
 1305.30        2973.00           1529        1184.00      5135.05
 1305.33        2973.25           1533         515.00      2218.11
 1305.36        2973.50           1536         404.00      1734.18
 1305.39        2973.75           1539         331.00      1415.93
 1305.42        2974.00           1543         293.00      1250.26
 1305.45        2974.25           1546         216.00       914.58
 1305.48        2974.50           1549         181.00       762.01
 1305.51        2974.75           1553         128.00       530.96
 1305.55        2975.00           1556         113.00       465.57
 1305.58        2975.25           1559         111.00       456.85
 1305.61        2975.50           1563          95.00       387.10
 1305.64        2975.75           1566          96.00       391.46
 1305.67        2976.00           1569         108.00       443.77
 1305.70        2976.25           1573         102.00       417.62
 1305.73        2976.50           1576          99.00       404.54
 1305.76        2976.75           1579         106.00       435.05
 1305.79        2977.00           1583          98.00       400.18
 1305.82        2977.25           1586          99.00       404.54
 1305.86        2977.50           1590          92.00       374.02
 1305.89        2977.75           1593          92.00       374.02
 1305.92        2978.00           1596         104.00       426.34
 1305.95        2978.25           1600          94.00       382.74
 1305.98        2978.50           1603          96.00       391.46
 1306.01        2978.75           1606          96.00       391.46
 1306.04        2979.00           1610          90.00       365.30
 1306.07        2979.25           1613         109.00       448.13
 1306.10        2979.50           1616          93.00       378.38
 1306.13        2979.75           1620          94.00       382.74
 1306.16        2980.00           1623         108.00       443.77
 1306.20        2980.25           1626         100.00       408.90
 1306.23        2980.50           1630          93.00       378.38
 1306.26        2980.75           1633          90.00       365.30
 1306.29        2981.00           1637          94.00       382.74
 1306.32        2981.25           1640         100.00       408.90
 1306.35        2981.50           1643          97.00       395.82
 1306.38        2981.75           1647          95.00       387.10
 1306.41        2982.00           1650          97.00       395.82
 1306.44        2982.25           1653          99.00       404.54
 1306.47        2982.50           1657          88.00       356.59
 1306.50        2982.75           1660         107.00       439.41
 1306.53        2983.00           1663          97.00       395.82
 1306.57        2983.25           1667          89.00       360.95
 1306.60        2983.50           1670          87.00       352.23
 1306.63        2983.75           1673          90.00       365.30
 1306.66        2984.00           1677          91.00       369.66
HS scan finished at 21:46:52
end
