************************************************************
  HS Scan of (1) Internal mercury lamp
************************************************************
Integration time is 0.2294 seconds per sample
dh130717Manchester 53.47 2.23 2.857833pr1000
************************************************************
Dead Time -------------------------  3E-08 
Number of Cycles Used -------------  4 
Starting Wavelength (Angstroms) ---  2950 
Final Wavelength (Angstoms) -------  2984 
Wavelength Increment (Angstroms) --  .25 
Filter Wheel #1 Position ---------- (1) Ground quartz diffuser (ND=2.32)
Filter Wheel #2 Position ---------- (1) Neutral Density 0.494



************************************************************
HS scan start time = 01:38:29
Dark Count =  5 


Time (GMT)  Wavelength (Ang)  Step Number  Raw Counts  Counts/Second

   98.85        2950.00           1222         107.00       444.64
   98.92        2950.25           1226         123.00       514.39
   98.95        2950.50           1229         118.00       492.60
   98.98        2950.75           1232         121.00       505.67
   99.01        2951.00           1236         126.00       527.47
   99.04        2951.25           1239         119.00       496.96
   99.07        2951.50           1242         113.00       470.80
   99.10        2951.75           1246         124.00       518.75
   99.13        2952.00           1249         134.00       562.35
   99.17        2952.25           1252         121.00       505.67
   99.20        2952.50           1256         109.00       453.36
   99.23        2952.75           1259         126.00       527.47
   99.26        2953.00           1262         117.00       488.24
   99.29        2953.25           1266         124.00       518.75
   99.32        2953.50           1269         116.00       483.88
   99.35        2953.75           1272         130.00       544.91
   99.38        2954.00           1276         118.00       492.60
   99.41        2954.25           1279         131.00       549.27
   99.44        2954.50           1282         115.00       479.52
   99.47        2954.75           1286         116.00       483.88
   99.51        2955.00           1289         118.00       492.60
   99.54        2955.25           1292         115.00       479.52
   99.57        2955.50           1296         114.00       475.16
   99.60        2955.75           1299         121.00       505.67
   99.63        2956.00           1302         117.00       488.24
   99.66        2956.25           1306         122.00       510.03
   99.69        2956.50           1309         122.00       510.03
   99.72        2956.75           1312         114.00       475.16
   99.75        2957.00           1316         121.00       505.67
   99.78        2957.25           1319         124.00       518.75
   99.81        2957.50           1322         116.00       483.88
   99.85        2957.75           1326         127.00       531.83
   99.88        2958.00           1329         124.00       518.75
   99.91        2958.25           1332         114.00       475.16
   99.94        2958.50           1336         117.00       488.24
   99.97        2958.75           1339         116.00       483.88
  100.00        2959.00           1342         114.00       475.16
  100.03        2959.25           1346         124.00       518.75
  100.06        2959.50           1349         132.00       553.63
  100.09        2959.75           1352         138.00       579.78
  100.13        2960.00           1356         185.00       784.67
  100.16        2960.25           1359         218.00       928.54
  100.19        2960.50           1362         257.00      1098.55
  100.22        2960.75           1366         315.00      1351.41
  100.25        2961.00           1369         353.00      1517.07
  100.28        2961.25           1372         389.00      1674.02
  100.31        2961.50           1376         554.00      2393.37
  100.34        2961.75           1379         996.00      4320.53
  100.37        2962.00           1382        2074.00      9021.62
  100.40        2962.25           1386        4235.00     18449.62
  100.43        2962.50           1389        5955.00     25957.43
  100.47        2962.75           1392        7533.00     32848.40
  100.50        2963.00           1396        9683.00     42241.82
  100.53        2963.25           1399       11376.00     49642.32
  100.56        2963.50           1402       13003.00     56757.42
  100.59        2963.75           1406       15203.00     66383.16
  100.62        2964.00           1409       16977.00     74149.07
  100.65        2964.25           1412       18795.00     82111.35
  100.68        2964.50           1416       21077.00     92111.21
  100.71        2964.75           1419       22823.00     99766.34
  100.74        2965.00           1422       24605.00    107582.90
  100.77        2965.25           1426       26840.00    117391.80
  100.81        2965.50           1429       28476.00    124575.40
  100.84        2965.75           1432       30144.00    131902.80
  100.87        2966.00           1436       32491.00    142218.40
  100.90        2966.25           1439       34057.00    149104.90
  100.93        2966.50           1442       35334.00    154722.60
  100.96        2966.75           1446       36354.00    159211.10
  100.99        2967.00           1449       36366.00    159263.90
  101.02        2967.25           1452       36474.00    159739.30
  101.05        2967.50           1456       36529.00    159981.30
  101.08        2967.75           1459       36193.00    158502.60
  101.12        2968.00           1462       35869.00    157076.70
  101.15        2968.25           1466       34328.00    150296.90
  101.18        2968.50           1469       32674.00    143023.00
  101.21        2968.75           1472       31207.00    136574.10
  101.24        2969.00           1476       29029.00    127004.40
  101.27        2969.25           1479       27531.00    120425.60
  101.30        2969.50           1482       25888.00    113213.00
  101.33        2969.75           1486       23609.00    103213.60
  101.36        2970.00           1489       21867.00     95574.44
  101.39        2970.25           1492       20171.00     88140.34
  101.42        2970.50           1496       18041.00     78808.60
  101.46        2970.75           1499       16282.00     71106.19
  101.49        2971.00           1502       14555.00     63547.36
  101.52        2971.25           1506       12250.00     53464.06
  101.55        2971.50           1509       10411.00     45423.67
  101.58        2971.75           1513        8158.00     35578.50
  101.61        2972.00           1516        6700.00     29210.42
  101.64        2972.25           1519        5027.00     21906.29
  101.67        2972.50           1523        2911.00     12672.65
  101.70        2972.75           1526        1578.00      6858.43
  101.73        2973.00           1529         728.00      3152.00
  101.76        2973.25           1533         461.00      1987.91
  101.80        2973.50           1536         386.00      1660.94
  101.83        2973.75           1539         334.00      1434.24
  101.86        2974.00           1543         283.00      1211.90
  101.89        2974.25           1546         218.00       928.54
  101.92        2974.50           1549         187.00       793.39
  101.95        2974.75           1553         148.00       623.38
  101.98        2975.00           1556         124.00       518.75
  102.01        2975.25           1559         113.00       470.80
  102.04        2975.50           1563         112.00       466.44
  102.07        2975.75           1566         105.00       435.93
  102.10        2976.00           1569          99.00       409.77
  102.13        2976.25           1573         110.00       457.72
  102.17        2976.50           1576         110.00       457.72
  102.20        2976.75           1579         117.00       488.24
  102.23        2977.00           1583         106.00       440.28
  102.26        2977.25           1586         103.00       427.21
  102.29        2977.50           1590          99.00       409.77
  102.32        2977.75           1593         109.00       453.36
  102.35        2978.00           1596         101.00       418.49
  102.38        2978.25           1600         104.00       431.57
  102.41        2978.50           1603         103.00       427.21
  102.44        2978.75           1606         108.00       449.00
  102.47        2979.00           1610         103.00       427.21
  102.51        2979.25           1613         108.00       449.00
  102.54        2979.50           1616         108.00       449.00
  102.57        2979.75           1620         106.00       440.28
  102.60        2980.00           1623         102.00       422.85
  102.63        2980.25           1626         109.00       453.36
  102.66        2980.50           1630         104.00       431.57
  102.69        2980.75           1633         106.00       440.28
  102.72        2981.00           1637         105.00       435.93
  102.75        2981.25           1640         120.00       501.32
  102.78        2981.50           1643          99.00       409.77
  102.81        2981.75           1647          99.00       409.77
  102.85        2982.00           1650         116.00       483.88
  102.88        2982.25           1653         100.00       414.13
  102.91        2982.50           1657         102.00       422.85
  102.94        2982.75           1660          94.00       387.97
  102.97        2983.00           1663         103.00       427.21
  103.00        2983.25           1667         100.00       414.13
  103.03        2983.50           1670          98.00       405.41
  103.06        2983.75           1673          90.00       370.54
  103.09        2984.00           1677         103.00       427.21
HS scan finished at 01:43:18
end
************************************************************
  HS Scan of (1) Internal mercury lamp
************************************************************
Integration time is 0.2294 seconds per sample
dh130717Manchester 53.47 2.23 2.965129pr1000
************************************************************
Dead Time -------------------------  3E-08 
Number of Cycles Used -------------  4 
Starting Wavelength (Angstroms) ---  2950 
Final Wavelength (Angstoms) -------  2984 
Wavelength Increment (Angstroms) --  .25 
Filter Wheel #1 Position ---------- (1) Ground quartz diffuser (ND=2.32)
Filter Wheel #2 Position ---------- (1) Neutral Density 0.494



************************************************************
HS scan start time = 21:42:01
Dark Count =  6.4 


Time (GMT)  Wavelength (Ang)  Step Number  Raw Counts  Counts/Second

 1302.39        2950.00           1222         121.00       499.57
 1302.46        2950.25           1226         115.00       473.42
 1302.49        2950.50           1229         123.00       508.29
 1302.52        2950.75           1232         118.00       486.49
 1302.55        2951.00           1236         123.00       508.29
 1302.58        2951.25           1239         116.00       477.77
 1302.61        2951.50           1242         112.00       460.34
 1302.64        2951.75           1246         122.00       503.93
 1302.67        2952.00           1249         118.00       486.49
 1302.70        2952.25           1252         125.00       517.01
 1302.73        2952.50           1256         113.00       464.70
 1302.76        2952.75           1259         113.00       464.70
 1302.80        2953.00           1262         114.00       469.06
 1302.83        2953.25           1266         120.00       495.21
 1302.86        2953.50           1269         115.00       473.42
 1302.89        2953.75           1272         116.00       477.77
 1302.92        2954.00           1276         122.00       503.93
 1302.95        2954.25           1279         117.00       482.13
 1302.98        2954.50           1282         121.00       499.57
 1303.01        2954.75           1286         115.00       473.42
 1303.04        2955.00           1289         123.00       508.29
 1303.07        2955.25           1292         115.00       473.42
 1303.10        2955.50           1296         108.00       442.90
 1303.13        2955.75           1299         128.00       530.09
 1303.16        2956.00           1302         107.00       438.54
 1303.19        2956.25           1306         119.00       490.85
 1303.22        2956.50           1309         105.00       429.82
 1303.26        2956.75           1312         133.00       551.88
 1303.29        2957.00           1316         116.00       477.77
 1303.32        2957.25           1319         129.00       534.45
 1303.35        2957.50           1322         116.00       477.77
 1303.38        2957.75           1326         119.00       490.85
 1303.41        2958.00           1329         111.00       455.98
 1303.44        2958.25           1332         116.00       477.77
 1303.47        2958.50           1336         125.00       517.01
 1303.50        2958.75           1339         110.00       451.62
 1303.53        2959.00           1342         116.00       477.77
 1303.56        2959.25           1346         125.00       517.01
 1303.59        2959.50           1349         129.00       534.45
 1303.62        2959.75           1352         154.00       643.43
 1303.65        2960.00           1356         187.00       787.29
 1303.68        2960.25           1359         196.00       826.52
 1303.72        2960.50           1362         260.00      1105.53
 1303.75        2960.75           1366         327.00      1397.62
 1303.78        2961.00           1369         357.00      1528.41
 1303.81        2961.25           1372         439.00      1885.90
 1303.84        2961.50           1376         500.00      2151.84
 1303.87        2961.75           1379         708.00      3058.69
 1303.90        2962.00           1382        1476.00      6407.51
 1303.93        2962.25           1386        3570.00     15541.68
 1303.96        2962.50           1389        5247.00     22860.49
 1303.99        2962.75           1392        6849.00     29854.98
 1304.03        2963.00           1396        9119.00     39771.05
 1304.06        2963.25           1399       10893.00     47524.55
 1304.09        2963.50           1402       12643.00     55176.70
 1304.12        2963.75           1406       15128.00     66048.79
 1304.15        2964.00           1409       16923.00     73906.50
 1304.18        2964.25           1412       18770.00     81995.70
 1304.21        2964.50           1416       21311.00     93130.81
 1304.24        2964.75           1419       23138.00    101141.70
 1304.27        2965.00           1422       25000.00    109309.90
 1304.31        2965.25           1426       27121.00    118619.30
 1304.34        2965.50           1429       29104.00    127327.60
 1304.37        2965.75           1432       30776.00    134673.80
 1304.40        2966.00           1436       32973.00    144331.50
 1304.43        2966.25           1439       34678.00    151830.40
 1304.46        2966.50           1442       36512.00    159900.40
 1304.49        2966.75           1446       38252.00    167560.30
 1304.52        2967.00           1449       38736.00    169691.70
 1304.55        2967.25           1452       38807.00    170004.30
 1304.59        2967.50           1456       38676.00    169427.40
 1304.62        2967.75           1459       38744.00    169726.90
 1304.65        2968.00           1462       38656.00    169339.40
 1304.68        2968.25           1466       37379.00    163716.70
 1304.71        2968.50           1469       36035.00    157801.10
 1304.74        2968.75           1472       34351.00    150391.90
 1304.77        2969.00           1476       32074.00    140379.00
 1304.80        2969.25           1479       30356.00    132828.20
 1304.83        2969.50           1482       28475.00    124564.90
 1304.86        2969.75           1486       26069.00    114001.30
 1304.89        2970.00           1489       24207.00    105830.70
 1304.92        2970.25           1492       22398.00     97896.51
 1304.95        2970.50           1496       20186.00     88199.94
 1304.98        2970.75           1499       18267.00     79792.35
 1305.01        2971.00           1502       16525.00     72163.90
 1305.05        2971.25           1506       14237.00     62149.77
 1305.08        2971.50           1509       12421.00     54205.78
 1305.11        2971.75           1513       10209.00     44534.62
 1305.14        2972.00           1516        8402.00     36638.33
 1305.17        2972.25           1519        6645.00     28964.13
 1305.20        2972.50           1523        4195.00     18268.95
 1305.23        2972.75           1526        2476.00     10768.96
 1305.26        2973.00           1529        1083.00      4693.77
 1305.29        2973.25           1533         521.00      2243.39
 1305.32        2973.50           1536         412.00      1768.18
 1305.35        2973.75           1539         354.00      1515.33
 1305.38        2974.00           1543         294.00      1253.75
 1305.42        2974.25           1546         232.00       983.46
 1305.45        2974.50           1549         173.00       726.26
 1305.48        2974.75           1553         142.00       591.12
 1305.51        2975.00           1556         122.00       503.93
 1305.54        2975.25           1559         120.00       495.21
 1305.57        2975.50           1563         101.00       412.39
 1305.60        2975.75           1566         112.00       460.34
 1305.63        2976.00           1569         118.00       486.49
 1305.66        2976.25           1573         106.00       434.18
 1305.69        2976.50           1576         107.00       438.54
 1305.72        2976.75           1579          97.00       394.95
 1305.75        2977.00           1583          86.00       347.00
 1305.78        2977.25           1586          96.00       390.59
 1305.81        2977.50           1590         106.00       434.18
 1305.84        2977.75           1593         100.00       408.03
 1305.87        2978.00           1596         109.00       447.26
 1305.91        2978.25           1600         102.00       416.74
 1305.94        2978.50           1603         105.00       429.82
 1305.97        2978.75           1606         112.00       460.34
 1306.00        2979.00           1610         107.00       438.54
 1306.03        2979.25           1613         101.00       412.39
 1306.06        2979.50           1616          94.00       381.87
 1306.09        2979.75           1620          91.00       368.79
 1306.12        2980.00           1623         100.00       408.03
 1306.15        2980.25           1626         111.00       455.98
 1306.18        2980.50           1630          97.00       394.95
 1306.21        2980.75           1633         104.00       425.46
 1306.24        2981.00           1637          98.00       399.31
 1306.28        2981.25           1640         102.00       416.74
 1306.31        2981.50           1643          99.00       403.67
 1306.34        2981.75           1647          98.00       399.31
 1306.37        2982.00           1650         111.00       455.98
 1306.40        2982.25           1653          91.00       368.79
 1306.43        2982.50           1657          95.00       386.23
 1306.46        2982.75           1660          97.00       394.95
 1306.49        2983.00           1663         102.00       416.74
 1306.52        2983.25           1667          93.00       377.51
 1306.55        2983.50           1670          95.00       386.23
 1306.59        2983.75           1673         109.00       447.26
 1306.62        2984.00           1677          93.00       377.51
HS scan finished at 21:46:50
end
