************************************************************
  HS Scan of (1) Internal mercury lamp
************************************************************
Integration time is 0.2294 seconds per sample
dh090717Manchester 53.47 2.23 2.857833pr1000
************************************************************
Dead Time -------------------------  3E-08 
Number of Cycles Used -------------  4 
Starting Wavelength (Angstroms) ---  2950 
Final Wavelength (Angstoms) -------  2984 
Wavelength Increment (Angstroms) --  .25 
Filter Wheel #1 Position ---------- (1) Ground quartz diffuser (ND=2.32)
Filter Wheel #2 Position ---------- (1) Neutral Density 0.494



************************************************************
HS scan start time = 01:42:08
Dark Count =  6.2 


Time (GMT)  Wavelength (Ang)  Step Number  Raw Counts  Counts/Second

  102.51        2950.00           1222          43.00       160.42
  102.58        2950.25           1226          39.00       142.98
  102.61        2950.50           1229          44.00       164.78
  102.64        2950.75           1232          40.00       147.34
  102.67        2951.00           1236          42.00       156.06
  102.70        2951.25           1239          42.00       156.06
  102.73        2951.50           1242          42.00       156.06
  102.76        2951.75           1246          44.00       164.78
  102.79        2952.00           1249          41.00       151.70
  102.82        2952.25           1252          40.00       147.34
  102.85        2952.50           1256          50.00       190.93
  102.88        2952.75           1259          50.00       190.93
  102.91        2953.00           1262          43.00       160.42
  102.95        2953.25           1266          42.00       156.06
  102.98        2953.50           1269          43.00       160.42
  103.01        2953.75           1272          47.00       177.86
  103.04        2954.00           1276          40.00       147.34
  103.07        2954.25           1279          38.00       138.62
  103.10        2954.50           1282          41.00       151.70
  103.13        2954.75           1286          44.00       164.78
  103.16        2955.00           1289          37.00       134.26
  103.19        2955.25           1292          53.00       204.01
  103.22        2955.50           1296          43.00       160.42
  103.25        2955.75           1299          41.00       151.70
  103.29        2956.00           1302          38.00       138.62
  103.32        2956.25           1306          41.00       151.70
  103.35        2956.50           1309          45.00       169.14
  103.38        2956.75           1312          45.00       169.14
  103.41        2957.00           1316          42.00       156.06
  103.44        2957.25           1319          46.00       173.50
  103.47        2957.50           1322          41.00       151.70
  103.50        2957.75           1326          44.00       164.78
  103.53        2958.00           1329          49.00       186.57
  103.57        2958.25           1332          44.00       164.78
  103.60        2958.50           1336          40.00       147.34
  103.63        2958.75           1339          44.00       164.78
  103.66        2959.00           1342          42.00       156.06
  103.69        2959.25           1346          43.00       160.42
  103.72        2959.50           1349          44.00       164.78
  103.75        2959.75           1352          59.00       230.17
  103.78        2960.00           1356          99.00       404.54
  103.81        2960.25           1359         127.00       526.60
  103.84        2960.50           1362         156.00       653.02
  103.87        2960.75           1366         221.00       936.38
  103.91        2961.00           1369         250.00      1062.81
  103.94        2961.25           1372         306.00      1306.94
  103.97        2961.50           1376         380.00      1629.55
  104.00        2961.75           1379         551.00      2375.06
  104.03        2962.00           1382        1031.00      4467.91
  104.06        2962.25           1386        2563.00     11149.33
  104.09        2962.50           1389        4202.00     18300.37
  104.12        2962.75           1392        5668.00     24699.20
  104.15        2963.00           1396        7875.00     34337.01
  104.18        2963.25           1399        9457.00     41248.92
  104.22        2963.50           1402       11277.00     49204.23
  104.25        2963.75           1406       13641.00     59543.06
  104.28        2964.00           1409       15273.00     66684.27
  104.31        2964.25           1412       17156.00     74927.61
  104.34        2964.50           1416       19275.00     84208.99
  104.37        2964.75           1419       20881.00     91246.82
  104.40        2965.00           1422       22665.00     99068.19
  104.43        2965.25           1426       24958.00    109126.50
  104.46        2965.50           1429       26500.00    115894.00
  104.49        2965.75           1432       28187.00    123300.90
  104.53        2966.00           1436       30504.00    133479.40
  104.56        2966.25           1439       32168.00    140793.10
  104.59        2966.50           1442       33906.00    148435.50
  104.62        2966.75           1446       35275.00    154457.80
  104.65        2967.00           1449       36023.00    157749.10
  104.68        2967.25           1452       36046.00    157850.40
  104.71        2967.50           1456       36243.00    158717.30
  104.74        2967.75           1459       36047.00    157854.80
  104.77        2968.00           1462       35921.00    157300.30
  104.80        2968.25           1466       35178.00    154031.00
  104.84        2968.50           1469       34183.00    149653.80
  104.87        2968.75           1472       32608.00    142727.50
  104.90        2969.00           1476       30517.00    133536.50
  104.93        2969.25           1479       28747.00    125760.40
  104.96        2969.50           1482       26997.00    118075.80
  104.99        2969.75           1486       24798.00    108424.50
  105.02        2970.00           1489       23096.00    100958.30
  105.05        2970.25           1492       21483.00     93885.69
  105.08        2970.50           1496       19191.00     83840.96
  105.11        2970.75           1499       17582.00     76793.11
  105.15        2971.00           1502       16084.00     70234.15
  105.18        2971.25           1506       13824.00     60343.67
  105.21        2971.50           1509       12222.00     53336.37
  105.24        2971.75           1513        9986.00     43560.82
  105.27        2972.00           1516        8419.00     36713.47
  105.30        2972.25           1519        6758.00     29458.46
  105.33        2972.50           1523        4525.00     19710.00
  105.36        2972.75           1526        2925.00     12728.49
  105.39        2973.00           1529        1606.00      6975.31
  105.43        2973.25           1533         523.00      2252.99
  105.46        2973.50           1536         361.00      1546.72
  105.49        2973.75           1539         280.00      1193.59
  105.52        2974.00           1543         243.00      1032.29
  105.55        2974.25           1546         167.00       700.97
  105.58        2974.50           1549         112.00       461.21
  105.61        2974.75           1553          79.00       317.35
  105.64        2975.00           1556          66.00       260.68
  105.67        2975.25           1559          58.00       225.81
  105.70        2975.50           1563          43.00       160.42
  105.73        2975.75           1566          42.00       156.06
  105.76        2976.00           1569          46.00       173.50
  105.79        2976.25           1573          43.00       160.42
  105.82        2976.50           1576          45.00       169.14
  105.86        2976.75           1579          34.00       121.19
  105.89        2977.00           1583          40.00       147.34
  105.92        2977.25           1586          54.00       208.37
  105.95        2977.50           1590          43.00       160.42
  105.98        2977.75           1593          44.00       164.78
  106.01        2978.00           1596          56.00       217.09
  106.04        2978.25           1600          42.00       156.06
  106.07        2978.50           1603          42.00       156.06
  106.10        2978.75           1606          44.00       164.78
  106.13        2979.00           1610          40.00       147.34
  106.16        2979.25           1613          45.00       169.14
  106.20        2979.50           1616          38.00       138.62
  106.23        2979.75           1620          43.00       160.42
  106.26        2980.00           1623          43.00       160.42
  106.29        2980.25           1626          47.00       177.86
  106.32        2980.50           1630          44.00       164.78
  106.35        2980.75           1633          42.00       156.06
  106.38        2981.00           1637          42.00       156.06
  106.41        2981.25           1640          41.00       151.70
  106.44        2981.50           1643          43.00       160.42
  106.47        2981.75           1647          38.00       138.62
  106.50        2982.00           1650          49.00       186.57
  106.53        2982.25           1653          39.00       142.98
  106.57        2982.50           1657          41.00       151.70
  106.60        2982.75           1660          45.00       169.14
  106.63        2983.00           1663          44.00       164.78
  106.66        2983.25           1667          39.00       142.98
  106.69        2983.50           1670          43.00       160.42
  106.72        2983.75           1673          47.00       177.86
  106.75        2984.00           1677          50.00       190.93
HS scan finished at 01:46:58
end
************************************************************
  HS Scan of (1) Internal mercury lamp
************************************************************
Integration time is 0.2294 seconds per sample
dh090717Manchester 53.47 2.23 2.965129pr1000
************************************************************
Dead Time -------------------------  3E-08 
Number of Cycles Used -------------  4 
Starting Wavelength (Angstroms) ---  2950 
Final Wavelength (Angstoms) -------  2984 
Wavelength Increment (Angstroms) --  .25 
Filter Wheel #1 Position ---------- (1) Ground quartz diffuser (ND=2.32)
Filter Wheel #2 Position ---------- (1) Neutral Density 0.494



************************************************************
HS scan start time = 21:42:03
Dark Count =  7.9 


Time (GMT)  Wavelength (Ang)  Step Number  Raw Counts  Counts/Second

 1302.42        2950.00           1222          40.00       139.93
 1302.49        2950.25           1226          43.00       153.01
 1302.52        2950.50           1229          43.00       153.01
 1302.55        2950.75           1232          41.00       144.29
 1302.58        2951.00           1236          43.00       153.01
 1302.61        2951.25           1239          41.00       144.29
 1302.64        2951.50           1242          46.00       166.09
 1302.67        2951.75           1246          48.00       174.80
 1302.70        2952.00           1249          40.00       139.93
 1302.73        2952.25           1252          40.00       139.93
 1302.77        2952.50           1256          40.00       139.93
 1302.80        2952.75           1259          44.00       157.37
 1302.83        2953.00           1262          43.00       153.01
 1302.86        2953.25           1266          49.00       179.16
 1302.89        2953.50           1269          40.00       139.93
 1302.92        2953.75           1272          36.00       122.49
 1302.95        2954.00           1276          46.00       166.09
 1302.98        2954.25           1279          44.00       157.37
 1303.01        2954.50           1282          39.00       135.57
 1303.04        2954.75           1286          44.00       157.37
 1303.07        2955.00           1289          40.00       139.93
 1303.10        2955.25           1292          44.00       157.37
 1303.13        2955.50           1296          42.00       148.65
 1303.17        2955.75           1299          49.00       179.16
 1303.20        2956.00           1302          44.00       157.37
 1303.23        2956.25           1306          39.00       135.57
 1303.26        2956.50           1309          41.00       144.29
 1303.29        2956.75           1312          42.00       148.65
 1303.32        2957.00           1316          40.00       139.93
 1303.35        2957.25           1319          35.00       118.13
 1303.38        2957.50           1322          43.00       153.01
 1303.41        2957.75           1326          44.00       157.37
 1303.44        2958.00           1329          44.00       157.37
 1303.47        2958.25           1332          43.00       153.01
 1303.51        2958.50           1336          37.00       126.85
 1303.54        2958.75           1339          36.00       122.49
 1303.57        2959.00           1342          37.00       126.85
 1303.60        2959.25           1346          49.00       179.16
 1303.63        2959.50           1349          56.00       209.68
 1303.66        2959.75           1352          83.00       327.38
 1303.69        2960.00           1356         117.00       475.60
 1303.72        2960.25           1359         134.00       549.70
 1303.75        2960.50           1362         200.00       837.42
 1303.78        2960.75           1366         253.00      1068.47
 1303.81        2961.00           1369         303.00      1286.45
 1303.84        2961.25           1372         336.00      1430.31
 1303.88        2961.50           1376         417.00      1783.44
 1303.91        2961.75           1379         561.00      2411.25
 1303.94        2962.00           1382        1036.00      4482.29
 1303.97        2962.25           1386        2648.00     11512.69
 1304.00        2962.50           1389        4324.00     18825.36
 1304.03        2962.75           1392        5927.00     25822.53
 1304.06        2963.00           1396        8158.00     35565.83
 1304.09        2963.25           1399        9958.00     43431.01
 1304.12        2963.50           1402       11689.00     50998.19
 1304.16        2963.75           1406       14227.00     62099.45
 1304.19        2964.00           1409       16198.00     70725.76
 1304.22        2964.25           1412       18200.00     79492.31
 1304.25        2964.50           1416       20459.00     89389.79
 1304.28        2964.75           1419       22129.00     96710.43
 1304.31        2965.00           1422       23885.00    104411.60
 1304.34        2965.25           1426       26432.00    115588.00
 1304.37        2965.50           1429       28142.00    123095.90
 1304.40        2965.75           1432       30001.00    131261.70
 1304.43        2966.00           1436       32279.00    141273.60
 1304.46        2966.25           1439       33955.00    148643.50
 1304.50        2966.50           1442       35665.00    156166.30
 1304.53        2966.75           1446       37409.00    163842.20
 1304.56        2967.00           1449       38170.00    167192.70
 1304.59        2967.25           1452       38356.00    168011.70
 1304.62        2967.50           1456       38541.00    168826.30
 1304.65        2967.75           1459       38439.00    168377.20
 1304.68        2968.00           1462       38247.00    167531.70
 1304.71        2968.25           1466       37500.00    164242.80
 1304.74        2968.50           1469       36175.00    158410.60
 1304.77        2968.75           1472       34684.00    151850.20
 1304.81        2969.00           1476       32424.00    141911.10
 1304.84        2969.25           1479       30513.00    133511.50
 1304.87        2969.50           1482       28778.00    125889.10
 1304.90        2969.75           1486       26288.00    114955.90
 1304.93        2970.00           1489       24619.00    107631.60
 1304.96        2970.25           1492       22842.00     99836.93
 1304.99        2970.50           1496       20607.00     90038.44
 1305.02        2970.75           1499       18752.00     81910.28
 1305.05        2971.00           1502       17003.00     74250.22
 1305.09        2971.25           1506       14706.00     64195.44
 1305.12        2971.50           1509       12922.00     56390.43
 1305.15        2971.75           1513       10664.00     46516.92
 1305.18        2972.00           1516        8949.00     39021.68
 1305.21        2972.25           1519        7156.00     31189.16
 1305.24        2972.50           1523        4913.00     21396.03
 1305.27        2972.75           1526        3122.00     13580.51
 1305.30        2973.00           1529        1561.00      6771.65
 1305.33        2973.25           1533         568.00      2441.77
 1305.37        2973.50           1536         356.00      1517.51
 1305.40        2973.75           1539         304.00      1290.81
 1305.43        2974.00           1543         239.00      1007.44
 1305.46        2974.25           1546         170.00       706.64
 1305.49        2974.50           1549         118.00       479.95
 1305.52        2974.75           1553          76.00       296.86
 1305.55        2975.00           1556          59.00       222.76
 1305.58        2975.25           1559          54.00       200.96
 1305.61        2975.50           1563          45.00       161.73
 1305.65        2975.75           1566          42.00       148.65
 1305.68        2976.00           1569          44.00       157.37
 1305.71        2976.25           1573          52.00       192.24
 1305.74        2976.50           1576          49.00       179.16
 1305.77        2976.75           1579          51.00       187.88
 1305.80        2977.00           1583          45.00       161.73
 1305.83        2977.25           1586          48.00       174.80
 1305.86        2977.50           1590          36.00       122.49
 1305.89        2977.75           1593          47.00       170.45
 1305.92        2978.00           1596          43.00       153.01
 1305.95        2978.25           1600          46.00       166.09
 1305.98        2978.50           1603          29.00        91.98
 1306.01        2978.75           1606          43.00       153.01
 1306.04        2979.00           1610          46.00       166.09
 1306.08        2979.25           1613          41.00       144.29
 1306.11        2979.50           1616          46.00       166.09
 1306.14        2979.75           1620          45.00       161.73
 1306.17        2980.00           1623          39.00       135.57
 1306.20        2980.25           1626          38.00       131.21
 1306.23        2980.50           1630          46.00       166.09
 1306.26        2980.75           1633          41.00       144.29
 1306.29        2981.00           1637          40.00       139.93
 1306.32        2981.25           1640          35.00       118.13
 1306.36        2981.50           1643          44.00       157.37
 1306.39        2981.75           1647          37.00       126.85
 1306.42        2982.00           1650          35.00       118.13
 1306.45        2982.25           1653          46.00       166.09
 1306.49        2982.50           1657          40.00       139.93
 1306.52        2982.75           1660          45.00       161.73
 1306.55        2983.00           1663          41.00       144.29
 1306.58        2983.25           1667          40.00       139.93
 1306.61        2983.50           1670          42.00       148.65
 1306.64        2983.75           1673          46.00       166.09
 1306.67        2984.00           1677          43.00       153.01
HS scan finished at 21:46:53
end
