************************************************************
  HS Scan of (1) Internal mercury lamp
************************************************************
Integration time is 0.2294 seconds per sample
dh170717Manchester 53.47 2.23 2.804185pr1000
************************************************************
Dead Time -------------------------  3E-08 
Number of Cycles Used -------------  4 
Starting Wavelength (Angstroms) ---  2950 
Final Wavelength (Angstoms) -------  2984 
Wavelength Increment (Angstroms) --  .25 
Filter Wheel #1 Position ---------- (1) Ground quartz diffuser (ND=2.32)
Filter Wheel #2 Position ---------- (1) Neutral Density 0.494



************************************************************
HS scan start time = 01:43:25
Dark Count =  6.3 


Time (GMT)  Wavelength (Ang)  Step Number  Raw Counts  Counts/Second

  103.78        2950.00           1222         104.00       425.90
  103.85        2950.25           1226         113.00       465.13
  103.88        2950.50           1229         121.00       500.01
  103.91        2950.75           1232         106.00       434.62
  103.94        2951.00           1236          99.00       404.10
  103.97        2951.25           1239         115.00       473.85
  104.00        2951.50           1242         105.00       430.26
  104.03        2951.75           1246         104.00       425.90
  104.06        2952.00           1249         115.00       473.85
  104.09        2952.25           1252         114.00       469.49
  104.13        2952.50           1256         107.00       438.98
  104.16        2952.75           1259         102.00       417.18
  104.19        2953.00           1262         113.00       465.13
  104.22        2953.25           1266         109.00       447.70
  104.25        2953.50           1269         112.00       460.77
  104.28        2953.75           1272         116.00       478.21
  104.31        2954.00           1276         100.00       408.46
  104.34        2954.25           1279         111.00       456.41
  104.37        2954.50           1282         108.00       443.34
  104.40        2954.75           1286          97.00       395.38
  104.43        2955.00           1289          99.00       404.10
  104.47        2955.25           1292         111.00       456.41
  104.50        2955.50           1296          94.00       382.31
  104.53        2955.75           1299         105.00       430.26
  104.56        2956.00           1302          95.00       386.67
  104.59        2956.25           1306         106.00       434.62
  104.62        2956.50           1309         111.00       456.41
  104.65        2956.75           1312         107.00       438.98
  104.68        2957.00           1316         114.00       469.49
  104.71        2957.25           1319         112.00       460.77
  104.74        2957.50           1322         101.00       412.82
  104.77        2957.75           1326         115.00       473.85
  104.81        2958.00           1329          97.00       395.38
  104.84        2958.25           1332         104.00       425.90
  104.87        2958.50           1336         101.00       412.82
  104.90        2958.75           1339         107.00       438.98
  104.93        2959.00           1342         114.00       469.49
  104.96        2959.25           1346         111.00       456.41
  104.99        2959.50           1349         118.00       486.93
  105.02        2959.75           1352         132.00       547.96
  105.05        2960.00           1356         148.00       617.71
  105.08        2960.25           1359         198.00       835.68
  105.11        2960.50           1362         235.00       996.98
  105.14        2960.75           1366         291.00      1241.11
  105.17        2961.00           1369         346.00      1480.89
  105.21        2961.25           1372         387.00      1659.63
  105.24        2961.50           1376         462.00      1986.61
  105.27        2961.75           1379         674.00      2910.89
  105.30        2962.00           1382        1468.00      6373.06
  105.33        2962.25           1386        3383.00     14726.21
  105.36        2962.50           1389        5043.00     21970.45
  105.39        2962.75           1392        6594.00     28741.86
  105.42        2963.00           1396        8732.00     38080.54
  105.45        2963.25           1399       10342.00     45116.39
  105.48        2963.50           1402       11917.00     52002.17
  105.52        2963.75           1406       14173.00     61870.19
  105.55        2964.00           1409       15817.00     69064.93
  105.58        2964.25           1412       17444.00     76188.32
  105.61        2964.50           1416       19692.00     86035.64
  105.64        2964.75           1419       21263.00     92920.83
  105.67        2965.00           1422       22940.00    100273.70
  105.70        2965.25           1426       25509.00    111544.00
  105.73        2965.50           1429       27188.00    118913.90
  105.76        2965.75           1432       28719.00    125637.00
  105.79        2966.00           1436       30836.00    134937.90
  105.83        2966.25           1439       32553.00    142485.30
  105.86        2966.50           1442       33918.00    148487.80
  105.89        2966.75           1446       35688.00    156274.50
  105.92        2967.00           1449       35964.00    157489.10
  105.95        2967.25           1452       36262.00    158800.50
  105.98        2967.50           1456       36230.00    158659.70
  106.01        2967.75           1459       36108.00    158122.80
  106.04        2968.00           1462       36069.00    157951.10
  106.07        2968.25           1466       35047.00    153454.20
  106.10        2968.50           1469       33495.00    146627.40
  106.14        2968.75           1472       31934.00    139764.00
  106.17        2969.00           1476       29970.00    131132.60
  106.20        2969.25           1479       28226.00    123471.80
  106.23        2969.50           1482       26585.00    116266.70
  106.26        2969.75           1486       24317.00    106313.70
  106.29        2970.00           1489       22692.00     99186.15
  106.32        2970.25           1492       21190.00     92600.83
  106.35        2970.50           1496       19266.00     84169.11
  106.38        2970.75           1499       17385.00     75929.96
  106.42        2971.00           1502       15585.00     68049.43
  106.45        2971.25           1506       13217.00     57687.81
  106.48        2971.50           1509       11359.00     49562.31
  106.51        2971.75           1513        9247.00     40330.81
  106.54        2972.00           1516        7686.00     33511.01
  106.57        2972.25           1519        5900.00     25711.63
  106.60        2972.50           1523        3790.00     16502.07
  106.63        2972.75           1526        2360.00     10263.40
  106.66        2973.00           1529        1101.00      4772.70
  106.69        2973.25           1533         511.00      2200.23
  106.73        2973.50           1536         407.00      1746.82
  106.76        2973.75           1539         362.00      1550.64
  106.79        2974.00           1543         323.00      1380.62
  106.82        2974.25           1546         230.00       975.18
  106.85        2974.50           1549         198.00       835.68
  106.88        2974.75           1553         147.00       613.35
  106.91        2975.00           1556         123.00       508.73
  106.94        2975.25           1559         115.00       473.85
  106.97        2975.50           1563          97.00       395.38
  107.00        2975.75           1566          93.00       377.95
  107.03        2976.00           1569          96.00       391.02
  107.06        2976.25           1573          99.00       404.10
  107.10        2976.50           1576          93.00       377.95
  107.13        2976.75           1579         103.00       421.54
  107.16        2977.00           1583         105.00       430.26
  107.19        2977.25           1586         102.00       417.18
  107.22        2977.50           1590          91.00       369.23
  107.25        2977.75           1593          93.00       377.95
  107.28        2978.00           1596          94.00       382.31
  107.31        2978.25           1600          95.00       386.67
  107.34        2978.50           1603          97.00       395.38
  107.37        2978.75           1606          98.00       399.74
  107.40        2979.00           1610          97.00       395.38
  107.43        2979.25           1613         105.00       430.26
  107.46        2979.50           1616          98.00       399.74
  107.50        2979.75           1620          96.00       391.02
  107.53        2980.00           1623          93.00       377.95
  107.56        2980.25           1626          92.00       373.59
  107.59        2980.50           1630          93.00       377.95
  107.62        2980.75           1633         104.00       425.90
  107.65        2981.00           1637          92.00       373.59
  107.68        2981.25           1640          96.00       391.02
  107.71        2981.50           1643          98.00       399.74
  107.74        2981.75           1647          79.00       316.92
  107.77        2982.00           1650          83.00       334.35
  107.80        2982.25           1653          88.00       356.15
  107.83        2982.50           1657          97.00       395.38
  107.86        2982.75           1660          88.00       356.15
  107.90        2983.00           1663          87.00       351.79
  107.93        2983.25           1667         100.00       408.46
  107.96        2983.50           1670          91.00       369.23
  107.99        2983.75           1673          93.00       377.95
  108.02        2984.00           1677          96.00       391.02
HS scan finished at 01:48:14
end
************************************************************
  HS Scan of (1) Internal mercury lamp
************************************************************
Integration time is 0.2294 seconds per sample
dh170717Manchester 53.47 2.23 2.965129pr1000
************************************************************
Dead Time -------------------------  3E-08 
Number of Cycles Used -------------  4 
Starting Wavelength (Angstroms) ---  2950 
Final Wavelength (Angstoms) -------  2984 
Wavelength Increment (Angstroms) --  .25 
Filter Wheel #1 Position ---------- (1) Ground quartz diffuser (ND=2.32)
Filter Wheel #2 Position ---------- (1) Neutral Density 0.494



************************************************************
HS scan start time = 21:42:01
Dark Count =  7.9 


Time (GMT)  Wavelength (Ang)  Step Number  Raw Counts  Counts/Second

 1302.38        2950.00           1222         110.00       445.08
 1302.45        2950.25           1226         123.00       501.75
 1302.48        2950.50           1229         129.00       527.91
 1302.51        2950.75           1232         105.00       423.28
 1302.54        2951.00           1236         104.00       418.92
 1302.57        2951.25           1239         104.00       418.92
 1302.60        2951.50           1242         115.00       466.88
 1302.63        2951.75           1246         112.00       453.80
 1302.66        2952.00           1249         109.00       440.72
 1302.69        2952.25           1252         107.00       432.00
 1302.73        2952.50           1256         113.00       458.16
 1302.76        2952.75           1259          97.00       388.41
 1302.79        2953.00           1262         104.00       418.92
 1302.82        2953.25           1266         106.00       427.64
 1302.85        2953.50           1269         110.00       445.08
 1302.88        2953.75           1272         108.00       436.36
 1302.91        2954.00           1276         118.00       479.95
 1302.94        2954.25           1279         116.00       471.24
 1302.97        2954.50           1282         115.00       466.88
 1303.00        2954.75           1286         108.00       436.36
 1303.03        2955.00           1289         101.00       405.85
 1303.06        2955.25           1292         108.00       436.36
 1303.09        2955.50           1296         101.00       405.85
 1303.12        2955.75           1299         109.00       440.72
 1303.16        2956.00           1302         115.00       466.88
 1303.19        2956.25           1306         103.00       414.56
 1303.22        2956.50           1309         100.00       401.49
 1303.25        2956.75           1312         117.00       475.60
 1303.28        2957.00           1316         111.00       449.44
 1303.31        2957.25           1319         100.00       401.49
 1303.34        2957.50           1322         101.00       405.85
 1303.37        2957.75           1326         106.00       427.64
 1303.40        2958.00           1329         104.00       418.92
 1303.43        2958.25           1332         101.00       405.85
 1303.46        2958.50           1336         101.00       405.85
 1303.49        2958.75           1339         103.00       414.56
 1303.52        2959.00           1342         116.00       471.24
 1303.55        2959.25           1346         110.00       445.08
 1303.59        2959.50           1349         123.00       501.75
 1303.62        2959.75           1352         136.00       558.42
 1303.65        2960.00           1356         172.00       715.36
 1303.68        2960.25           1359         218.00       915.89
 1303.71        2960.50           1362         256.00      1081.55
 1303.74        2960.75           1366         321.00      1364.92
 1303.77        2961.00           1369         364.00      1552.38
 1303.80        2961.25           1372         424.00      1813.96
 1303.83        2961.50           1376         526.00      2258.65
 1303.86        2961.75           1379         836.00      3610.24
 1303.89        2962.00           1382        1729.00      7504.31
 1303.93        2962.25           1386        3844.00     16730.72
 1303.96        2962.50           1389        5653.00     24626.30
 1303.99        2962.75           1392        7377.00     32154.37
 1304.02        2963.00           1396        9791.00     42701.14
 1304.05        2963.25           1399       11513.00     50228.64
 1304.08        2963.50           1402       13428.00     58603.82
 1304.11        2963.75           1406       15885.00     69355.58
 1304.14        2964.00           1409       17643.00     77052.80
 1304.17        2964.25           1412       19717.00     86138.18
 1304.21        2964.50           1416       22148.00     96793.74
 1304.24        2964.75           1419       24064.00    105196.80
 1304.27        2965.00           1422       25846.00    113015.90
 1304.30        2965.25           1426       28263.00    123627.20
 1304.33        2965.50           1429       29992.00    131222.20
 1304.36        2965.75           1432       31637.00    138451.40
 1304.39        2966.00           1436       33982.00    148762.30
 1304.42        2966.25           1439       35685.00    156254.30
 1304.45        2966.50           1442       37048.00    162253.00
 1304.48        2966.75           1446       38963.00    170684.80
 1304.52        2967.00           1449       39335.00    172323.20
 1304.55        2967.25           1452       39429.00    172737.20
 1304.58        2967.50           1456       39371.00    172481.70
 1304.61        2967.75           1459       39402.00    172618.30
 1304.64        2968.00           1462       39056.00    171094.40
 1304.67        2968.25           1466       37726.00    165237.80
 1304.70        2968.50           1469       35850.00    156980.40
 1304.73        2968.75           1472       34350.00    150380.90
 1304.76        2969.00           1476       32049.00    140262.50
 1304.79        2969.25           1479       30533.00    133599.40
 1304.82        2969.50           1482       28529.00    124795.50
 1304.86        2969.75           1486       26353.00    115241.20
 1304.89        2970.00           1489       24424.00    106776.10
 1304.92        2970.25           1492       22551.00     98560.83
 1304.95        2970.50           1496       19991.00     87338.83
 1304.98        2970.75           1499       18110.00     79098.11
 1305.01        2971.00           1502       16439.00     71780.83
 1305.04        2971.25           1506       13810.00     60274.98
 1305.07        2971.50           1509       12129.00     52922.23
 1305.10        2971.75           1513        9802.00     42749.21
 1305.14        2972.00           1516        8097.00     35299.35
 1305.17        2972.25           1519        6307.00     27481.68
 1305.20        2972.50           1523        3948.00     17184.53
 1305.23        2972.75           1526        2332.00     10134.29
 1305.26        2973.00           1529         972.00      4203.23
 1305.29        2973.25           1533         497.00      2132.22
 1305.32        2973.50           1536         413.00      1766.00
 1305.35        2973.75           1539         353.00      1504.43
 1305.38        2974.00           1543         291.00      1234.13
 1305.41        2974.25           1546         227.00       955.13
 1305.45        2974.50           1549         182.00       758.95
 1305.48        2974.75           1553         145.00       597.66
 1305.51        2975.00           1556         109.00       440.72
 1305.54        2975.25           1559         117.00       475.60
 1305.57        2975.50           1563          92.00       366.61
 1305.60        2975.75           1566         100.00       401.49
 1305.63        2976.00           1569          96.00       384.05
 1305.66        2976.25           1573          93.00       370.97
 1305.69        2976.50           1576          96.00       384.05
 1305.72        2976.75           1579          97.00       388.41
 1305.75        2977.00           1583          93.00       370.97
 1305.78        2977.25           1586          94.00       375.33
 1305.82        2977.50           1590         102.00       410.21
 1305.85        2977.75           1593          99.00       397.13
 1305.88        2978.00           1596          94.00       375.33
 1305.91        2978.25           1600          96.00       384.05
 1305.94        2978.50           1603          95.00       379.69
 1305.97        2978.75           1606         115.00       466.88
 1306.00        2979.00           1610          98.00       392.77
 1306.03        2979.25           1613          97.00       388.41
 1306.06        2979.50           1616          91.00       362.25
 1306.09        2979.75           1620          98.00       392.77
 1306.13        2980.00           1623          87.00       344.82
 1306.16        2980.25           1626          87.00       344.82
 1306.19        2980.50           1630          88.00       349.18
 1306.22        2980.75           1633          98.00       392.77
 1306.25        2981.00           1637          92.00       366.61
 1306.28        2981.25           1640          94.00       375.33
 1306.31        2981.50           1643          98.00       392.77
 1306.34        2981.75           1647          92.00       366.61
 1306.37        2982.00           1650          90.00       357.89
 1306.40        2982.25           1653          97.00       388.41
 1306.43        2982.50           1657         101.00       405.85
 1306.46        2982.75           1660          94.00       375.33
 1306.49        2983.00           1663          89.00       353.53
 1306.53        2983.25           1667          92.00       366.61
 1306.56        2983.50           1670          95.00       379.69
 1306.59        2983.75           1673          93.00       370.97
 1306.62        2984.00           1677          97.00       388.41
HS scan finished at 21:46:50
end
