************************************************************
  HS Scan of (1) Internal mercury lamp
************************************************************
Integration time is 0.2294 seconds per sample
dh090718Manchester 53.47 2.23 3.018777pr1000
************************************************************
Dead Time -------------------------  3E-08 
Number of Cycles Used -------------  4 
Starting Wavelength (Angstroms) ---  2950 
Final Wavelength (Angstoms) -------  2984 
Wavelength Increment (Angstroms) --  .25 
Filter Wheel #1 Position ---------- (1) Ground quartz diffuser (ND=2.32)
Filter Wheel #2 Position ---------- (1) Neutral Density 0.494



************************************************************
HS scan start time = 01:41:57
Dark Count =  8.600001 


Time (GMT)  Wavelength (Ang)  Step Number  Raw Counts  Counts/Second

  102.31        2950.00           1222          51.00       184.83
  102.38        2950.25           1226          47.00       167.39
  102.41        2950.50           1229          54.00       197.91
  102.44        2950.75           1232          53.00       193.55
  102.48        2951.00           1236          54.00       197.91
  102.51        2951.25           1239          56.00       206.63
  102.54        2951.50           1242          54.00       197.91
  102.57        2951.75           1246          49.00       176.11
  102.60        2952.00           1249          54.00       197.91
  102.63        2952.25           1252          55.00       202.27
  102.66        2952.50           1256          51.00       184.83
  102.69        2952.75           1259          50.00       180.47
  102.73        2953.00           1262          53.00       193.55
  102.76        2953.25           1266          55.00       202.27
  102.79        2953.50           1269          50.00       180.47
  102.82        2953.75           1272          49.00       176.11
  102.85        2954.00           1276          51.00       184.83
  102.88        2954.25           1279          54.00       197.91
  102.91        2954.50           1282          51.00       184.83
  102.94        2954.75           1286          54.00       197.91
  102.97        2955.00           1289          62.00       232.78
  103.00        2955.25           1292          51.00       184.83
  103.03        2955.50           1296          55.00       202.27
  103.07        2955.75           1299          57.00       210.99
  103.10        2956.00           1302          50.00       180.47
  103.13        2956.25           1306          50.00       180.47
  103.16        2956.50           1309          59.00       219.71
  103.19        2956.75           1312          54.00       197.91
  103.22        2957.00           1316          50.00       180.47
  103.25        2957.25           1319          52.00       189.19
  103.28        2957.50           1322          58.00       215.35
  103.31        2957.75           1326          47.00       167.39
  103.34        2958.00           1329          50.00       180.47
  103.38        2958.25           1332          52.00       189.19
  103.41        2958.50           1336          53.00       193.55
  103.44        2958.75           1339          58.00       215.35
  103.47        2959.00           1342          59.00       219.71
  103.50        2959.25           1346          61.00       228.42
  103.53        2959.50           1349          65.00       245.86
  103.56        2959.75           1352          75.00       289.45
  103.59        2960.00           1356         115.00       463.83
  103.62        2960.25           1359         136.00       555.37
  103.66        2960.50           1362         175.00       725.39
  103.69        2960.75           1366         220.00       921.56
  103.72        2961.00           1369         263.00      1109.02
  103.75        2961.25           1372         308.00      1305.20
  103.78        2961.50           1376         402.00      1715.00
  103.81        2961.75           1379         565.00      2425.63
  103.84        2962.00           1382        1264.00      5473.44
  103.87        2962.25           1386        2916.00     12678.75
  103.90        2962.50           1389        4276.00     18612.83
  103.94        2962.75           1392        5876.00     25596.81
  103.97        2963.00           1396        7887.00     34378.94
  104.00        2963.25           1399        9288.00     40499.92
  104.03        2963.50           1402       10757.00     46920.40
  104.06        2963.75           1406       12821.00     55945.61
  104.09        2964.00           1409       14317.00     62490.20
  104.12        2964.25           1412       16040.00     70031.02
  104.15        2964.50           1416       17958.00     78429.31
  104.18        2964.75           1419       19363.00     84584.02
  104.22        2965.00           1422       21124.00     92301.44
  104.25        2965.25           1426       22993.00    100496.10
  104.28        2965.50           1429       24463.00    106944.10
  104.31        2965.75           1432       26164.00    114408.60
  104.34        2966.00           1436       28075.00    122798.60
  104.37        2966.25           1439       29477.00    128956.50
  104.40        2966.50           1442       30971.00    135521.10
  104.43        2966.75           1446       32272.00    141239.80
  104.46        2967.00           1449       32334.00    141512.30
  104.50        2967.25           1452       32368.00    141661.80
  104.53        2967.50           1456       32581.00    142598.30
  104.56        2967.75           1459       32562.00    142514.70
  104.59        2968.00           1462       32223.00    141024.30
  104.62        2968.25           1466       31197.00    136514.40
  104.65        2968.50           1469       30012.00    131307.00
  104.68        2968.75           1472       28598.00    125095.40
  104.71        2969.00           1476       26731.00    116897.50
  104.74        2969.25           1479       25061.00    109567.90
  104.78        2969.50           1482       23523.00    102820.60
  104.81        2969.75           1486       21575.00     94278.49
  104.84        2970.00           1489       20166.00     88102.66
  104.87        2970.25           1492       18552.00     81031.10
  104.90        2970.50           1496       16775.00     73248.85
  104.93        2970.75           1499       15407.00     67260.27
  104.96        2971.00           1502       13917.00     60740.06
  104.99        2971.25           1506       11893.00     51887.16
  105.02        2971.50           1509       10469.00     45661.47
  105.06        2971.75           1513        8431.00     36755.42
  105.09        2972.00           1516        6859.00     29889.04
  105.12        2972.25           1519        5325.00     23191.37
  105.15        2972.50           1523        3387.00     14733.63
  105.18        2972.75           1526        2059.00      8940.50
  105.21        2973.00           1529         922.00      3982.17
  105.24        2973.25           1533         408.00      1741.15
  105.27        2973.50           1536         312.00      1322.63
  105.30        2973.75           1539         274.00      1156.97
  105.33        2974.00           1543         216.00       904.12
  105.37        2974.25           1546         161.00       664.36
  105.40        2974.50           1549         141.00       577.17
  105.43        2974.75           1553          92.00       363.56
  105.46        2975.00           1556          71.00       272.02
  105.49        2975.25           1559          63.00       237.14
  105.52        2975.50           1563          51.00       184.83
  105.55        2975.75           1566          52.00       189.19
  105.58        2976.00           1569          56.00       206.63
  105.61        2976.25           1573          53.00       193.55
  105.64        2976.50           1576          53.00       193.55
  105.67        2976.75           1579          53.00       193.55
  105.71        2977.00           1583          56.00       206.63
  105.74        2977.25           1586          58.00       215.35
  105.77        2977.50           1590          49.00       176.11
  105.80        2977.75           1593          53.00       193.55
  105.83        2978.00           1596          61.00       228.42
  105.86        2978.25           1600          54.00       197.91
  105.89        2978.50           1603          53.00       193.55
  105.92        2978.75           1606          48.00       171.75
  105.95        2979.00           1610          62.00       232.78
  105.98        2979.25           1613          49.00       176.11
  106.01        2979.50           1616          50.00       180.47
  106.05        2979.75           1620          55.00       202.27
  106.08        2980.00           1623          54.00       197.91
  106.11        2980.25           1626          49.00       176.11
  106.14        2980.50           1630          46.00       163.03
  106.17        2980.75           1633          53.00       193.55
  106.20        2981.00           1637          57.00       210.99
  106.23        2981.25           1640          49.00       176.11
  106.26        2981.50           1643          51.00       184.83
  106.29        2981.75           1647          50.00       180.47
  106.33        2982.00           1650          46.00       163.03
  106.36        2982.25           1653          47.00       167.39
  106.39        2982.50           1657          52.00       189.19
  106.42        2982.75           1660          51.00       184.83
  106.45        2983.00           1663          48.00       171.75
  106.48        2983.25           1667          53.00       193.55
  106.51        2983.50           1670          44.00       154.32
  106.54        2983.75           1673          43.00       149.96
  106.57        2984.00           1677          51.00       184.83
HS scan finished at 01:46:47
end
************************************************************
  HS Scan of (1) Internal mercury lamp
************************************************************
Integration time is 0.2294 seconds per sample
dh090718Manchester 53.47 2.23 3.072425pr1000
************************************************************
Dead Time -------------------------  3E-08 
Number of Cycles Used -------------  4 
Starting Wavelength (Angstroms) ---  2950 
Final Wavelength (Angstoms) -------  2984 
Wavelength Increment (Angstroms) --  .25 
Filter Wheel #1 Position ---------- (1) Ground quartz diffuser (ND=2.32)
Filter Wheel #2 Position ---------- (1) Neutral Density 0.494



************************************************************
HS scan start time = 21:43:23
Dark Count =  6.1 


Time (GMT)  Wavelength (Ang)  Step Number  Raw Counts  Counts/Second

 1303.75        2950.00           1222          57.00       221.88
 1303.81        2950.25           1226          53.00       204.45
 1303.84        2950.50           1229          57.00       221.88
 1303.87        2950.75           1232          52.00       200.09
 1303.91        2951.00           1236          52.00       200.09
 1303.94        2951.25           1239          50.00       191.37
 1303.97        2951.50           1242          53.00       204.45
 1304.00        2951.75           1246          51.00       195.73
 1304.03        2952.00           1249          57.00       221.88
 1304.06        2952.25           1252          46.00       173.93
 1304.09        2952.50           1256          50.00       191.37
 1304.12        2952.75           1259          56.00       217.53
 1304.15        2953.00           1262          55.00       213.17
 1304.19        2953.25           1266          62.00       243.68
 1304.22        2953.50           1269          50.00       191.37
 1304.25        2953.75           1272          54.00       208.81
 1304.28        2954.00           1276          57.00       221.88
 1304.31        2954.25           1279          60.00       234.96
 1304.34        2954.50           1282          54.00       208.81
 1304.37        2954.75           1286          66.00       261.12
 1304.40        2955.00           1289          53.00       204.45
 1304.43        2955.25           1292          56.00       217.53
 1304.47        2955.50           1296          53.00       204.45
 1304.50        2955.75           1299          53.00       204.45
 1304.53        2956.00           1302          53.00       204.45
 1304.56        2956.25           1306          54.00       208.81
 1304.59        2956.50           1309          54.00       208.81
 1304.62        2956.75           1312          47.00       178.29
 1304.65        2957.00           1316          51.00       195.73
 1304.68        2957.25           1319          52.00       200.09
 1304.71        2957.50           1322          55.00       213.17
 1304.75        2957.75           1326          54.00       208.81
 1304.78        2958.00           1329          53.00       204.45
 1304.81        2958.25           1332          61.00       239.32
 1304.84        2958.50           1336          49.00       187.01
 1304.87        2958.75           1339          55.00       213.17
 1304.90        2959.00           1342          49.00       187.01
 1304.93        2959.25           1346          64.00       252.40
 1304.96        2959.50           1349          75.00       300.35
 1304.99        2959.75           1352          93.00       378.82
 1305.02        2960.00           1356         133.00       553.19
 1305.05        2960.25           1359         178.00       749.36
 1305.08        2960.50           1362         206.00       871.43
 1305.12        2960.75           1366         252.00      1071.96
 1305.15        2961.00           1369         280.00      1194.03
 1305.18        2961.25           1372         326.00      1394.57
 1305.21        2961.50           1376         402.00      1725.90
 1305.24        2961.75           1379         501.00      2157.51
 1305.27        2962.00           1382         985.00      4267.77
 1305.30        2962.25           1386        2581.00     11228.28
 1305.33        2962.50           1389        4032.00     17558.94
 1305.36        2962.75           1392        5588.00     24350.39
 1305.39        2963.00           1396        7679.00     33481.31
 1305.43        2963.25           1399        9117.00     39763.63
 1305.46        2963.50           1402       10675.00     46572.88
 1305.49        2963.75           1406       12800.00     55864.70
 1305.52        2964.00           1409       14489.00     63253.75
 1305.55        2964.25           1412       16019.00     69950.04
 1305.58        2964.50           1416       18063.00     78900.13
 1305.61        2964.75           1419       19605.00     85655.31
 1305.64        2965.00           1422       21248.00     92855.96
 1305.67        2965.25           1426       23239.00    101585.90
 1305.71        2965.50           1429       24781.00    108350.30
 1305.74        2965.75           1432       26149.00    114353.70
 1305.77        2966.00           1436       28468.00    124535.50
 1305.80        2966.25           1439       30148.00    131915.50
 1305.83        2966.50           1442       31430.00    137549.40
 1305.86        2966.75           1446       32970.00    144319.70
 1305.89        2967.00           1449       33480.00    146562.40
 1305.92        2967.25           1452       33447.00    146417.20
 1305.95        2967.50           1456       33351.00    145995.10
 1305.99        2967.75           1459       33481.00    146566.80
 1306.02        2968.00           1462       33450.00    146430.40
 1306.05        2968.25           1466       32533.00    142398.20
 1306.08        2968.50           1469       31306.00    137004.40
 1306.11        2968.75           1472       29873.00    130707.30
 1306.14        2969.00           1476       27932.00    122181.60
 1306.17        2969.25           1479       26289.00    114968.20
 1306.20        2969.50           1482       24854.00    108670.60
 1306.23        2969.75           1486       22650.00     99002.85
 1306.27        2970.00           1489       21156.00     92452.68
 1306.30        2970.25           1492       19633.00     85778.00
 1306.33        2970.50           1496       17524.00     76539.55
 1306.36        2970.75           1499       16080.00     70217.06
 1306.39        2971.00           1502       14625.00     63848.87
 1306.42        2971.25           1506       12625.00     55099.29
 1306.45        2971.50           1509       11137.00     48592.59
 1306.48        2971.75           1513        8970.00     39121.31
 1306.51        2972.00           1516        7345.00     32022.47
 1306.54        2972.25           1519        5903.00     25725.60
 1306.58        2972.50           1523        4055.00     17659.31
 1306.61        2972.75           1526        2539.00     11045.07
 1306.64        2973.00           1529        1206.00      5231.42
 1306.67        2973.25           1533         447.00      1922.08
 1306.70        2973.50           1536         311.00      1329.17
 1306.73        2973.75           1539         256.00      1089.40
 1306.76        2974.00           1543         213.00       901.94
 1306.79        2974.25           1546         149.00       622.94
 1306.82        2974.50           1549         117.00       483.44
 1306.85        2974.75           1553          83.00       335.23
 1306.89        2975.00           1556          71.00       282.91
 1306.92        2975.25           1559          59.00       230.60
 1306.95        2975.50           1563          59.00       230.60
 1306.98        2975.75           1566          56.00       217.53
 1307.01        2976.00           1569          57.00       221.88
 1307.04        2976.25           1573          59.00       230.60
 1307.07        2976.50           1576          48.00       182.65
 1307.10        2976.75           1579          54.00       208.81
 1307.13        2977.00           1583          52.00       200.09
 1307.16        2977.25           1586          51.00       195.73
 1307.19        2977.50           1590          52.00       200.09
 1307.23        2977.75           1593          53.00       204.45
 1307.26        2978.00           1596          53.00       204.45
 1307.29        2978.25           1600          47.00       178.29
 1307.32        2978.50           1603          55.00       213.17
 1307.35        2978.75           1606          41.00       152.14
 1307.38        2979.00           1610          50.00       191.37
 1307.41        2979.25           1613          52.00       200.09
 1307.44        2979.50           1616          48.00       182.65
 1307.47        2979.75           1620          49.00       187.01
 1307.50        2980.00           1623          55.00       213.17
 1307.53        2980.25           1626          46.00       173.93
 1307.57        2980.50           1630          45.00       169.57
 1307.60        2980.75           1633          47.00       178.29
 1307.63        2981.00           1637          53.00       204.45
 1307.66        2981.25           1640          52.00       200.09
 1307.69        2981.50           1643          46.00       173.93
 1307.72        2981.75           1647          57.00       221.88
 1307.75        2982.00           1650          53.00       204.45
 1307.78        2982.25           1653          51.00       195.73
 1307.82        2982.50           1657          48.00       182.65
 1307.85        2982.75           1660          47.00       178.29
 1307.88        2983.00           1663          46.00       173.93
 1307.91        2983.25           1667          56.00       217.53
 1307.94        2983.50           1670          56.00       217.53
 1307.97        2983.75           1673          48.00       182.65
 1308.00        2984.00           1677          49.00       187.01
HS scan finished at 21:48:13
end
