************************************************************
  HS Scan of (1) Internal mercury lamp
************************************************************
Integration time is 0.2294 seconds per sample
dh200717Manchester 53.47 2.23 2.965129pr1000
************************************************************
Dead Time -------------------------  3E-08 
Number of Cycles Used -------------  4 
Starting Wavelength (Angstroms) ---  2950 
Final Wavelength (Angstoms) -------  2984 
Wavelength Increment (Angstroms) --  .25 
Filter Wheel #1 Position ---------- (1) Ground quartz diffuser (ND=2.32)
Filter Wheel #2 Position ---------- (1) Neutral Density 0.494



************************************************************
HS scan start time = 01:38:48
Dark Count =  5.5 


Time (GMT)  Wavelength (Ang)  Step Number  Raw Counts  Counts/Second

   99.17        2950.00           1222         101.00       416.31
   99.24        2950.25           1226         102.00       420.67
   99.27        2950.50           1229         104.00       429.39
   99.30        2950.75           1232         106.00       438.11
   99.33        2951.00           1236         101.00       416.31
   99.36        2951.25           1239         106.00       438.11
   99.39        2951.50           1242          96.00       394.51
   99.42        2951.75           1246         114.00       472.98
   99.45        2952.00           1249          92.00       377.07
   99.49        2952.25           1252         100.00       411.95
   99.52        2952.50           1256          99.00       407.59
   99.55        2952.75           1259         107.00       442.46
   99.58        2953.00           1262         106.00       438.11
   99.61        2953.25           1266         103.00       425.03
   99.64        2953.50           1269          93.00       381.43
   99.67        2953.75           1272          99.00       407.59
   99.70        2954.00           1276         112.00       464.26
   99.73        2954.25           1279         109.00       451.18
   99.76        2954.50           1282         104.00       429.39
   99.79        2954.75           1286         101.00       416.31
   99.82        2955.00           1289         103.00       425.03
   99.86        2955.25           1292         102.00       420.67
   99.89        2955.50           1296         112.00       464.26
   99.92        2955.75           1299         104.00       429.39
   99.95        2956.00           1302          99.00       407.59
   99.98        2956.25           1306          97.00       398.87
  100.01        2956.50           1309         103.00       425.03
  100.04        2956.75           1312         104.00       429.39
  100.07        2957.00           1316          98.00       403.23
  100.10        2957.25           1319         104.00       429.39
  100.14        2957.50           1322          95.00       390.15
  100.17        2957.75           1326         100.00       411.95
  100.20        2958.00           1329         107.00       442.46
  100.23        2958.25           1332          98.00       403.23
  100.26        2958.50           1336         110.00       455.54
  100.29        2958.75           1339          99.00       407.59
  100.32        2959.00           1342          99.00       407.59
  100.35        2959.25           1346         107.00       442.46
  100.38        2959.50           1349         115.00       477.34
  100.42        2959.75           1352         116.00       481.70
  100.45        2960.00           1356         148.00       621.20
  100.48        2960.25           1359         186.00       786.85
  100.51        2960.50           1362         222.00       943.79
  100.54        2960.75           1366         289.00      1235.88
  100.57        2961.00           1369         318.00      1362.31
  100.60        2961.25           1372         396.00      1702.35
  100.63        2961.50           1376         443.00      1907.26
  100.66        2961.75           1379         603.00      2604.82
  100.69        2962.00           1382        1163.00      5046.54
  100.72        2962.25           1386        3009.00     13098.00
  100.76        2962.50           1389        4633.00     20184.41
  100.79        2962.75           1392        6314.00     27522.72
  100.82        2963.00           1396        8820.00     38468.52
  100.85        2963.25           1399       10650.00     46466.22
  100.88        2963.50           1402       12363.00     53956.06
  100.91        2963.75           1406       14742.00     64363.48
  100.94        2964.00           1409       16663.00     72772.05
  100.97        2964.25           1412       18592.00     81219.90
  101.00        2964.50           1416       21131.00     92345.71
  101.03        2964.75           1419       22720.00     99312.44
  101.07        2965.00           1422       24513.00    107177.10
  101.10        2965.25           1426       26975.00    117982.30
  101.13        2965.50           1429       28736.00    125715.20
  101.16        2965.75           1432       30659.00    134163.60
  101.19        2966.00           1436       32977.00    144353.10
  101.22        2966.25           1439       34583.00    151416.40
  101.25        2966.50           1442       36232.00    158672.00
  101.28        2966.75           1446       37909.00    166054.00
  101.32        2967.00           1449       38795.00    169955.50
  101.35        2967.25           1452       38885.00    170351.80
  101.38        2967.50           1456       38815.00    170043.50
  101.41        2967.75           1459       38774.00    169863.00
  101.44        2968.00           1462       38519.00    168740.00
  101.47        2968.25           1466       37571.00    164565.90
  101.50        2968.50           1469       36123.00    158192.30
  101.53        2968.75           1472       34390.00    150567.40
  101.56        2969.00           1476       32044.00    140251.10
  101.60        2969.25           1479       30539.00    133636.30
  101.63        2969.50           1482       28622.00    125214.50
  101.66        2969.75           1486       26127.00    114259.80
  101.69        2970.00           1489       24607.00    107589.50
  101.72        2970.25           1492       22589.00     98737.99
  101.75        2970.50           1496       20501.00     89584.38
  101.78        2970.75           1499       18560.00     81079.72
  101.81        2971.00           1502       16713.00     72990.96
  101.84        2971.25           1506       14307.00     62460.00
  101.88        2971.50           1509       12552.00     54782.64
  101.91        2971.75           1513       10195.00     44477.36
  101.94        2972.00           1516        8538.00     37236.43
  101.97        2972.25           1519        6698.00     29199.50
  102.00        2972.50           1523        4393.00     19136.96
  102.03        2972.75           1526        2759.00     12007.38
  102.06        2973.00           1529        1226.00      5321.25
  102.09        2973.25           1533         557.00      2404.27
  102.12        2973.50           1536         423.00      1820.06
  102.15        2973.75           1539         369.00      1584.64
  102.19        2974.00           1543         316.00      1353.59
  102.22        2974.25           1546         238.00      1013.54
  102.25        2974.50           1549         213.00       904.56
  102.28        2974.75           1553         146.00       612.48
  102.31        2975.00           1556         113.00       468.62
  102.34        2975.25           1559         101.00       416.31
  102.37        2975.50           1563          96.00       394.51
  102.40        2975.75           1566         105.00       433.75
  102.43        2976.00           1569          91.00       372.72
  102.46        2976.25           1573         100.00       411.95
  102.49        2976.50           1576         102.00       420.67
  102.52        2976.75           1579         104.00       429.39
  102.56        2977.00           1583         105.00       433.75
  102.59        2977.25           1586          83.00       337.84
  102.62        2977.50           1590          91.00       372.72
  102.65        2977.75           1593          93.00       381.43
  102.68        2978.00           1596          86.00       350.92
  102.71        2978.25           1600          89.00       364.00
  102.74        2978.50           1603          91.00       372.72
  102.77        2978.75           1606          86.00       350.92
  102.80        2979.00           1610          90.00       368.36
  102.83        2979.25           1613          90.00       368.36
  102.87        2979.50           1616          92.00       377.07
  102.90        2979.75           1620          86.00       350.92
  102.93        2980.00           1623          95.00       390.15
  102.96        2980.25           1626          94.00       385.79
  102.99        2980.50           1630          91.00       372.72
  103.02        2980.75           1633          85.00       346.56
  103.05        2981.00           1637          91.00       372.72
  103.08        2981.25           1640          91.00       372.72
  103.11        2981.50           1643          86.00       350.92
  103.14        2981.75           1647          90.00       368.36
  103.17        2982.00           1650          85.00       346.56
  103.20        2982.25           1653          88.00       359.64
  103.23        2982.50           1657          88.00       359.64
  103.26        2982.75           1660          88.00       359.64
  103.29        2983.00           1663          89.00       364.00
  103.33        2983.25           1667          83.00       337.84
  103.36        2983.50           1670          89.00       364.00
  103.39        2983.75           1673          81.00       329.12
  103.42        2984.00           1677          95.00       390.15
HS scan finished at 01:43:38
end
************************************************************
  HS Scan of (1) Internal mercury lamp
************************************************************
Integration time is 0.2294 seconds per sample
dh200717Manchester 53.47 2.23 2.857833pr1000
************************************************************
Dead Time -------------------------  3E-08 
Number of Cycles Used -------------  4 
Starting Wavelength (Angstroms) ---  2950 
Final Wavelength (Angstoms) -------  2984 
Wavelength Increment (Angstroms) --  .25 
Filter Wheel #1 Position ---------- (1) Ground quartz diffuser (ND=2.32)
Filter Wheel #2 Position ---------- (1) Neutral Density 0.494



************************************************************
HS scan start time = 21:12:00
Dark Count =  5.2 


Time (GMT)  Wavelength (Ang)  Step Number  Raw Counts  Counts/Second

 1272.38        2950.00           1222         105.00       435.05
 1272.44        2950.25           1226         103.00       426.34
 1272.48        2950.50           1229         108.00       448.13
 1272.51        2950.75           1232         101.00       417.62
 1272.54        2951.00           1236         105.00       435.05
 1272.57        2951.25           1239         106.00       439.41
 1272.60        2951.50           1242          95.00       391.46
 1272.63        2951.75           1246          98.00       404.54
 1272.66        2952.00           1249         112.00       465.57
 1272.69        2952.25           1252          96.00       395.82
 1272.72        2952.50           1256         108.00       448.13
 1272.76        2952.75           1259         103.00       426.34
 1272.79        2953.00           1262         102.00       421.98
 1272.82        2953.25           1266         103.00       426.34
 1272.85        2953.50           1269         101.00       417.62
 1272.88        2953.75           1272         102.00       421.98
 1272.91        2954.00           1276         101.00       417.62
 1272.94        2954.25           1279         101.00       417.62
 1272.97        2954.50           1282         108.00       448.13
 1273.01        2954.75           1286         103.00       426.34
 1273.04        2955.00           1289         101.00       417.62
 1273.07        2955.25           1292         116.00       483.01
 1273.10        2955.50           1296         104.00       430.69
 1273.13        2955.75           1299         101.00       417.62
 1273.16        2956.00           1302         101.00       417.62
 1273.19        2956.25           1306         103.00       426.34
 1273.22        2956.50           1309         102.00       421.98
 1273.25        2956.75           1312         106.00       439.41
 1273.28        2957.00           1316         103.00       426.34
 1273.31        2957.25           1319         100.00       413.26
 1273.34        2957.50           1322         100.00       413.26
 1273.37        2957.75           1326         108.00       448.13
 1273.41        2958.00           1329         100.00       413.26
 1273.44        2958.25           1332         113.00       469.93
 1273.47        2958.50           1336          90.00       369.66
 1273.50        2958.75           1339         128.00       535.32
 1273.53        2959.00           1342         103.00       426.34
 1273.56        2959.25           1346         105.00       435.05
 1273.59        2959.50           1349         101.00       417.62
 1273.62        2959.75           1352         114.00       474.29
 1273.65        2960.00           1356         148.00       622.51
 1273.68        2960.25           1359         188.00       796.88
 1273.72        2960.50           1362         212.00       901.51
 1273.75        2960.75           1366         266.00      1136.92
 1273.78        2961.00           1369         305.00      1306.94
 1273.81        2961.25           1372         345.00      1481.32
 1273.84        2961.50           1376         424.00      1825.73
 1273.87        2961.75           1379         549.00      2370.70
 1273.90        2962.00           1382         923.00      4001.35
 1273.93        2962.25           1386        2610.00     11358.71
 1273.96        2962.50           1389        4184.00     18226.18
 1273.99        2962.75           1392        5707.00     24873.83
 1274.02        2963.00           1396        7894.00     34424.38
 1274.05        2963.25           1399        9615.00     41943.77
 1274.09        2963.50           1402       11157.00     48683.96
 1274.12        2963.75           1406       13478.00     58834.35
 1274.15        2964.00           1409       15107.00     65962.13
 1274.18        2964.25           1412       16867.00     73666.55
 1274.21        2964.50           1416       19311.00     84371.09
 1274.24        2964.75           1419       20874.00     91220.53
 1274.27        2965.00           1422       22615.00     98853.33
 1274.30        2965.25           1426       24773.00    108319.20
 1274.33        2965.50           1429       26395.00    115437.50
 1274.36        2965.75           1432       28160.00    123186.80
 1274.39        2966.00           1436       30475.00    133356.30
 1274.42        2966.25           1439       31959.00    139878.70
 1274.46        2966.50           1442       33472.00    146531.10
 1274.49        2966.75           1446       35386.00    154950.50
 1274.52        2967.00           1449       36091.00    158052.80
 1274.55        2967.25           1452       36421.00    159505.10
 1274.58        2967.50           1456       36153.00    158325.70
 1274.61        2967.75           1459       36127.00    158211.20
 1274.64        2968.00           1462       36074.00    157978.00
 1274.67        2968.25           1466       35453.00    155245.40
 1274.71        2968.50           1469       33976.00    148747.80
 1274.74        2968.75           1472       32595.00    142674.80
 1274.77        2969.00           1476       30396.00    133009.20
 1274.80        2969.25           1479       28529.00    124807.30
 1274.83        2969.50           1482       27041.00    118273.30
 1274.86        2969.75           1486       24897.00    108863.20
 1274.89        2970.00           1489       23082.00    100901.30
 1274.92        2970.25           1492       21394.00     93499.91
 1274.95        2970.50           1496       19072.00     83323.99
 1274.99        2970.75           1499       17507.00     76469.03
 1275.02        2971.00           1502       15925.00     69542.50
 1275.05        2971.25           1506       13642.00     59551.81
 1275.08        2971.50           1509       11947.00     52138.16
 1275.11        2971.75           1513        9849.00     42966.42
 1275.14        2972.00           1516        8164.00     35603.83
 1275.17        2972.25           1519        6418.00     27978.14
 1275.20        2972.50           1523        4262.00     18566.57
 1275.23        2972.75           1526        2774.00     12074.12
 1275.26        2973.00           1529        1295.00      5623.44
 1275.30        2973.25           1533         519.00      2239.91
 1275.33        2973.50           1536         378.00      1625.19
 1275.36        2973.75           1539         324.00      1389.77
 1275.39        2974.00           1543         281.00      1202.31
 1275.42        2974.25           1546         200.00       849.19
 1275.45        2974.50           1549         170.00       718.41
 1275.48        2974.75           1553         135.00       565.83
 1275.51        2975.00           1556         133.00       557.11
 1275.54        2975.25           1559         105.00       435.05
 1275.57        2975.50           1563          91.00       374.02
 1275.61        2975.75           1566          95.00       391.46
 1275.64        2976.00           1569          97.00       400.18
 1275.67        2976.25           1573          97.00       400.18
 1275.70        2976.50           1576          90.00       369.66
 1275.73        2976.75           1579          94.00       387.10
 1275.76        2977.00           1583          87.00       356.59
 1275.79        2977.25           1586          97.00       400.18
 1275.82        2977.50           1590          92.00       378.38
 1275.85        2977.75           1593          86.00       352.23
 1275.88        2978.00           1596          89.00       365.30
 1275.91        2978.25           1600          84.00       343.51
 1275.94        2978.50           1603          88.00       360.95
 1275.98        2978.75           1606          90.00       369.66
 1276.01        2979.00           1610         100.00       413.26
 1276.04        2979.25           1613          91.00       374.02
 1276.07        2979.50           1616          94.00       387.10
 1276.10        2979.75           1620          94.00       387.10
 1276.13        2980.00           1623          98.00       404.54
 1276.16        2980.25           1626          82.00       334.79
 1276.19        2980.50           1630          82.00       334.79
 1276.22        2980.75           1633          92.00       378.38
 1276.25        2981.00           1637          97.00       400.18
 1276.29        2981.25           1640          93.00       382.74
 1276.32        2981.50           1643          93.00       382.74
 1276.35        2981.75           1647          95.00       391.46
 1276.38        2982.00           1650          90.00       369.66
 1276.41        2982.25           1653          87.00       356.59
 1276.44        2982.50           1657          83.00       339.15
 1276.47        2982.75           1660          81.00       330.43
 1276.50        2983.00           1663          92.00       378.38
 1276.53        2983.25           1667          81.00       330.43
 1276.56        2983.50           1670          93.00       382.74
 1276.59        2983.75           1673          91.00       374.02
 1276.62        2984.00           1677          84.00       343.51
HS scan finished at 21:16:51
end
