************************************************************
  HS Scan of (1) Internal mercury lamp
************************************************************
Integration time is 0.2294 seconds per sample
dh190717Manchester 53.47 2.23 2.965129pr1000
************************************************************
Dead Time -------------------------  3E-08 
Number of Cycles Used -------------  4 
Starting Wavelength (Angstroms) ---  2950 
Final Wavelength (Angstoms) -------  2984 
Wavelength Increment (Angstroms) --  .25 
Filter Wheel #1 Position ---------- (1) Ground quartz diffuser (ND=2.32)
Filter Wheel #2 Position ---------- (1) Neutral Density 0.494



************************************************************
HS scan start time = 02:19:24
Dark Count =  6.7 


Time (GMT)  Wavelength (Ang)  Step Number  Raw Counts  Counts/Second

  139.77        2950.00           1222         114.00       467.75
  139.84        2950.25           1226         101.00       411.08
  139.87        2950.50           1229         116.00       476.47
  139.90        2950.75           1232         110.00       450.31
  139.93        2951.00           1236         102.00       415.44
  139.96        2951.25           1239         104.00       424.16
  139.99        2951.50           1242         111.00       454.67
  140.02        2951.75           1246          99.00       402.36
  140.06        2952.00           1249         117.00       480.83
  140.09        2952.25           1252         112.00       459.03
  140.12        2952.50           1256         112.00       459.03
  140.15        2952.75           1259         112.00       459.03
  140.18        2953.00           1262         105.00       428.51
  140.21        2953.25           1266         105.00       428.51
  140.24        2953.50           1269         108.00       441.59
  140.27        2953.75           1272          98.00       398.00
  140.30        2954.00           1276         100.00       406.72
  140.33        2954.25           1279         108.00       441.59
  140.36        2954.50           1282          98.00       398.00
  140.39        2954.75           1286          93.00       376.20
  140.42        2955.00           1289          95.00       384.92
  140.46        2955.25           1292         102.00       415.44
  140.49        2955.50           1296         107.00       437.23
  140.52        2955.75           1299         101.00       411.08
  140.55        2956.00           1302         106.00       432.87
  140.58        2956.25           1306         105.00       428.51
  140.61        2956.50           1309         105.00       428.51
  140.64        2956.75           1312         109.00       445.95
  140.67        2957.00           1316         112.00       459.03
  140.70        2957.25           1319         106.00       432.87
  140.73        2957.50           1322         102.00       415.44
  140.76        2957.75           1326         105.00       428.51
  140.80        2958.00           1329         105.00       428.51
  140.83        2958.25           1332         104.00       424.16
  140.86        2958.50           1336         101.00       411.08
  140.89        2958.75           1339          98.00       398.00
  140.92        2959.00           1342          99.00       402.36
  140.95        2959.25           1346         107.00       437.23
  140.98        2959.50           1349         106.00       432.87
  141.01        2959.75           1352         123.00       506.98
  141.04        2960.00           1356         158.00       659.56
  141.07        2960.25           1359         200.00       842.65
  141.10        2960.50           1362         237.00      1003.95
  141.14        2960.75           1366         306.00      1304.76
  141.17        2961.00           1369         343.00      1466.06
  141.20        2961.25           1372         407.00      1745.08
  141.23        2961.50           1376         496.00      2133.09
  141.26        2961.75           1379         724.00      3127.15
  141.29        2962.00           1382        1480.00      6423.64
  141.32        2962.25           1386        3440.00     14973.16
  141.35        2962.50           1389        5170.00     22523.06
  141.39        2962.75           1392        6849.00     29853.67
  141.42        2963.00           1396        9305.00     40582.51
  141.45        2963.25           1399       11158.00     48681.77
  141.48        2963.50           1402       13035.00     56889.95
  141.51        2963.75           1406       15496.00     67658.11
  141.54        2964.00           1409       17319.00     75639.20
  141.57        2964.25           1412       19327.00     84434.62
  141.60        2964.50           1416       21614.00     94457.79
  141.63        2964.75           1419       23438.00    102456.10
  141.66        2965.00           1422       25364.00    110905.90
  141.70        2965.25           1426       27823.00    121700.30
  141.73        2965.50           1429       29387.00    128569.50
  141.76        2965.75           1432       31413.00    137472.10
  141.79        2966.00           1436       33897.00    148393.70
  141.82        2966.25           1439       35681.00    156242.00
  141.85        2966.50           1442       37146.00    162689.70
  141.88        2966.75           1446       38841.00    170152.80
  141.91        2967.00           1449       39070.00    171161.30
  141.94        2967.25           1452       39084.00    171223.00
  141.97        2967.50           1456       39039.00    171024.80
  142.00        2967.75           1459       39046.00    171055.60
  142.04        2968.00           1462       38778.00    169875.30
  142.07        2968.25           1466       37468.00    164107.20
  142.10        2968.50           1469       36085.00    158019.80
  142.13        2968.75           1472       34139.00    149458.10
  142.16        2969.00           1476       31850.00    139393.00
  142.19        2969.25           1479       29928.00    130946.30
  142.22        2969.50           1482       28233.00    123500.80
  142.25        2969.75           1486       25631.00    112077.60
  142.28        2970.00           1489       24030.00    105052.90
  142.31        2970.25           1492       22369.00     97768.03
  142.34        2970.50           1496       20112.00     87874.33
  142.37        2970.75           1499       18226.00     79611.46
  142.40        2971.00           1502       16381.00     71532.16
  142.43        2971.25           1506       14029.00     61238.38
  142.47        2971.50           1509       12272.00     53552.84
  142.50        2971.75           1513        9850.00     42964.24
  142.53        2972.00           1516        7959.00     34701.76
  142.56        2972.25           1519        6226.00     27133.24
  142.59        2972.50           1523        3890.00     16936.68
  142.62        2972.75           1526        2249.00      9777.50
  142.65        2973.00           1529        1023.00      4430.84
  142.68        2973.25           1533         512.00      2202.85
  142.71        2973.50           1536         406.00      1740.72
  142.74        2973.75           1539         348.00      1487.86
  142.77        2974.00           1543         296.00      1261.16
  142.80        2974.25           1546         239.00      1012.67
  142.84        2974.50           1549         179.00       751.11
  142.87        2974.75           1553         140.00       581.09
  142.90        2975.00           1556         119.00       489.55
  142.93        2975.25           1559         102.00       415.44
  142.96        2975.50           1563         103.00       419.80
  142.99        2975.75           1566          94.00       380.56
  143.02        2976.00           1569          95.00       384.92
  143.05        2976.25           1573         103.00       419.80
  143.08        2976.50           1576         100.00       406.72
  143.11        2976.75           1579          87.00       350.05
  143.14        2977.00           1583          95.00       384.92
  143.18        2977.25           1586          89.00       358.77
  143.21        2977.50           1590          95.00       384.92
  143.24        2977.75           1593          95.00       384.92
  143.27        2978.00           1596          93.00       376.20
  143.30        2978.25           1600         100.00       406.72
  143.33        2978.50           1603          87.00       350.05
  143.36        2978.75           1606          90.00       363.13
  143.39        2979.00           1610          94.00       380.56
  143.42        2979.25           1613          89.00       358.77
  143.45        2979.50           1616          84.00       336.97
  143.48        2979.75           1620          93.00       376.20
  143.51        2980.00           1623         101.00       411.08
  143.54        2980.25           1626          97.00       393.64
  143.58        2980.50           1630          82.00       328.25
  143.61        2980.75           1633          88.00       354.41
  143.64        2981.00           1637          88.00       354.41
  143.67        2981.25           1640          95.00       384.92
  143.70        2981.50           1643          80.00       319.53
  143.73        2981.75           1647          94.00       380.56
  143.76        2982.00           1650          93.00       376.20
  143.79        2982.25           1653          93.00       376.20
  143.82        2982.50           1657          96.00       389.28
  143.85        2982.75           1660          94.00       380.56
  143.89        2983.00           1663          89.00       358.77
  143.92        2983.25           1667          96.00       389.28
  143.95        2983.50           1670          87.00       350.05
  143.98        2983.75           1673          88.00       354.41
  144.01        2984.00           1677          96.00       389.28
HS scan finished at 02:24:13
end
************************************************************
  HS Scan of (1) Internal mercury lamp
************************************************************
Integration time is 0.2294 seconds per sample
dh190717Manchester 53.47 2.23 2.965129pr1000
************************************************************
Dead Time -------------------------  3E-08 
Number of Cycles Used -------------  4 
Starting Wavelength (Angstroms) ---  2950 
Final Wavelength (Angstoms) -------  2984 
Wavelength Increment (Angstroms) --  .25 
Filter Wheel #1 Position ---------- (1) Ground quartz diffuser (ND=2.32)
Filter Wheel #2 Position ---------- (1) Neutral Density 0.494



************************************************************
HS scan start time = 21:12:01
Dark Count =  6.6 


Time (GMT)  Wavelength (Ang)  Step Number  Raw Counts  Counts/Second

 1272.39        2950.00           1222         108.00       442.03
 1272.46        2950.25           1226         101.00       411.51
 1272.49        2950.50           1229         101.00       411.51
 1272.52        2950.75           1232         100.00       407.15
 1272.55        2951.00           1236         111.00       455.11
 1272.58        2951.25           1239         107.00       437.67
 1272.61        2951.50           1242          96.00       389.72
 1272.64        2951.75           1246         106.00       433.31
 1272.68        2952.00           1249         106.00       433.31
 1272.71        2952.25           1252         100.00       407.15
 1272.74        2952.50           1256         106.00       433.31
 1272.77        2952.75           1259         111.00       455.11
 1272.80        2953.00           1262         102.00       415.87
 1272.83        2953.25           1266          99.00       402.79
 1272.86        2953.50           1269         100.00       407.15
 1272.89        2953.75           1272         106.00       433.31
 1272.92        2954.00           1276         102.00       415.87
 1272.95        2954.25           1279         107.00       437.67
 1272.98        2954.50           1282          98.00       398.44
 1273.01        2954.75           1286          96.00       389.72
 1273.04        2955.00           1289         111.00       455.11
 1273.07        2955.25           1292         107.00       437.67
 1273.10        2955.50           1296         104.00       424.59
 1273.14        2955.75           1299         107.00       437.67
 1273.17        2956.00           1302          99.00       402.79
 1273.20        2956.25           1306         107.00       437.67
 1273.23        2956.50           1309          99.00       402.79
 1273.26        2956.75           1312         100.00       407.15
 1273.29        2957.00           1316         105.00       428.95
 1273.32        2957.25           1319         100.00       407.15
 1273.35        2957.50           1322          96.00       389.72
 1273.38        2957.75           1326          99.00       402.79
 1273.42        2958.00           1329         100.00       407.15
 1273.45        2958.25           1332         101.00       411.51
 1273.48        2958.50           1336         101.00       411.51
 1273.51        2958.75           1339          99.00       402.79
 1273.54        2959.00           1342         100.00       407.15
 1273.57        2959.25           1346         104.00       424.59
 1273.60        2959.50           1349         115.00       472.54
 1273.63        2959.75           1352         120.00       494.34
 1273.66        2960.00           1356         152.00       633.84
 1273.69        2960.25           1359         177.00       742.82
 1273.73        2960.50           1362         234.00       991.31
 1273.76        2960.75           1366         290.00      1235.44
 1273.79        2961.00           1369         344.00      1470.86
 1273.82        2961.25           1372         388.00      1662.68
 1273.85        2961.50           1376         459.00      1972.22
 1273.88        2961.75           1379         606.00      2613.11
 1273.91        2962.00           1382        1280.00      5551.93
 1273.94        2962.25           1386        3283.00     14288.60
 1273.97        2962.50           1389        4991.00     21742.16
 1274.00        2962.75           1392        6745.00     29399.94
 1274.03        2963.00           1396        9111.00     39735.22
 1274.06        2963.25           1399       10800.00     47117.13
 1274.10        2963.50           1402       12579.00     54895.91
 1274.13        2963.75           1406       14887.00     64993.21
 1274.16        2964.00           1409       16662.00     72762.85
 1274.19        2964.25           1412       18547.00     81017.96
 1274.22        2964.50           1416       21060.00     92029.68
 1274.25        2964.75           1419       22672.00     99097.14
 1274.28        2965.00           1422       24837.00    108593.80
 1274.31        2965.25           1426       27374.00    119729.20
 1274.35        2965.50           1429       29222.00    127845.10
 1274.38        2965.75           1432       30957.00    135468.40
 1274.41        2966.00           1436       33296.00    145751.00
 1274.44        2966.25           1439       35044.00    153439.60
 1274.47        2966.50           1442       36697.00    160713.70
 1274.50        2966.75           1446       38565.00    168937.70
 1274.53        2967.00           1449       39323.00    172276.10
 1274.56        2967.25           1452       39562.00    173328.80
 1274.59        2967.50           1456       39224.00    171840.00
 1274.63        2967.75           1459       39301.00    172179.10
 1274.66        2968.00           1462       39136.00    171452.40
 1274.69        2968.25           1466       38068.00    166749.30
 1274.72        2968.50           1469       36935.00    161761.30
 1274.75        2968.75           1472       35127.00    153804.80
 1274.78        2969.00           1476       32871.00    143882.10
 1274.81        2969.25           1479       31204.00    136553.90
 1274.84        2969.50           1482       29330.00    128319.50
 1274.87        2969.75           1486       26856.00    117455.00
 1274.91        2970.00           1489       25112.00    109800.50
 1274.94        2970.25           1492       23375.00    102180.20
 1274.97        2970.50           1496       21107.00     92235.69
 1275.00        2970.75           1499       19155.00     83681.50
 1275.03        2971.00           1502       17292.00     75521.40
 1275.06        2971.25           1506       14707.00     64205.51
 1275.09        2971.50           1509       12927.00     56417.99
 1275.12        2971.75           1513       10436.00     45525.96
 1275.15        2972.00           1516        8536.00     37222.89
 1275.18        2972.25           1519        6752.00     29430.51
 1275.21        2972.50           1523        4542.00     19782.44
 1275.24        2972.75           1526        2870.00     12486.80
 1275.28        2973.00           1529        1365.00      5922.59
 1275.31        2973.25           1533         566.00      2438.71
 1275.34        2973.50           1536         399.00      1710.64
 1275.37        2973.75           1539         345.00      1475.22
 1275.40        2974.00           1543         292.00      1244.16
 1275.43        2974.25           1546         232.00       982.59
 1275.46        2974.50           1549         171.00       716.67
 1275.49        2974.75           1553         131.00       542.29
 1275.52        2975.00           1556         114.00       468.18
 1275.55        2975.25           1559         110.00       450.75
 1275.59        2975.50           1563          96.00       389.72
 1275.62        2975.75           1566          92.00       372.28
 1275.65        2976.00           1569          92.00       372.28
 1275.68        2976.25           1573          90.00       363.56
 1275.71        2976.50           1576          90.00       363.56
 1275.74        2976.75           1579          99.00       402.79
 1275.77        2977.00           1583          91.00       367.92
 1275.80        2977.25           1586          95.00       385.36
 1275.83        2977.50           1590          97.00       394.08
 1275.86        2977.75           1593          91.00       367.92
 1275.89        2978.00           1596          98.00       398.44
 1275.92        2978.25           1600          93.00       376.64
 1275.95        2978.50           1603          96.00       389.72
 1275.99        2978.75           1606          93.00       376.64
 1276.02        2979.00           1610          95.00       385.36
 1276.05        2979.25           1613         100.00       407.15
 1276.08        2979.50           1616          99.00       402.79
 1276.11        2979.75           1620          99.00       402.79
 1276.14        2980.00           1623          87.00       350.48
 1276.17        2980.25           1626          99.00       402.79
 1276.20        2980.50           1630          87.00       350.48
 1276.23        2980.75           1633         102.00       415.87
 1276.26        2981.00           1637          96.00       389.72
 1276.29        2981.25           1640          86.00       346.12
 1276.32        2981.50           1643          90.00       363.56
 1276.35        2981.75           1647          87.00       350.48
 1276.39        2982.00           1650          82.00       328.69
 1276.42        2982.25           1653          90.00       363.56
 1276.45        2982.50           1657          91.00       367.92
 1276.48        2982.75           1660          86.00       346.12
 1276.51        2983.00           1663          93.00       376.64
 1276.54        2983.25           1667          93.00       376.64
 1276.57        2983.50           1670          92.00       372.28
 1276.60        2983.75           1673          88.00       354.84
 1276.63        2984.00           1677          92.00       372.28
HS scan finished at 21:16:51
end
