************************************************************
  HS Scan of (1) Internal mercury lamp
************************************************************
Integration time is 0.2294 seconds per sample
dh280717Manchester 53.47 2.23 2.804185pr1000
************************************************************
Dead Time -------------------------  3E-08 
Number of Cycles Used -------------  4 
Starting Wavelength (Angstroms) ---  2950 
Final Wavelength (Angstoms) -------  2984 
Wavelength Increment (Angstroms) --  .25 
Filter Wheel #1 Position ---------- (1) Ground quartz diffuser (ND=2.32)
Filter Wheel #2 Position ---------- (1) Neutral Density 0.494



************************************************************
HS scan start time = 01:29:47
Dark Count =  6.3 


Time (GMT)  Wavelength (Ang)  Step Number  Raw Counts  Counts/Second

   90.16        2950.00           1222         101.00       412.82
   90.23        2950.25           1226          93.00       377.95
   90.26        2950.50           1229          95.00       386.67
   90.29        2950.75           1232          90.00       364.87
   90.32        2951.00           1236          90.00       364.87
   90.35        2951.25           1239         102.00       417.18
   90.38        2951.50           1242          88.00       356.15
   90.41        2951.75           1246          96.00       391.02
   90.44        2952.00           1249         107.00       438.98
   90.47        2952.25           1252          90.00       364.87
   90.51        2952.50           1256          95.00       386.67
   90.54        2952.75           1259          96.00       391.02
   90.57        2953.00           1262          93.00       377.95
   90.60        2953.25           1266          99.00       404.10
   90.63        2953.50           1269         100.00       408.46
   90.66        2953.75           1272          95.00       386.67
   90.69        2954.00           1276          89.00       360.51
   90.72        2954.25           1279         106.00       434.62
   90.75        2954.50           1282          90.00       364.87
   90.78        2954.75           1286          96.00       391.02
   90.81        2955.00           1289         111.00       456.41
   90.84        2955.25           1292          94.00       382.31
   90.87        2955.50           1296          95.00       386.67
   90.91        2955.75           1299          91.00       369.23
   90.94        2956.00           1302          96.00       391.02
   90.97        2956.25           1306          96.00       391.02
   91.00        2956.50           1309          96.00       391.02
   91.03        2956.75           1312          93.00       377.95
   91.06        2957.00           1316          95.00       386.67
   91.09        2957.25           1319         101.00       412.82
   91.12        2957.50           1322         109.00       447.70
   91.15        2957.75           1326          93.00       377.95
   91.18        2958.00           1329          97.00       395.38
   91.21        2958.25           1332          90.00       364.87
   91.25        2958.50           1336          88.00       356.15
   91.28        2958.75           1339          91.00       369.23
   91.31        2959.00           1342         103.00       421.54
   91.34        2959.25           1346          92.00       373.59
   91.37        2959.50           1349         102.00       417.18
   91.40        2959.75           1352         115.00       473.85
   91.43        2960.00           1356         146.00       608.99
   91.46        2960.25           1359         191.00       805.16
   91.49        2960.50           1362         221.00       935.95
   91.52        2960.75           1366         280.00      1193.16
   91.55        2961.00           1369         327.00      1398.05
   91.58        2961.25           1372         361.00      1546.28
   91.61        2961.50           1376         442.00      1899.41
   91.64        2961.75           1379         650.00      2806.25
   91.68        2962.00           1382        1320.00      5727.66
   91.71        2962.25           1386        3049.00     13269.01
   91.74        2962.50           1389        4486.00     19539.35
   91.77        2962.75           1392        6036.00     26305.41
   91.80        2963.00           1396        8286.00     36132.00
   91.83        2963.25           1399        9751.00     42533.32
   91.86        2963.50           1402       11581.00     50532.96
   91.89        2963.75           1406       13846.00     60439.48
   91.92        2964.00           1409       15477.00     67576.71
   91.95        2964.25           1412       17280.00     75470.16
   91.99        2964.50           1416       19564.00     85474.78
   92.02        2964.75           1419       21327.00     93201.38
   92.05        2965.00           1422       22921.00    100190.40
   92.08        2965.25           1426       25259.00    110446.90
   92.11        2965.50           1429       26870.00    117517.80
   92.14        2965.75           1432       28476.00    124569.70
   92.17        2966.00           1436       30691.00    134300.70
   92.20        2966.25           1439       32189.00    140885.00
   92.23        2966.50           1442       33813.00    148026.00
   92.27        2966.75           1446       35366.00    154857.70
   92.30        2967.00           1449       35935.00    157361.40
   92.33        2967.25           1452       36302.00    158976.50
   92.36        2967.50           1456       36274.00    158853.30
   92.39        2967.75           1459       36147.00    158294.40
   92.42        2968.00           1462       36030.00    157779.50
   92.45        2968.25           1466       35226.00    154241.70
   92.48        2968.50           1469       34006.00    148874.90
   92.51        2968.75           1472       32341.00    141553.20
   92.55        2969.00           1476       30517.00    133536.10
   92.58        2969.25           1479       28714.00    125615.00
   92.61        2969.50           1482       27238.00    119133.40
   92.64        2969.75           1486       25067.00    109604.40
   92.67        2970.00           1489       23290.00    101808.70
   92.70        2970.25           1492       21607.00     94428.84
   92.73        2970.50           1496       19451.00     84979.66
   92.76        2970.75           1499       17517.00     76508.00
   92.79        2971.00           1502       16208.00     70776.54
   92.82        2971.25           1506       13778.00     60141.98
   92.85        2971.50           1509       12099.00     52798.05
   92.89        2971.75           1513        9878.00     43088.36
   92.92        2972.00           1516        8127.00     35437.40
   92.95        2972.25           1519        6661.00     29034.44
   92.98        2972.50           1523        4547.00     19805.58
   93.01        2972.75           1526        2960.00     12880.74
   93.04        2973.00           1529        1565.00      6796.07
   93.07        2973.25           1533         564.00      2431.30
   93.10        2973.50           1536         382.00      1637.83
   93.13        2973.75           1539         318.00      1358.82
   93.16        2974.00           1543         271.00      1153.92
   93.19        2974.25           1546         210.00       887.99
   93.23        2974.50           1549         166.00       696.18
   93.26        2974.75           1553         121.00       500.01
   93.29        2975.00           1556         106.00       434.62
   93.32        2975.25           1559          87.00       351.79
   93.35        2975.50           1563          89.00       360.51
   93.38        2975.75           1566          91.00       369.23
   93.41        2976.00           1569          93.00       377.95
   93.44        2976.25           1573          85.00       343.07
   93.47        2976.50           1576          86.00       347.43
   93.50        2976.75           1579          84.00       338.71
   93.53        2977.00           1583          90.00       364.87
   93.56        2977.25           1586          86.00       347.43
   93.59        2977.50           1590          86.00       347.43
   93.62        2977.75           1593          77.00       308.20
   93.65        2978.00           1596          89.00       360.51
   93.69        2978.25           1600          78.00       312.56
   93.72        2978.50           1603          88.00       356.15
   93.75        2978.75           1606          85.00       343.07
   93.78        2979.00           1610          94.00       382.31
   93.81        2979.25           1613          95.00       386.67
   93.84        2979.50           1616          86.00       347.43
   93.87        2979.75           1620          84.00       338.71
   93.90        2980.00           1623          92.00       373.59
   93.93        2980.25           1626          81.00       325.64
   93.96        2980.50           1630          73.00       290.76
   93.99        2980.75           1633          75.00       299.48
   94.02        2981.00           1637          80.00       321.28
   94.06        2981.25           1640          83.00       334.35
   94.09        2981.50           1643          83.00       334.35
   94.12        2981.75           1647          79.00       316.92
   94.15        2982.00           1650          76.00       303.84
   94.18        2982.25           1653          81.00       325.64
   94.21        2982.50           1657          82.00       329.99
   94.24        2982.75           1660          73.00       290.76
   94.27        2983.00           1663          78.00       312.56
   94.30        2983.25           1667          76.00       303.84
   94.33        2983.50           1670          88.00       356.15
   94.36        2983.75           1673          77.00       308.20
   94.39        2984.00           1677          89.00       360.51
HS scan finished at 01:34:36
end
************************************************************
  HS Scan of (1) Internal mercury lamp
************************************************************
Integration time is 0.2294 seconds per sample
dh280717Manchester 53.47 2.23 2.857833pr1000
************************************************************
Dead Time -------------------------  3E-08 
Number of Cycles Used -------------  4 
Starting Wavelength (Angstroms) ---  2950 
Final Wavelength (Angstoms) -------  2984 
Wavelength Increment (Angstroms) --  .25 
Filter Wheel #1 Position ---------- (1) Ground quartz diffuser (ND=2.32)
Filter Wheel #2 Position ---------- (1) Neutral Density 0.494



************************************************************
HS scan start time = 21:12:03
Dark Count =  4.9 


Time (GMT)  Wavelength (Ang)  Step Number  Raw Counts  Counts/Second

 1272.41        2950.00           1222         100.00       414.56
 1272.48        2950.25           1226          90.00       370.97
 1272.51        2950.50           1229          85.00       349.18
 1272.54        2950.75           1232          98.00       405.85
 1272.57        2951.00           1236         107.00       445.08
 1272.60        2951.25           1239          86.00       353.53
 1272.63        2951.50           1242         114.00       475.60
 1272.67        2951.75           1246          97.00       401.49
 1272.70        2952.00           1249          97.00       401.49
 1272.73        2952.25           1252          85.00       349.18
 1272.76        2952.50           1256          96.00       397.13
 1272.79        2952.75           1259         103.00       427.64
 1272.82        2953.00           1262         105.00       436.36
 1272.85        2953.25           1266          95.00       392.77
 1272.88        2953.50           1269          93.00       384.05
 1272.91        2953.75           1272          99.00       410.21
 1272.94        2954.00           1276         100.00       414.56
 1272.97        2954.25           1279          89.00       366.61
 1273.00        2954.50           1282          90.00       370.97
 1273.03        2954.75           1286         100.00       414.56
 1273.06        2955.00           1289          98.00       405.85
 1273.09        2955.25           1292          89.00       366.61
 1273.13        2955.50           1296         101.00       418.92
 1273.16        2955.75           1299          94.00       388.41
 1273.19        2956.00           1302          99.00       410.21
 1273.22        2956.25           1306          99.00       410.21
 1273.25        2956.50           1309          88.00       362.25
 1273.28        2956.75           1312          96.00       397.13
 1273.31        2957.00           1316         100.00       414.56
 1273.34        2957.25           1319          91.00       375.33
 1273.37        2957.50           1322          82.00       336.10
 1273.40        2957.75           1326          96.00       397.13
 1273.43        2958.00           1329          94.00       388.41
 1273.47        2958.25           1332          93.00       384.05
 1273.50        2958.50           1336          99.00       410.21
 1273.53        2958.75           1339          88.00       362.25
 1273.56        2959.00           1342          97.00       401.49
 1273.59        2959.25           1346          90.00       370.97
 1273.62        2959.50           1349         108.00       449.44
 1273.65        2959.75           1352         107.00       445.08
 1273.68        2960.00           1356         137.00       575.86
 1273.71        2960.25           1359         180.00       763.31
 1273.74        2960.50           1362         207.00       881.02
 1273.77        2960.75           1366         261.00      1116.43
 1273.80        2961.00           1369         315.00      1351.84
 1273.83        2961.25           1372         353.00      1517.51
 1273.86        2961.50           1376         406.00      1748.57
 1273.89        2961.75           1379         533.00      2302.25
 1273.93        2962.00           1382         916.00      3972.14
 1273.96        2962.25           1386        2621.00     11408.00
 1273.99        2962.50           1389        4222.00     18393.32
 1274.02        2962.75           1392        5913.00     25774.50
 1274.05        2963.00           1396        7864.00     34294.64
 1274.08        2963.25           1399        9426.00     41119.13
 1274.11        2963.50           1402       11088.00     48383.61
 1274.14        2963.75           1406       13545.00     59128.77
 1274.17        2964.00           1409       15137.00     66094.75
 1274.20        2964.25           1412       16897.00     73799.22
 1274.24        2964.50           1416       19214.00     83947.41
 1274.27        2964.75           1419       20877.00     91234.99
 1274.30        2965.00           1422       22581.00     98705.54
 1274.33        2965.25           1426       24960.00    109141.00
 1274.36        2965.50           1429       26531.00    116035.80
 1274.39        2965.75           1432       28411.00    124290.40
 1274.42        2966.00           1436       30572.00    133783.90
 1274.45        2966.25           1439       32201.00    140943.90
 1274.48        2966.50           1442       33819.00    148058.50
 1274.51        2966.75           1446       35734.00    156483.10
 1274.55        2967.00           1449       36234.00    158683.40
 1274.58        2967.25           1452       36580.00    160206.20
 1274.61        2967.50           1456       36594.00    160267.90
 1274.64        2967.75           1459       36489.00    159805.70
 1274.67        2968.00           1462       36532.00    159995.00
 1274.70        2968.25           1466       35750.00    156553.50
 1274.73        2968.50           1469       34433.00    150759.20
 1274.76        2968.75           1472       32927.00    144135.90
 1274.79        2969.00           1476       30812.00    134838.60
 1274.82        2969.25           1479       29041.00    127057.50
 1274.86        2969.50           1482       27411.00    119899.10
 1274.89        2969.75           1486       25231.00    110330.10
 1274.92        2970.00           1489       23536.00    102893.90
 1274.95        2970.25           1492       21886.00     95658.18
 1274.98        2970.50           1496       19776.00     86409.85
 1275.01        2970.75           1499       18115.00     79133.15
 1275.04        2971.00           1502       16338.00     71351.78
 1275.07        2971.25           1506       14109.00     61596.29
 1275.10        2971.50           1509       12439.00     54291.06
 1275.14        2971.75           1513       10183.00     44427.53
 1275.17        2972.00           1516        8505.00     37094.88
 1275.20        2972.25           1519        6868.00     29944.50
 1275.23        2972.50           1523        4786.00     20854.81
 1275.26        2972.75           1526        3147.00     13702.67
 1275.29        2973.00           1529        1687.00      7334.22
 1275.32        2973.25           1533         612.00      2646.68
 1275.35        2973.50           1536         419.00      1805.24
 1275.38        2973.75           1539         349.00      1500.07
 1275.41        2974.00           1543         282.00      1207.98
 1275.44        2974.25           1546         223.00       950.77
 1275.47        2974.50           1549         184.00       780.75
 1275.51        2974.75           1553         144.00       606.38
 1275.54        2975.00           1556         108.00       449.44
 1275.57        2975.25           1559         100.00       414.56
 1275.60        2975.50           1563          87.00       357.89
 1275.63        2975.75           1566          94.00       388.41
 1275.66        2976.00           1569          92.00       379.69
 1275.69        2976.25           1573          93.00       384.05
 1275.72        2976.50           1576          89.00       366.61
 1275.75        2976.75           1579          80.00       327.38
 1275.78        2977.00           1583          92.00       379.69
 1275.81        2977.25           1586          85.00       349.18
 1275.84        2977.50           1590          82.00       336.10
 1275.87        2977.75           1593          93.00       384.05
 1275.91        2978.00           1596          80.00       327.38
 1275.94        2978.25           1600          83.00       340.46
 1275.97        2978.50           1603          77.00       314.30
 1276.00        2978.75           1606          84.00       344.82
 1276.03        2979.00           1610          81.00       331.74
 1276.06        2979.25           1613          85.00       349.18
 1276.09        2979.50           1616          90.00       370.97
 1276.12        2979.75           1620          85.00       349.18
 1276.15        2980.00           1623          84.00       344.82
 1276.18        2980.25           1626          86.00       353.53
 1276.21        2980.50           1630          91.00       375.33
 1276.25        2980.75           1633          86.00       353.53
 1276.28        2981.00           1637          80.00       327.38
 1276.31        2981.25           1640          93.00       384.05
 1276.34        2981.50           1643          94.00       388.41
 1276.37        2981.75           1647          86.00       353.53
 1276.40        2982.00           1650          87.00       357.89
 1276.43        2982.25           1653          88.00       362.25
 1276.46        2982.50           1657          81.00       331.74
 1276.49        2982.75           1660          87.00       357.89
 1276.52        2983.00           1663          78.00       318.66
 1276.55        2983.25           1667          82.00       336.10
 1276.58        2983.50           1670          78.00       318.66
 1276.61        2983.75           1673          89.00       366.61
 1276.64        2984.00           1677          82.00       336.10
HS scan finished at 21:16:52
end
