************************************************************
  HS Scan of (1) Internal mercury lamp
************************************************************
Integration time is 0.2294 seconds per sample
dh260718Manchester 53.47 2.23 3.072425pr1000
************************************************************
Dead Time -------------------------  3E-08 
Number of Cycles Used -------------  4 
Starting Wavelength (Angstroms) ---  2950 
Final Wavelength (Angstoms) -------  2984 
Wavelength Increment (Angstroms) --  .25 
Filter Wheel #1 Position ---------- (1) Ground quartz diffuser (ND=2.32)
Filter Wheel #2 Position ---------- (1) Neutral Density 0.494



************************************************************
HS scan start time = 02:21:48
Dark Count =  5.7 


Time (GMT)  Wavelength (Ang)  Step Number  Raw Counts  Counts/Second

  142.17        2950.00           1222          57.00       223.63
  142.24        2950.25           1226          53.00       206.19
  142.27        2950.50           1229          61.00       241.07
  142.30        2950.75           1232          53.00       206.19
  142.33        2951.00           1236          49.00       188.75
  142.36        2951.25           1239          53.00       206.19
  142.40        2951.50           1242          54.00       210.55
  142.43        2951.75           1246          54.00       210.55
  142.46        2952.00           1249          55.00       214.91
  142.49        2952.25           1252          55.00       214.91
  142.52        2952.50           1256          58.00       227.99
  142.55        2952.75           1259          55.00       214.91
  142.58        2953.00           1262          49.00       188.75
  142.61        2953.25           1266          48.00       184.40
  142.64        2953.50           1269          60.00       236.71
  142.67        2953.75           1272          57.00       223.63
  142.71        2954.00           1276          52.00       201.83
  142.74        2954.25           1279          58.00       227.99
  142.77        2954.50           1282          54.00       210.55
  142.80        2954.75           1286          59.00       232.35
  142.83        2955.00           1289          54.00       210.55
  142.86        2955.25           1292          59.00       232.35
  142.89        2955.50           1296          58.00       227.99
  142.92        2955.75           1299          52.00       201.83
  142.95        2956.00           1302          55.00       214.91
  142.98        2956.25           1306          50.00       193.11
  143.01        2956.50           1309          56.00       219.27
  143.04        2956.75           1312          50.00       193.11
  143.08        2957.00           1316          48.00       184.40
  143.11        2957.25           1319          53.00       206.19
  143.14        2957.50           1322          54.00       210.55
  143.17        2957.75           1326          59.00       232.35
  143.20        2958.00           1329          55.00       214.91
  143.23        2958.25           1332          54.00       210.55
  143.26        2958.50           1336          47.00       180.04
  143.29        2958.75           1339          46.00       175.68
  143.32        2959.00           1342          53.00       206.19
  143.35        2959.25           1346          53.00       206.19
  143.38        2959.50           1349          57.00       223.63
  143.42        2959.75           1352          71.00       284.66
  143.45        2960.00           1356          98.00       402.36
  143.48        2960.25           1359         115.00       476.47
  143.51        2960.50           1362         147.00       615.97
  143.54        2960.75           1366         193.00       816.50
  143.57        2961.00           1369         240.00      1021.39
  143.60        2961.25           1372         283.00      1208.85
  143.63        2961.50           1376         367.00      1575.05
  143.66        2961.75           1379         735.00      3179.47
  143.69        2962.00           1382        1728.00      7509.54
  143.72        2962.25           1386        3628.00     15797.81
  143.76        2962.50           1389        5195.00     22636.56
  143.79        2962.75           1392        6642.00     28954.09
  143.82        2963.00           1396        8473.00     36951.58
  143.85        2963.25           1399       10079.00     43969.48
  143.88        2963.50           1402       11523.00     50281.98
  143.91        2963.75           1406       13639.00     59536.50
  143.94        2964.00           1409       15149.00     66143.76
  143.97        2964.25           1412       16621.00     72587.28
  144.00        2964.50           1416       18623.00     81354.82
  144.04        2964.75           1419       20097.00     87812.99
  144.07        2965.00           1422       21530.00     94093.92
  144.10        2965.25           1426       23527.00    102850.90
  144.13        2965.50           1429       25299.00    110625.00
  144.16        2965.75           1432       26828.00    117336.00
  144.19        2966.00           1436       28796.00    125977.80
  144.22        2966.25           1439       30243.00    132334.70
  144.25        2966.50           1442       31546.00    138061.10
  144.29        2966.75           1446       32345.00    141573.40
  144.32        2967.00           1449       32698.00    143125.40
  144.35        2967.25           1452       32824.00    143679.40
  144.38        2967.50           1456       32803.00    143587.10
  144.41        2967.75           1459       32578.00    142597.80
  144.44        2968.00           1462       32262.00    141208.60
  144.47        2968.25           1466       30864.00    135063.60
  144.50        2968.50           1469       29200.00    127752.40
  144.53        2968.75           1472       27942.00    122227.20
  144.56        2969.00           1476       25987.00    113644.40
  144.60        2969.25           1479       24321.00    106333.90
  144.63        2969.50           1482       22987.00    100482.50
  144.66        2969.75           1486       20933.00     91476.96
  144.69        2970.00           1489       19665.00     85919.96
  144.72        2970.25           1492       18055.00     78866.86
  144.75        2970.50           1496       16162.00     70577.78
  144.78        2970.75           1499       14690.00     64135.05
  144.81        2971.00           1502       13200.00     57616.07
  144.84        2971.25           1506       11092.00     48397.59
  144.88        2971.50           1509        9488.00     41386.58
  144.91        2971.75           1513        7528.00     32823.50
  144.94        2972.00           1516        6017.00     26225.07
  144.97        2972.25           1519        4515.00     19668.53
  145.00        2972.50           1523        2502.00     10885.42
  145.03        2972.75           1526        1217.00      5281.13
  145.06        2973.00           1529         616.00      2660.63
  145.09        2973.25           1533         390.00      1675.32
  145.12        2973.50           1536         311.00      1330.92
  145.15        2973.75           1539         273.00      1165.25
  145.18        2974.00           1543         202.00       855.73
  145.21        2974.25           1546         165.00       694.43
  145.24        2974.50           1549         129.00       537.50
  145.28        2974.75           1553          97.00       398.00
  145.31        2975.00           1556          74.00       297.74
  145.34        2975.25           1559          61.00       241.07
  145.37        2975.50           1563          50.00       193.11
  145.40        2975.75           1566          42.00       158.24
  145.43        2976.00           1569          47.00       180.04
  145.46        2976.25           1573          58.00       227.99
  145.49        2976.50           1576          55.00       214.91
  145.52        2976.75           1579          50.00       193.11
  145.55        2977.00           1583          57.00       223.63
  145.59        2977.25           1586          49.00       188.75
  145.62        2977.50           1590          52.00       201.83
  145.65        2977.75           1593          52.00       201.83
  145.68        2978.00           1596          49.00       188.75
  145.71        2978.25           1600          53.00       206.19
  145.74        2978.50           1603          50.00       193.11
  145.77        2978.75           1606          53.00       206.19
  145.80        2979.00           1610          45.00       171.32
  145.83        2979.25           1613          53.00       206.19
  145.86        2979.50           1616          50.00       193.11
  145.90        2979.75           1620          46.00       175.68
  145.93        2980.00           1623          50.00       193.11
  145.96        2980.25           1626          49.00       188.75
  145.99        2980.50           1630          45.00       171.32
  146.02        2980.75           1633          50.00       193.11
  146.05        2981.00           1637          52.00       201.83
  146.08        2981.25           1640          50.00       193.11
  146.11        2981.50           1643          47.00       180.04
  146.14        2981.75           1647          53.00       206.19
  146.17        2982.00           1650          48.00       184.40
  146.20        2982.25           1653          54.00       210.55
  146.23        2982.50           1657          50.00       193.11
  146.27        2982.75           1660          44.00       166.96
  146.30        2983.00           1663          58.00       227.99
  146.33        2983.25           1667          54.00       210.55
  146.36        2983.50           1670          44.00       166.96
  146.39        2983.75           1673          54.00       210.55
  146.42        2984.00           1677          53.00       206.19
HS scan finished at 02:26:38
end
