************************************************************
  HS Scan of (1) Internal mercury lamp
************************************************************
Integration time is 0.2294 seconds per sample
dh230718Manchester 53.47 2.23 3.018777pr1000
************************************************************
Dead Time -------------------------  3E-08 
Number of Cycles Used -------------  4 
Starting Wavelength (Angstroms) ---  2950 
Final Wavelength (Angstoms) -------  2984 
Wavelength Increment (Angstroms) --  .25 
Filter Wheel #1 Position ---------- (1) Ground quartz diffuser (ND=2.32)
Filter Wheel #2 Position ---------- (1) Neutral Density 0.494



************************************************************
HS scan start time = 01:42:19
Dark Count =  8.600001 


Time (GMT)  Wavelength (Ang)  Step Number  Raw Counts  Counts/Second

  102.69        2950.00           1222          58.00       215.35
  102.76        2950.25           1226          50.00       180.47
  102.79        2950.50           1229          59.00       219.71
  102.82        2950.75           1232          46.00       163.03
  102.85        2951.00           1236          57.00       210.99
  102.89        2951.25           1239          56.00       206.63
  102.92        2951.50           1242          53.00       193.55
  102.95        2951.75           1246          57.00       210.99
  102.98        2952.00           1249          57.00       210.99
  103.01        2952.25           1252          55.00       202.27
  103.04        2952.50           1256          59.00       219.71
  103.07        2952.75           1259          53.00       193.55
  103.10        2953.00           1262          52.00       189.19
  103.13        2953.25           1266          59.00       219.71
  103.17        2953.50           1269          52.00       189.19
  103.20        2953.75           1272          58.00       215.35
  103.23        2954.00           1276          54.00       197.91
  103.26        2954.25           1279          55.00       202.27
  103.29        2954.50           1282          59.00       219.71
  103.32        2954.75           1286          57.00       210.99
  103.35        2955.00           1289          50.00       180.47
  103.38        2955.25           1292          56.00       206.63
  103.41        2955.50           1296          51.00       184.83
  103.44        2955.75           1299          55.00       202.27
  103.47        2956.00           1302          57.00       210.99
  103.51        2956.25           1306          56.00       206.63
  103.54        2956.50           1309          48.00       171.75
  103.57        2956.75           1312          53.00       193.55
  103.60        2957.00           1316          56.00       206.63
  103.63        2957.25           1319          52.00       189.19
  103.66        2957.50           1322          52.00       189.19
  103.69        2957.75           1326          53.00       193.55
  103.72        2958.00           1329          68.00       258.94
  103.75        2958.25           1332          63.00       237.14
  103.78        2958.50           1336          57.00       210.99
  103.82        2958.75           1339          57.00       210.99
  103.85        2959.00           1342          63.00       237.14
  103.88        2959.25           1346          57.00       210.99
  103.91        2959.50           1349          72.00       276.38
  103.94        2959.75           1352          85.00       333.05
  103.97        2960.00           1356         104.00       415.87
  104.00        2960.25           1359         156.00       642.56
  104.03        2960.50           1362         195.00       812.57
  104.06        2960.75           1366         237.00       995.67
  104.10        2961.00           1369         280.00      1183.13
  104.13        2961.25           1372         326.00      1383.67
  104.16        2961.50           1376         415.00      1771.67
  104.19        2961.75           1379         701.00      3018.58
  104.22        2962.00           1382        1563.00      6777.32
  104.25        2962.25           1386        3382.00     14711.81
  104.28        2962.50           1389        4965.00     21619.95
  104.31        2962.75           1392        6332.00     27587.78
  104.34        2963.00           1396        8326.00     36296.70
  104.38        2963.25           1399        9663.00     42138.68
  104.41        2963.50           1402       11200.00     48857.09
  104.44        2963.75           1406       13249.00     57817.73
  104.47        2964.00           1409       14779.00     64511.84
  104.50        2964.25           1412       16256.00     70976.60
  104.53        2964.50           1416       18210.00     79533.05
  104.56        2964.75           1419       19730.00     86192.08
  104.59        2965.00           1422       21127.00     92314.59
  104.62        2965.25           1426       23311.00    101890.80
  104.66        2965.50           1429       24748.00    108194.60
  104.69        2965.75           1432       26347.00    115211.80
  104.72        2966.00           1436       28526.00    124779.20
  104.75        2966.25           1439       29703.00    129949.40
  104.78        2966.50           1442       30966.00    135499.10
  104.81        2966.75           1446       32028.00    140167.10
  104.84        2967.00           1449       32283.00    141288.10
  104.87        2967.25           1452       32540.00    142418.00
  104.90        2967.50           1456       32445.00    142000.30
  104.94        2967.75           1459       32420.00    141890.40
  104.97        2968.00           1462       32126.00    140597.90
  105.00        2968.25           1466       30855.00    135011.30
  105.03        2968.50           1469       29560.00    129321.20
  105.06        2968.75           1472       28023.00    122570.20
  105.09        2969.00           1476       26198.00    114557.80
  105.12        2969.25           1479       24436.00    106825.70
  105.15        2969.50           1482       23072.00    100842.50
  105.18        2969.75           1486       21170.00     92503.08
  105.21        2970.00           1489       19684.00     85990.52
  105.25        2970.25           1492       18227.00     79607.52
  105.28        2970.50           1496       16414.00     71668.31
  105.31        2970.75           1499       14858.00     64857.55
  105.34        2971.00           1502       13234.00     57752.11
  105.37        2971.25           1506       11234.00     49005.74
  105.40        2971.50           1509        9611.00     41911.43
  105.43        2971.75           1513        7729.00     33688.78
  105.46        2972.00           1516        6197.00     26998.32
  105.49        2972.25           1519        4730.00     20594.24
  105.53        2972.50           1523        2863.00     12447.54
  105.56        2972.75           1526        1492.00      6467.69
  105.59        2973.00           1529         576.00      2473.59
  105.62        2973.25           1533         336.00      1427.26
  105.65        2973.50           1536         276.00      1165.69
  105.68        2973.75           1539         221.00       925.92
  105.71        2974.00           1543         181.00       751.54
  105.74        2974.25           1546         137.00       559.73
  105.78        2974.50           1549          98.00       389.72
  105.81        2974.75           1553          76.00       293.81
  105.84        2975.00           1556          62.00       232.78
  105.87        2975.25           1559          52.00       189.19
  105.90        2975.50           1563          49.00       176.11
  105.93        2975.75           1566          58.00       215.35
  105.96        2976.00           1569          55.00       202.27
  105.99        2976.25           1573          51.00       184.83
  106.02        2976.50           1576          54.00       197.91
  106.06        2976.75           1579          49.00       176.11
  106.09        2977.00           1583          47.00       167.39
  106.12        2977.25           1586          52.00       189.19
  106.15        2977.50           1590          50.00       180.47
  106.18        2977.75           1593          52.00       189.19
  106.21        2978.00           1596          58.00       215.35
  106.24        2978.25           1600          49.00       176.11
  106.27        2978.50           1603          50.00       180.47
  106.30        2978.75           1606          51.00       184.83
  106.33        2979.00           1610          50.00       180.47
  106.36        2979.25           1613          45.00       158.68
  106.39        2979.50           1616          50.00       180.47
  106.42        2979.75           1620          49.00       176.11
  106.45        2980.00           1623          45.00       158.68
  106.48        2980.25           1626          53.00       193.55
  106.52        2980.50           1630          51.00       184.83
  106.55        2980.75           1633          50.00       180.47
  106.58        2981.00           1637          55.00       202.27
  106.61        2981.25           1640          48.00       171.75
  106.64        2981.50           1643          53.00       193.55
  106.67        2981.75           1647          46.00       163.03
  106.70        2982.00           1650          47.00       167.39
  106.73        2982.25           1653          42.00       145.60
  106.76        2982.50           1657          50.00       180.47
  106.79        2982.75           1660          51.00       184.83
  106.83        2983.00           1663          45.00       158.68
  106.86        2983.25           1667          43.00       149.96
  106.89        2983.50           1670          57.00       210.99
  106.92        2983.75           1673          49.00       176.11
  106.95        2984.00           1677          50.00       180.47
HS scan finished at 01:47:10
end
************************************************************
  HS Scan of (1) Internal mercury lamp
************************************************************
Integration time is 0.2294 seconds per sample
dh230718Manchester 53.47 2.23 3.233369pr1000
************************************************************
Dead Time -------------------------  3E-08 
Number of Cycles Used -------------  4 
Starting Wavelength (Angstroms) ---  2950 
Final Wavelength (Angstoms) -------  2984 
Wavelength Increment (Angstroms) --  .25 
Filter Wheel #1 Position ---------- (1) Ground quartz diffuser (ND=2.32)
Filter Wheel #2 Position ---------- (1) Neutral Density 0.494



************************************************************
HS scan start time = 21:13:22
Dark Count =  6.3 


Time (GMT)  Wavelength (Ang)  Step Number  Raw Counts  Counts/Second

 1273.74        2950.00           1222          55.00       212.29
 1273.80        2950.25           1226          51.00       194.86
 1273.83        2950.50           1229          47.00       177.42
 1273.87        2950.75           1232          54.00       207.94
 1273.90        2951.00           1236          53.00       203.58
 1273.93        2951.25           1239          54.00       207.94
 1273.96        2951.50           1242          64.00       251.53
 1273.99        2951.75           1246          56.00       216.65
 1274.02        2952.00           1249          55.00       212.29
 1274.05        2952.25           1252          53.00       203.58
 1274.08        2952.50           1256          53.00       203.58
 1274.11        2952.75           1259          54.00       207.94
 1274.14        2953.00           1262          57.00       221.01
 1274.18        2953.25           1266          53.00       203.58
 1274.21        2953.50           1269          51.00       194.86
 1274.24        2953.75           1272          50.00       190.50
 1274.27        2954.00           1276          49.00       186.14
 1274.30        2954.25           1279          54.00       207.94
 1274.33        2954.50           1282          59.00       229.73
 1274.36        2954.75           1286          46.00       173.06
 1274.39        2955.00           1289          56.00       216.65
 1274.42        2955.25           1292          47.00       177.42
 1274.45        2955.50           1296          44.00       164.34
 1274.48        2955.75           1299          56.00       216.65
 1274.51        2956.00           1302          58.00       225.37
 1274.54        2956.25           1306          56.00       216.65
 1274.58        2956.50           1309          54.00       207.94
 1274.61        2956.75           1312          56.00       216.65
 1274.64        2957.00           1316          58.00       225.37
 1274.67        2957.25           1319          51.00       194.86
 1274.70        2957.50           1322          49.00       186.14
 1274.73        2957.75           1326          53.00       203.58
 1274.76        2958.00           1329          51.00       194.86
 1274.79        2958.25           1332          52.00       199.22
 1274.82        2958.50           1336          53.00       203.58
 1274.85        2958.75           1339          52.00       199.22
 1274.89        2959.00           1342          52.00       199.22
 1274.92        2959.25           1346          56.00       216.65
 1274.95        2959.50           1349          63.00       247.17
 1274.98        2959.75           1352          69.00       273.32
 1275.01        2960.00           1356          95.00       386.67
 1275.04        2960.25           1359         134.00       556.68
 1275.07        2960.50           1362         155.00       648.23
 1275.10        2960.75           1366         206.00       870.55
 1275.13        2961.00           1369         265.00      1127.76
 1275.16        2961.25           1372         303.00      1293.42
 1275.19        2961.50           1376         361.00      1546.28
 1275.23        2961.75           1379         453.00      1947.37
 1275.26        2962.00           1382         937.00      4057.60
 1275.29        2962.25           1386        2515.00     10939.51
 1275.32        2962.50           1389        3967.00     17274.42
 1275.35        2962.75           1392        5535.00     24118.15
 1275.38        2963.00           1396        7582.00     33056.74
 1275.41        2963.25           1399        9166.00     39976.86
 1275.44        2963.50           1402       10712.00     46733.74
 1275.47        2963.75           1406       12945.00     56498.03
 1275.51        2964.00           1409       14491.00     63261.62
 1275.54        2964.25           1412       16238.00     70907.88
 1275.57        2964.50           1416       18271.00     79810.30
 1275.60        2964.75           1419       19989.00     87337.07
 1275.63        2965.00           1422       21497.00     93946.62
 1275.66        2965.25           1426       23678.00    103510.60
 1275.69        2965.50           1429       25102.00    109757.90
 1275.72        2965.75           1432       26674.00    116657.30
 1275.75        2966.00           1436       28630.00    125246.10
 1275.79        2966.25           1439       30397.00    133008.80
 1275.82        2966.50           1442       31704.00    138752.90
 1275.85        2966.75           1446       33363.00    146047.00
 1275.88        2967.00           1449       34050.00    149068.40
 1275.91        2967.25           1452       34327.00    150286.80
 1275.94        2967.50           1456       34162.00    149561.00
 1275.97        2967.75           1459       34387.00    150550.70
 1276.00        2968.00           1462       34265.00    150014.10
 1276.03        2968.25           1466       33427.00    146328.40
 1276.07        2968.50           1469       32219.00    141016.90
 1276.10        2968.75           1472       30582.00    133821.70
 1276.13        2969.00           1476       28790.00    125948.80
 1276.16        2969.25           1479       27248.00    119177.30
 1276.19        2969.50           1482       25571.00    111816.10
 1276.22        2969.75           1486       23605.00    103190.40
 1276.25        2970.00           1489       22084.00     96520.14
 1276.28        2970.25           1492       20348.00     88910.33
 1276.31        2970.50           1496       18327.00     80055.60
 1276.34        2970.75           1499       16722.00     73026.85
 1276.38        2971.00           1502       15055.00     65729.75
 1276.41        2971.25           1506       13009.00     56777.98
 1276.44        2971.50           1509       11438.00     49907.71
 1276.47        2971.75           1513        9321.00     40654.17
 1276.50        2972.00           1516        7800.00     34008.96
 1276.53        2972.25           1519        6143.00     26772.59
 1276.56        2972.50           1523        4383.00     19089.83
 1276.59        2972.75           1526        2815.00     12248.18
 1276.62        2973.00           1529        1386.00      6015.47
 1276.65        2973.25           1533         472.00      2030.20
 1276.69        2973.50           1536         334.00      1428.57
 1276.72        2973.75           1539         274.00      1167.00
 1276.75        2974.00           1543         237.00      1005.70
 1276.78        2974.25           1546         165.00       691.82
 1276.81        2974.50           1549         136.00       565.40
 1276.84        2974.75           1553          95.00       386.67
 1276.87        2975.00           1556          63.00       247.17
 1276.90        2975.25           1559          46.00       173.06
 1276.93        2975.50           1563          55.00       212.29
 1276.97        2975.75           1566          54.00       207.94
 1277.00        2976.00           1569          49.00       186.14
 1277.03        2976.25           1573          52.00       199.22
 1277.06        2976.50           1576          52.00       199.22
 1277.09        2976.75           1579          66.00       260.25
 1277.12        2977.00           1583          51.00       194.86
 1277.15        2977.25           1586          56.00       216.65
 1277.18        2977.50           1590          59.00       229.73
 1277.21        2977.75           1593          54.00       207.94
 1277.24        2978.00           1596          64.00       251.53
 1277.27        2978.25           1600          52.00       199.22
 1277.31        2978.50           1603          54.00       207.94
 1277.34        2978.75           1606          55.00       212.29
 1277.37        2979.00           1610          58.00       225.37
 1277.40        2979.25           1613          45.00       168.70
 1277.43        2979.50           1616          52.00       199.22
 1277.46        2979.75           1620          53.00       203.58
 1277.49        2980.00           1623          52.00       199.22
 1277.53        2980.25           1626          45.00       168.70
 1277.56        2980.50           1630          48.00       181.78
 1277.59        2980.75           1633          44.00       164.34
 1277.62        2981.00           1637          45.00       168.70
 1277.65        2981.25           1640          47.00       177.42
 1277.68        2981.50           1643          48.00       181.78
 1277.71        2981.75           1647          52.00       199.22
 1277.74        2982.00           1650          47.00       177.42
 1277.77        2982.25           1653          46.00       173.06
 1277.81        2982.50           1657          46.00       173.06
 1277.84        2982.75           1660          47.00       177.42
 1277.87        2983.00           1663          52.00       199.22
 1277.90        2983.25           1667          52.00       199.22
 1277.93        2983.50           1670          51.00       194.86
 1277.96        2983.75           1673          47.00       177.42
 1277.99        2984.00           1677          41.00       151.26
HS scan finished at 21:18:12
end
