************************************************************
  HS Scan of (1) Internal mercury lamp
************************************************************
Integration time is 0.2294 seconds per sample
dh210718Manchester 53.47 2.23 2.911481pr1000
************************************************************
Dead Time -------------------------  3E-08 
Number of Cycles Used -------------  4 
Starting Wavelength (Angstroms) ---  2950 
Final Wavelength (Angstoms) -------  2984 
Wavelength Increment (Angstroms) --  .25 
Filter Wheel #1 Position ---------- (1) Ground quartz diffuser (ND=2.32)
Filter Wheel #2 Position ---------- (1) Neutral Density 0.494



************************************************************
HS scan start time = 01:30:01
Dark Count =  6.2 


Time (GMT)  Wavelength (Ang)  Step Number  Raw Counts  Counts/Second

   90.39        2950.00           1222          53.00       204.01
   90.46        2950.25           1226          57.00       221.45
   90.49        2950.50           1229          58.00       225.81
   90.52        2950.75           1232          53.00       204.01
   90.55        2951.00           1236          58.00       225.81
   90.58        2951.25           1239          63.00       247.60
   90.61        2951.50           1242          58.00       225.81
   90.64        2951.75           1246          58.00       225.81
   90.67        2952.00           1249          65.00       256.32
   90.70        2952.25           1252          47.00       177.86
   90.73        2952.50           1256          54.00       208.37
   90.77        2952.75           1259          50.00       190.93
   90.80        2953.00           1262          55.00       212.73
   90.83        2953.25           1266          53.00       204.01
   90.86        2953.50           1269          54.00       208.37
   90.89        2953.75           1272          61.00       238.89
   90.92        2954.00           1276          57.00       221.45
   90.95        2954.25           1279          54.00       208.37
   90.98        2954.50           1282          53.00       204.01
   91.01        2954.75           1286          62.00       243.25
   91.04        2955.00           1289          54.00       208.37
   91.07        2955.25           1292          55.00       212.73
   91.11        2955.50           1296          56.00       217.09
   91.14        2955.75           1299          47.00       177.86
   91.17        2956.00           1302          57.00       221.45
   91.20        2956.25           1306          58.00       225.81
   91.23        2956.50           1309          71.00       282.48
   91.26        2956.75           1312          61.00       238.89
   91.29        2957.00           1316          55.00       212.73
   91.32        2957.25           1319          52.00       199.65
   91.35        2957.50           1322          56.00       217.09
   91.39        2957.75           1326          54.00       208.37
   91.42        2958.00           1329          48.00       182.22
   91.45        2958.25           1332          58.00       225.81
   91.48        2958.50           1336          54.00       208.37
   91.51        2958.75           1339          45.00       169.14
   91.54        2959.00           1342          55.00       212.73
   91.57        2959.25           1346          65.00       256.32
   91.60        2959.50           1349          70.00       278.12
   91.63        2959.75           1352          79.00       317.35
   91.67        2960.00           1356         100.00       408.90
   91.70        2960.25           1359         125.00       517.88
   91.73        2960.50           1362         164.00       687.90
   91.76        2960.75           1366         213.00       901.51
   91.79        2961.00           1369         260.00      1106.40
   91.82        2961.25           1372         301.00      1285.14
   91.85        2961.50           1376         358.00      1533.64
   91.88        2961.75           1379         531.00      2287.86
   91.91        2962.00           1382        1123.00      4869.06
   91.94        2962.25           1386        2701.00     11751.31
   91.98        2962.50           1389        4159.00     18112.72
   92.01        2962.75           1392        5558.00     24218.99
   92.04        2963.00           1396        7469.00     32563.62
   92.07        2963.25           1399        8902.00     38823.75
   92.10        2963.50           1402       10443.00     45558.30
   92.13        2963.75           1406       12440.00     54289.75
   92.16        2964.00           1409       13789.00     60190.54
   92.19        2964.25           1412       15366.00     67091.31
   92.22        2964.50           1416       17248.00     75330.47
   92.26        2964.75           1419       18687.00     81632.99
   92.29        2965.00           1422       20200.00     88262.16
   92.32        2965.25           1426       22087.00     96533.75
   92.35        2965.50           1429       23582.00    103089.90
   92.38        2965.75           1432       25098.00    109740.80
   92.41        2966.00           1436       26951.00    117873.80
   92.44        2966.25           1439       28338.00    123964.10
   92.47        2966.50           1442       29771.00    130258.70
   92.51        2966.75           1446       31026.00    135773.40
   92.54        2967.00           1449       31318.00    137056.70
   92.57        2967.25           1452       31406.00    137443.50
   92.60        2967.50           1456       31261.00    136806.20
   92.63        2967.75           1459       31313.00    137034.80
   92.66        2968.00           1462       31116.00    136168.90
   92.69        2968.25           1466       30020.00    131352.70
   92.72        2968.50           1469       28749.00    125769.20
   92.75        2968.75           1472       27229.00    119094.30
   92.79        2969.00           1476       25430.00    111197.70
   92.82        2969.25           1479       23923.00    104585.70
   92.85        2969.50           1482       22472.00     98221.88
   92.88        2969.75           1486       20596.00     89997.68
   92.91        2970.00           1489       19124.00     83547.43
   92.94        2970.25           1492       17685.00     77244.19
   92.97        2970.50           1496       15754.00     68789.60
   93.00        2970.75           1499       14272.00     62303.79
   93.04        2971.00           1502       13113.00     57233.33
   93.07        2971.25           1506       11123.00     48530.94
   93.10        2971.50           1509        9725.00     42420.12
   93.13        2971.75           1513        7676.00     33467.76
   93.16        2972.00           1516        6163.00     26860.35
   93.19        2972.25           1519        4794.00     20884.05
   93.22        2972.50           1523        2906.00     12645.60
   93.25        2972.75           1526        1658.00      7202.08
   93.28        2973.00           1529         734.00      3172.93
   93.31        2973.25           1533         358.00      1533.64
   93.35        2973.50           1536         303.00      1293.86
   93.38        2973.75           1539         245.00      1041.01
   93.41        2974.00           1543         204.00       862.27
   93.44        2974.25           1546         136.00       565.83
   93.47        2974.50           1549         106.00       435.05
   93.50        2974.75           1553          72.00       286.84
   93.53        2975.00           1556          67.00       265.04
   93.56        2975.25           1559          66.00       260.68
   93.59        2975.50           1563          49.00       186.57
   93.63        2975.75           1566          49.00       186.57
   93.66        2976.00           1569          60.00       234.53
   93.69        2976.25           1573          44.00       164.78
   93.72        2976.50           1576          50.00       190.93
   93.75        2976.75           1579          54.00       208.37
   93.78        2977.00           1583          47.00       177.86
   93.81        2977.25           1586          54.00       208.37
   93.84        2977.50           1590          55.00       212.73
   93.87        2977.75           1593          54.00       208.37
   93.90        2978.00           1596          50.00       190.93
   93.93        2978.25           1600          55.00       212.73
   93.97        2978.50           1603          59.00       230.17
   94.00        2978.75           1606          66.00       260.68
   94.03        2979.00           1610          56.00       217.09
   94.06        2979.25           1613          46.00       173.50
   94.09        2979.50           1616          52.00       199.65
   94.12        2979.75           1620          55.00       212.73
   94.15        2980.00           1623          53.00       204.01
   94.18        2980.25           1626          48.00       182.22
   94.21        2980.50           1630          54.00       208.37
   94.24        2980.75           1633          48.00       182.22
   94.27        2981.00           1637          63.00       247.60
   94.30        2981.25           1640          49.00       186.57
   94.33        2981.50           1643          50.00       190.93
   94.37        2981.75           1647          54.00       208.37
   94.40        2982.00           1650          49.00       186.57
   94.43        2982.25           1653          58.00       225.81
   94.46        2982.50           1657          52.00       199.65
   94.49        2982.75           1660          52.00       199.65
   94.52        2983.00           1663          49.00       186.57
   94.55        2983.25           1667          49.00       186.57
   94.58        2983.50           1670          43.00       160.42
   94.61        2983.75           1673          50.00       190.93
   94.64        2984.00           1677          45.00       169.14
HS scan finished at 01:34:51
end
************************************************************
  HS Scan of (1) Internal mercury lamp
************************************************************
Integration time is 0.2294 seconds per sample
dh210718Manchester 53.47 2.23 2.911481pr1000
************************************************************
Dead Time -------------------------  3E-08 
Number of Cycles Used -------------  4 
Starting Wavelength (Angstroms) ---  2950 
Final Wavelength (Angstoms) -------  2984 
Wavelength Increment (Angstroms) --  .25 
Filter Wheel #1 Position ---------- (1) Ground quartz diffuser (ND=2.32)
Filter Wheel #2 Position ---------- (1) Neutral Density 0.494



************************************************************
HS scan start time = 21:12:05
Dark Count =  6.6 


Time (GMT)  Wavelength (Ang)  Step Number  Raw Counts  Counts/Second

 1272.45        2950.00           1222          46.00       171.75
 1272.52        2950.25           1226          54.00       206.63
 1272.55        2950.50           1229          56.00       215.35
 1272.58        2950.75           1232          53.00       202.27
 1272.61        2951.00           1236          61.00       237.14
 1272.64        2951.25           1239          64.00       250.22
 1272.67        2951.50           1242          51.00       193.55
 1272.70        2951.75           1246          53.00       202.27
 1272.73        2952.00           1249          54.00       206.63
 1272.77        2952.25           1252          57.00       219.71
 1272.80        2952.50           1256          48.00       180.47
 1272.83        2952.75           1259          52.00       197.91
 1272.86        2953.00           1262          56.00       215.35
 1272.89        2953.25           1266          56.00       215.35
 1272.92        2953.50           1269          59.00       228.42
 1272.95        2953.75           1272          59.00       228.42
 1272.98        2954.00           1276          58.00       224.06
 1273.01        2954.25           1279          56.00       215.35
 1273.04        2954.50           1282          66.00       258.94
 1273.07        2954.75           1286          52.00       197.91
 1273.11        2955.00           1289          52.00       197.91
 1273.14        2955.25           1292          54.00       206.63
 1273.17        2955.50           1296          57.00       219.71
 1273.20        2955.75           1299          66.00       258.94
 1273.23        2956.00           1302          58.00       224.06
 1273.26        2956.25           1306          59.00       228.42
 1273.29        2956.50           1309          53.00       202.27
 1273.32        2956.75           1312          56.00       215.35
 1273.35        2957.00           1316          60.00       232.78
 1273.38        2957.25           1319          57.00       219.71
 1273.42        2957.50           1322          56.00       215.35
 1273.45        2957.75           1326          52.00       197.91
 1273.48        2958.00           1329          52.00       197.91
 1273.51        2958.25           1332          51.00       193.55
 1273.54        2958.50           1336          54.00       206.63
 1273.57        2958.75           1339          58.00       224.06
 1273.60        2959.00           1342          58.00       224.06
 1273.63        2959.25           1346          52.00       197.91
 1273.66        2959.50           1349          71.00       280.73
 1273.69        2959.75           1352          72.00       285.09
 1273.73        2960.00           1356         103.00       420.23
 1273.76        2960.25           1359         131.00       542.29
 1273.79        2960.50           1362         164.00       686.15
 1273.82        2960.75           1366         217.00       917.20
 1273.85        2961.00           1369         257.00      1091.58
 1273.88        2961.25           1372         276.00      1174.41
 1273.91        2961.50           1376         353.00      1510.09
 1273.94        2961.75           1379         570.00      2456.15
 1273.97        2962.00           1382        1219.00      5285.93
 1274.01        2962.25           1386        2916.00     12687.48
 1274.04        2962.50           1389        4298.00     18717.57
 1274.07        2962.75           1392        5631.00     24535.93
 1274.10        2963.00           1396        7436.00     32417.74
 1274.13        2963.25           1399        8804.00     38393.81
 1274.16        2963.50           1402       10358.00     45185.02
 1274.19        2963.75           1406       12032.00     52503.74
 1274.22        2964.00           1409       13556.00     59169.46
 1274.25        2964.25           1412       14957.00     65299.55
 1274.28        2964.50           1416       16827.00     73485.28
 1274.31        2964.75           1419       18239.00     79668.82
 1274.35        2965.00           1422       19695.00     86047.48
 1274.38        2965.25           1426       21537.00     94120.68
 1274.41        2965.50           1429       23014.00    100596.90
 1274.44        2965.75           1432       24496.00    107097.70
 1274.47        2966.00           1436       26545.00    116089.70
 1274.50        2966.25           1439       27661.00    120989.40
 1274.53        2966.50           1442       28960.00    126694.20
 1274.56        2966.75           1446       30364.00    132862.40
 1274.59        2967.00           1449       30660.00    134163.20
 1274.63        2967.25           1452       30707.00    134369.70
 1274.66        2967.50           1456       30736.00    134497.10
 1274.69        2967.75           1459       30587.00    133842.40
 1274.72        2968.00           1462       30802.00    134787.20
 1274.75        2968.25           1466       29758.00    130199.80
 1274.78        2968.50           1469       28293.00    123764.70
 1274.81        2968.75           1472       26985.00    118021.30
 1274.84        2969.00           1476       25089.00    109699.60
 1274.87        2969.25           1479       23752.00    103833.80
 1274.91        2969.50           1482       22354.00     97702.71
 1274.94        2969.75           1486       20568.00     89873.21
 1274.97        2970.00           1489       19192.00     83843.59
 1275.00        2970.25           1492       17867.00     78039.52
 1275.03        2970.50           1496       16031.00     70000.38
 1275.06        2970.75           1499       14561.00     63566.62
 1275.09        2971.00           1502       13099.00     57170.34
 1275.12        2971.25           1506       11149.00     48642.86
 1275.15        2971.50           1509        9767.00     42601.94
 1275.19        2971.75           1513        7840.00     34182.38
 1275.22        2972.00           1516        6420.00     27980.76
 1275.25        2972.25           1519        5026.00     21894.94
 1275.28        2972.50           1523        3078.00     13394.22
 1275.31        2972.75           1526        1741.00      7562.31
 1275.34        2973.00           1529         777.00      3358.66
 1275.37        2973.25           1533         365.00      1562.41
 1275.40        2973.50           1536         308.00      1313.91
 1275.43        2973.75           1539         253.00      1074.14
 1275.47        2974.00           1543         216.00       912.84
 1275.50        2974.25           1546         158.00       660.00
 1275.53        2974.50           1549         127.00       524.86
 1275.56        2974.75           1553          85.00       341.76
 1275.59        2975.00           1556          72.00       285.09
 1275.62        2975.25           1559          56.00       215.35
 1275.65        2975.50           1563          58.00       224.06
 1275.69        2975.75           1566          53.00       202.27
 1275.72        2976.00           1569          51.00       193.55
 1275.75        2976.25           1573          46.00       171.75
 1275.78        2976.50           1576          59.00       228.42
 1275.81        2976.75           1579          60.00       232.78
 1275.84        2977.00           1583          50.00       189.19
 1275.87        2977.25           1586          47.00       176.11
 1275.90        2977.50           1590          51.00       193.55
 1275.93        2977.75           1593          56.00       215.35
 1275.96        2978.00           1596          47.00       176.11
 1275.99        2978.25           1600          56.00       215.35
 1276.02        2978.50           1603          44.00       163.03
 1276.06        2978.75           1606          53.00       202.27
 1276.09        2979.00           1610          58.00       224.06
 1276.12        2979.25           1613          52.00       197.91
 1276.15        2979.50           1616          54.00       206.63
 1276.18        2979.75           1620          53.00       202.27
 1276.21        2980.00           1623          50.00       189.19
 1276.24        2980.25           1626          44.00       163.03
 1276.27        2980.50           1630          50.00       189.19
 1276.30        2980.75           1633          47.00       176.11
 1276.33        2981.00           1637          50.00       189.19
 1276.36        2981.25           1640          44.00       163.03
 1276.39        2981.50           1643          53.00       202.27
 1276.42        2981.75           1647          51.00       193.55
 1276.45        2982.00           1650          51.00       193.55
 1276.49        2982.25           1653          53.00       202.27
 1276.52        2982.50           1657          50.00       189.19
 1276.55        2982.75           1660          50.00       189.19
 1276.58        2983.00           1663          56.00       215.35
 1276.61        2983.25           1667          45.00       167.39
 1276.64        2983.50           1670          50.00       189.19
 1276.67        2983.75           1673          54.00       206.63
 1276.70        2984.00           1677          53.00       202.27
HS scan finished at 21:16:55
end
