************************************************************
  HS Scan of (1) Internal mercury lamp
************************************************************
Integration time is 0.2294 seconds per sample
dh240717Manchester 53.47 2.23 2.911481pr1000
************************************************************
Dead Time -------------------------  3E-08 
Number of Cycles Used -------------  4 
Starting Wavelength (Angstroms) ---  2950 
Final Wavelength (Angstoms) -------  2984 
Wavelength Increment (Angstroms) --  .25 
Filter Wheel #1 Position ---------- (1) Ground quartz diffuser (ND=2.32)
Filter Wheel #2 Position ---------- (1) Neutral Density 0.494



************************************************************
HS scan start time = 01:43:37
Dark Count =  6.6 


Time (GMT)  Wavelength (Ang)  Step Number  Raw Counts  Counts/Second

  103.99        2950.00           1222          90.00       363.56
  104.05        2950.25           1226          94.00       381.00
  104.09        2950.50           1229          97.00       394.08
  104.12        2950.75           1232          97.00       394.08
  104.15        2951.00           1236          89.00       359.20
  104.18        2951.25           1239          92.00       372.28
  104.21        2951.50           1242          89.00       359.20
  104.24        2951.75           1246         103.00       420.23
  104.27        2952.00           1249          96.00       389.72
  104.30        2952.25           1252         106.00       433.31
  104.33        2952.50           1256         108.00       442.03
  104.36        2952.75           1259         106.00       433.31
  104.39        2953.00           1262          90.00       363.56
  104.42        2953.25           1266         100.00       407.15
  104.45        2953.50           1269         114.00       468.18
  104.49        2953.75           1272          94.00       381.00
  104.52        2954.00           1276          95.00       385.36
  104.55        2954.25           1279          98.00       398.44
  104.58        2954.50           1282          97.00       394.08
  104.61        2954.75           1286          98.00       398.44
  104.64        2955.00           1289         107.00       437.67
  104.67        2955.25           1292          95.00       385.36
  104.70        2955.50           1296          87.00       350.48
  104.73        2955.75           1299          92.00       372.28
  104.76        2956.00           1302         104.00       424.59
  104.79        2956.25           1306          97.00       394.08
  104.82        2956.50           1309          98.00       398.44
  104.85        2956.75           1312          99.00       402.79
  104.89        2957.00           1316         101.00       411.51
  104.92        2957.25           1319         101.00       411.51
  104.95        2957.50           1322          96.00       389.72
  104.98        2957.75           1326         116.00       476.90
  105.01        2958.00           1329         100.00       407.15
  105.04        2958.25           1332          96.00       389.72
  105.07        2958.50           1336          97.00       394.08
  105.10        2958.75           1339         107.00       437.67
  105.13        2959.00           1342         100.00       407.15
  105.16        2959.25           1346          99.00       402.79
  105.19        2959.50           1349         109.00       446.39
  105.22        2959.75           1352         127.00       524.86
  105.25        2960.00           1356         163.00       681.79
  105.28        2960.25           1359         199.00       838.73
  105.32        2960.50           1362         244.00      1034.91
  105.35        2960.75           1366         296.00      1261.60
  105.38        2961.00           1369         358.00      1531.89
  105.41        2961.25           1372         392.00      1680.12
  105.44        2961.50           1376         483.00      2076.85
  105.47        2961.75           1379         720.00      3110.14
  105.50        2962.00           1382        1468.00      6371.75
  105.53        2962.25           1386        3462.00     15069.58
  105.56        2962.50           1389        5128.00     22340.17
  105.59        2962.75           1392        6779.00     29548.41
  105.63        2963.00           1396        8964.00     39092.90
  105.66        2963.25           1399       10788.00     47064.67
  105.69        2963.50           1402       12642.00     55171.46
  105.72        2963.75           1406       15047.00     65693.43
  105.75        2964.00           1409       16868.00     73664.80
  105.78        2964.25           1412       18854.00     82362.81
  105.81        2964.50           1416       21210.00     92687.19
  105.84        2964.75           1419       23078.00    100877.60
  105.87        2965.00           1422       24570.00    107422.40
  105.90        2965.25           1426       26953.00    117880.80
  105.94        2965.50           1429       28705.00    125574.20
  105.97        2965.75           1432       30376.00    132915.20
  106.00        2966.00           1436       32824.00    143675.50
  106.03        2966.25           1439       34482.00    150967.30
  106.06        2966.50           1442       35984.00    157575.80
  106.09        2966.75           1446       37760.00    165393.20
  106.12        2967.00           1449       38218.00    167409.70
  106.15        2967.25           1452       38338.00    167938.10
  106.18        2967.50           1456       38151.00    167114.70
  106.21        2967.75           1459       38287.00    167713.60
  106.25        2968.00           1462       37789.00    165520.80
  106.28        2968.25           1466       36769.00    161030.60
  106.31        2968.50           1469       35211.00    154174.40
  106.34        2968.75           1472       33760.00    147791.60
  106.37        2969.00           1476       31359.00    137235.20
  106.40        2969.25           1479       29595.00    129483.70
  106.43        2969.50           1482       27917.00    122113.50
  106.46        2969.75           1486       25640.00    112117.60
  106.49        2970.00           1489       23653.00    103399.60
  106.52        2970.25           1492       21963.00     95988.31
  106.55        2970.50           1496       19638.00     85797.72
  106.59        2970.75           1499       17939.00     78354.85
  106.62        2971.00           1502       16014.00     69925.97
  106.65        2971.25           1506       13647.00     59567.56
  106.68        2971.50           1509       12072.00     52678.65
  106.71        2971.75           1513        9695.00     42287.27
  106.74        2972.00           1516        7816.00     34077.54
  106.77        2972.25           1519        6082.00     26504.94
  106.80        2972.50           1523        3788.00     16492.03
  106.83        2972.75           1526        2238.00      9729.95
  106.86        2973.00           1529         939.00      4065.01
  106.90        2973.25           1533         485.00      2085.57
  106.93        2973.50           1536         357.00      1527.53
  106.96        2973.75           1539         317.00      1353.15
  106.99        2974.00           1543         279.00      1187.49
  107.02        2974.25           1546         198.00       834.37
  107.05        2974.50           1549         164.00       686.15
  107.08        2974.75           1553         108.00       442.03
  107.11        2975.00           1556         107.00       437.67
  107.14        2975.25           1559          95.00       385.36
  107.17        2975.50           1563          90.00       363.56
  107.20        2975.75           1566          86.00       346.12
  107.23        2976.00           1569          85.00       341.76
  107.26        2976.25           1573          88.00       354.84
  107.30        2976.50           1576          99.00       402.79
  107.33        2976.75           1579          88.00       354.84
  107.36        2977.00           1583          94.00       381.00
  107.39        2977.25           1586          87.00       350.48
  107.42        2977.50           1590          88.00       354.84
  107.45        2977.75           1593          92.00       372.28
  107.48        2978.00           1596          92.00       372.28
  107.51        2978.25           1600          91.00       367.92
  107.54        2978.50           1603          90.00       363.56
  107.57        2978.75           1606          86.00       346.12
  107.60        2979.00           1610          93.00       376.64
  107.63        2979.25           1613          82.00       328.69
  107.66        2979.50           1616          91.00       367.92
  107.69        2979.75           1620          87.00       350.48
  107.72        2980.00           1623          88.00       354.84
  107.76        2980.25           1626          92.00       372.28
  107.79        2980.50           1630          88.00       354.84
  107.82        2980.75           1633          88.00       354.84
  107.85        2981.00           1637          92.00       372.28
  107.88        2981.25           1640          88.00       354.84
  107.91        2981.50           1643          91.00       367.92
  107.94        2981.75           1647          84.00       337.41
  107.97        2982.00           1650          87.00       350.48
  108.00        2982.25           1653          85.00       341.76
  108.03        2982.50           1657          85.00       341.76
  108.06        2982.75           1660          99.00       402.79
  108.09        2983.00           1663          86.00       346.12
  108.12        2983.25           1667          84.00       337.41
  108.15        2983.50           1670          90.00       363.56
  108.19        2983.75           1673          90.00       363.56
  108.22        2984.00           1677          78.00       311.25
HS scan finished at 01:48:26
end
************************************************************
  HS Scan of (1) Internal mercury lamp
************************************************************
Integration time is 0.2294 seconds per sample
dh240717Manchester 53.47 2.23 2.965129pr1000
************************************************************
Dead Time -------------------------  3E-08 
Number of Cycles Used -------------  4 
Starting Wavelength (Angstroms) ---  2950 
Final Wavelength (Angstoms) -------  2984 
Wavelength Increment (Angstroms) --  .25 
Filter Wheel #1 Position ---------- (1) Ground quartz diffuser (ND=2.32)
Filter Wheel #2 Position ---------- (1) Neutral Density 0.494



************************************************************
HS scan start time = 21:12:02
Dark Count =  5.9 


Time (GMT)  Wavelength (Ang)  Step Number  Raw Counts  Counts/Second

 1272.40        2950.00           1222          95.00       388.41
 1272.47        2950.25           1226         100.00       410.21
 1272.50        2950.50           1229          91.00       370.97
 1272.53        2950.75           1232         101.00       414.56
 1272.56        2951.00           1236         104.00       427.64
 1272.59        2951.25           1239          97.00       397.13
 1272.62        2951.50           1242         102.00       418.92
 1272.65        2951.75           1246         102.00       418.92
 1272.68        2952.00           1249          93.00       379.69
 1272.72        2952.25           1252          95.00       388.41
 1272.75        2952.50           1256          99.00       405.85
 1272.78        2952.75           1259         108.00       445.08
 1272.81        2953.00           1262         100.00       410.21
 1272.84        2953.25           1266         104.00       427.64
 1272.87        2953.50           1269          95.00       388.41
 1272.90        2953.75           1272          99.00       405.85
 1272.93        2954.00           1276          97.00       397.13
 1272.96        2954.25           1279         107.00       440.72
 1272.99        2954.50           1282          99.00       405.85
 1273.02        2954.75           1286          98.00       401.49
 1273.05        2955.00           1289          93.00       379.69
 1273.08        2955.25           1292          94.00       384.05
 1273.12        2955.50           1296         102.00       418.92
 1273.15        2955.75           1299         100.00       410.21
 1273.18        2956.00           1302          97.00       397.13
 1273.21        2956.25           1306          93.00       379.69
 1273.24        2956.50           1309          96.00       392.77
 1273.27        2956.75           1312         100.00       410.21
 1273.30        2957.00           1316          96.00       392.77
 1273.33        2957.25           1319          96.00       392.77
 1273.36        2957.50           1322          94.00       384.05
 1273.39        2957.75           1326          97.00       397.13
 1273.42        2958.00           1329          97.00       397.13
 1273.46        2958.25           1332         100.00       410.21
 1273.49        2958.50           1336          99.00       405.85
 1273.52        2958.75           1339          87.00       353.53
 1273.55        2959.00           1342         102.00       418.92
 1273.58        2959.25           1346          94.00       384.05
 1273.61        2959.50           1349         105.00       432.00
 1273.64        2959.75           1352         126.00       523.55
 1273.67        2960.00           1356         155.00       649.97
 1273.70        2960.25           1359         185.00       780.75
 1273.73        2960.50           1362         222.00       942.05
 1273.76        2960.75           1366         278.00      1186.18
 1273.79        2961.00           1369         330.00      1412.88
 1273.83        2961.25           1372         386.00      1657.01
 1273.86        2961.50           1376         454.00      1953.47
 1273.89        2961.75           1379         640.00      2764.40
 1273.92        2962.00           1382        1161.00      5036.07
 1273.95        2962.25           1386        2966.00     12908.66
 1273.98        2962.50           1389        4681.00     20392.16
 1274.01        2962.75           1392        6337.00     27621.40
 1274.04        2963.00           1396        8621.00     37597.31
 1274.07        2963.25           1399       10352.00     45161.84
 1274.10        2963.50           1402       12172.00     53119.02
 1274.13        2963.75           1406       14890.00     65009.40
 1274.16        2964.00           1409       16728.00     73054.88
 1274.19        2964.25           1412       18568.00     81113.01
 1274.23        2964.50           1416       20874.00     91217.46
 1274.26        2964.75           1419       22639.00     98955.49
 1274.29        2965.00           1422       24651.00    107780.80
 1274.32        2965.25           1426       26940.00    117826.80
 1274.35        2965.50           1429       28847.00    126201.00
 1274.38        2965.75           1432       30595.00    133880.60
 1274.41        2966.00           1436       33024.00    144558.00
 1274.44        2966.25           1439       34673.00    151810.60
 1274.47        2966.50           1442       36442.00    159594.50
 1274.50        2966.75           1446       37990.00    166408.90
 1274.54        2967.00           1449       38745.00    169733.50
 1274.57        2967.25           1452       38715.00    169601.40
 1274.60        2967.50           1456       38656.00    169341.60
 1274.63        2967.75           1459       38781.00    169892.10
 1274.66        2968.00           1462       38668.00    169394.40
 1274.69        2968.25           1466       37710.00    165176.10
 1274.72        2968.50           1469       36413.00    159466.80
 1274.75        2968.75           1472       34688.00    151876.60
 1274.78        2969.00           1476       32542.00    142438.70
 1274.81        2969.25           1479       30795.00    134759.50
 1274.84        2969.50           1482       28909.00    126473.30
 1274.87        2969.75           1486       26158.00    114394.10
 1274.91        2970.00           1489       24642.00    107741.30
 1274.94        2970.25           1492       22963.00    100376.40
 1274.97        2970.50           1496       20526.00     89692.19
 1275.00        2970.75           1499       18712.00     81743.81
 1275.03        2971.00           1502       16917.00     73882.41
 1275.06        2971.25           1506       14801.00     64619.92
 1275.09        2971.50           1509       12895.00     56281.09
 1275.12        2971.75           1513       10644.00     46438.24
 1275.16        2972.00           1516        8872.00     38693.97
 1275.19        2972.25           1519        7273.00     31708.88
 1275.22        2972.50           1523        4927.00     21465.87
 1275.25        2972.75           1526        3073.00     13375.46
 1275.28        2973.00           1529        1519.00      6597.21
 1275.31        2973.25           1533         528.00      2276.09
 1275.34        2973.50           1536         381.00      1635.22
 1275.37        2973.75           1539         327.00      1399.80
 1275.40        2974.00           1543         272.00      1160.02
 1275.43        2974.25           1546         217.00       920.25
 1275.47        2974.50           1549         165.00       693.56
 1275.50        2974.75           1553         138.00       575.86
 1275.53        2975.00           1556         123.00       510.47
 1275.56        2975.25           1559          95.00       388.41
 1275.59        2975.50           1563          89.00       362.25
 1275.62        2975.75           1566          88.00       357.89
 1275.65        2976.00           1569         102.00       418.92
 1275.68        2976.25           1573          98.00       401.49
 1275.71        2976.50           1576          94.00       384.05
 1275.74        2976.75           1579          90.00       366.61
 1275.77        2977.00           1583          92.00       375.33
 1275.80        2977.25           1586          91.00       370.97
 1275.83        2977.50           1590          93.00       379.69
 1275.86        2977.75           1593          84.00       340.46
 1275.89        2978.00           1596          92.00       375.33
 1275.93        2978.25           1600          88.00       357.89
 1275.96        2978.50           1603          83.00       336.10
 1275.99        2978.75           1606          88.00       357.89
 1276.02        2979.00           1610          95.00       388.41
 1276.05        2979.25           1613          83.00       336.10
 1276.08        2979.50           1616          73.00       292.50
 1276.11        2979.75           1620          84.00       340.46
 1276.14        2980.00           1623          95.00       388.41
 1276.17        2980.25           1626          88.00       357.89
 1276.20        2980.50           1630          85.00       344.82
 1276.24        2980.75           1633          89.00       362.25
 1276.27        2981.00           1637          93.00       379.69
 1276.30        2981.25           1640          97.00       397.13
 1276.33        2981.50           1643          77.00       309.94
 1276.36        2981.75           1647          79.00       318.66
 1276.39        2982.00           1650          86.00       349.18
 1276.42        2982.25           1653          88.00       357.89
 1276.45        2982.50           1657          83.00       336.10
 1276.48        2982.75           1660          84.00       340.46
 1276.51        2983.00           1663          79.00       318.66
 1276.54        2983.25           1667          94.00       384.05
 1276.58        2983.50           1670          93.00       379.69
 1276.61        2983.75           1673          96.00       392.77
 1276.64        2984.00           1677          80.00       323.02
HS scan finished at 21:16:51
end
