************************************************************
  HS Scan of (1) Internal mercury lamp
************************************************************
Integration time is 0.2294 seconds per sample
dh230717Manchester 53.47 2.23 2.804185pr1000
************************************************************
Dead Time -------------------------  3E-08 
Number of Cycles Used -------------  4 
Starting Wavelength (Angstroms) ---  2950 
Final Wavelength (Angstoms) -------  2984 
Wavelength Increment (Angstroms) --  .25 
Filter Wheel #1 Position ---------- (1) Ground quartz diffuser (ND=2.32)
Filter Wheel #2 Position ---------- (1) Neutral Density 0.494



************************************************************
HS scan start time = 01:42:32
Dark Count =  5.9 


Time (GMT)  Wavelength (Ang)  Step Number  Raw Counts  Counts/Second

  102.90        2950.00           1222         101.00       414.56
  102.97        2950.25           1226          98.00       401.49
  103.00        2950.50           1229         104.00       427.64
  103.03        2950.75           1232          92.00       375.33
  103.06        2951.00           1236         100.00       410.21
  103.09        2951.25           1239         100.00       410.21
  103.12        2951.50           1242          99.00       405.85
  103.16        2951.75           1246         104.00       427.64
  103.19        2952.00           1249         106.00       436.36
  103.22        2952.25           1252          99.00       405.85
  103.25        2952.50           1256         106.00       436.36
  103.28        2952.75           1259         107.00       440.72
  103.31        2953.00           1262          99.00       405.85
  103.34        2953.25           1266         105.00       432.00
  103.37        2953.50           1269         103.00       423.28
  103.40        2953.75           1272         102.00       418.92
  103.43        2954.00           1276         104.00       427.64
  103.46        2954.25           1279         100.00       410.21
  103.49        2954.50           1282         102.00       418.92
  103.52        2954.75           1286          96.00       392.77
  103.55        2955.00           1289         107.00       440.72
  103.58        2955.25           1292          94.00       384.05
  103.62        2955.50           1296          96.00       392.77
  103.65        2955.75           1299          96.00       392.77
  103.68        2956.00           1302         106.00       436.36
  103.71        2956.25           1306          94.00       384.05
  103.74        2956.50           1309          95.00       388.41
  103.77        2956.75           1312         102.00       418.92
  103.80        2957.00           1316          93.00       379.69
  103.83        2957.25           1319          93.00       379.69
  103.86        2957.50           1322          97.00       397.13
  103.89        2957.75           1326          98.00       401.49
  103.92        2958.00           1329          99.00       405.85
  103.95        2958.25           1332         100.00       410.21
  103.98        2958.50           1336         114.00       471.24
  104.02        2958.75           1339          96.00       392.77
  104.05        2959.00           1342          95.00       388.41
  104.08        2959.25           1346          98.00       401.49
  104.11        2959.50           1349         104.00       427.64
  104.14        2959.75           1352         113.00       466.88
  104.17        2960.00           1356         151.00       632.53
  104.20        2960.25           1359         168.00       706.64
  104.23        2960.50           1362         205.00       867.94
  104.26        2960.75           1366         269.00      1146.94
  104.29        2961.00           1369         318.00      1360.56
  104.32        2961.25           1372         335.00      1434.67
  104.35        2961.50           1376         449.00      1931.67
  104.39        2961.75           1379         621.00      2681.56
  104.42        2962.00           1382        1193.00      5175.61
  104.45        2962.25           1386        2849.00     12398.25
  104.48        2962.50           1389        4487.00     19545.46
  104.51        2962.75           1392        6060.00     26411.94
  104.54        2963.00           1396        8120.00     35408.56
  104.57        2963.25           1399        9914.00     43247.44
  104.60        2963.50           1402       11654.00     50853.90
  104.63        2963.75           1406       13936.00     60834.99
  104.67        2964.00           1409       15560.00     67941.75
  104.70        2964.25           1412       17330.00     75690.86
  104.73        2964.50           1416       19593.00     85603.61
  104.76        2964.75           1419       21109.00     92247.53
  104.79        2965.00           1422       22921.00    100192.20
  104.82        2965.25           1426       25030.00    109443.80
  104.85        2965.50           1429       26717.00    116847.90
  104.88        2965.75           1432       28226.00    123473.50
  104.91        2966.00           1436       30458.00    133278.60
  104.94        2966.25           1439       32183.00    140860.40
  104.97        2966.50           1442       33780.00    147882.60
  105.00        2966.75           1446       35256.00    154375.50
  105.03        2967.00           1449       35901.00    157213.60
  105.07        2967.25           1452       35829.00    156896.80
  105.10        2967.50           1456       36031.00    157785.70
  105.13        2967.75           1459       35917.00    157284.00
  105.16        2968.00           1462       35860.00    157033.20
  105.19        2968.25           1466       34924.00    152914.80
  105.22        2968.50           1469       33573.00    146972.20
  105.25        2968.75           1472       32090.00    140451.50
  105.28        2969.00           1476       29845.00    130585.10
  105.31        2969.25           1479       28154.00    123157.30
  105.35        2969.50           1482       26710.00    116817.10
  105.38        2969.75           1486       24615.00    107622.90
  105.41        2970.00           1489       22870.00     99968.51
  105.44        2970.25           1492       21248.00     92856.83
  105.47        2970.50           1496       19043.00     83193.87
  105.50        2970.75           1499       17461.00     76264.53
  105.53        2971.00           1502       15724.00     68659.60
  105.56        2971.25           1506       13615.00     59430.63
  105.59        2971.50           1509       11873.00     51811.51
  105.63        2971.75           1513        9802.00     42757.95
  105.66        2972.00           1516        8185.00     35692.52
  105.69        2972.25           1519        6454.00     28132.28
  105.72        2972.50           1523        4265.00     18576.61
  105.75        2972.75           1526        2681.00     11665.37
  105.78        2973.00           1529        1280.00      5554.98
  105.81        2973.25           1533         549.00      2367.65
  105.84        2973.50           1536         373.00      1600.34
  105.87        2973.75           1539         326.00      1395.44
  105.90        2974.00           1543         279.00      1190.54
  105.94        2974.25           1546         221.00       937.69
  105.97        2974.50           1549         175.00       737.16
  106.00        2974.75           1553         133.00       554.06
  106.03        2975.00           1556         109.00       449.44
  106.06        2975.25           1559         100.00       410.21
  106.09        2975.50           1563         102.00       418.92
  106.12        2975.75           1566          91.00       370.97
  106.15        2976.00           1569          90.00       366.61
  106.18        2976.25           1573          97.00       397.13
  106.21        2976.50           1576          95.00       388.41
  106.24        2976.75           1579          95.00       388.41
  106.27        2977.00           1583          92.00       375.33
  106.30        2977.25           1586          92.00       375.33
  106.33        2977.50           1590          97.00       397.13
  106.36        2977.75           1593          79.00       318.66
  106.39        2978.00           1596          84.00       340.46
  106.42        2978.25           1600          83.00       336.10
  106.46        2978.50           1603          87.00       353.53
  106.49        2978.75           1606          86.00       349.18
  106.52        2979.00           1610          85.00       344.82
  106.55        2979.25           1613          92.00       375.33
  106.58        2979.50           1616          88.00       357.89
  106.61        2979.75           1620          86.00       349.18
  106.64        2980.00           1623          78.00       314.30
  106.67        2980.25           1626          95.00       388.41
  106.70        2980.50           1630         100.00       410.21
  106.73        2980.75           1633          91.00       370.97
  106.77        2981.00           1637          89.00       362.25
  106.80        2981.25           1640          92.00       375.33
  106.83        2981.50           1643          92.00       375.33
  106.86        2981.75           1647          91.00       370.97
  106.89        2982.00           1650          87.00       353.53
  106.92        2982.25           1653          80.00       323.02
  106.95        2982.50           1657          85.00       344.82
  106.98        2982.75           1660          85.00       344.82
  107.01        2983.00           1663          88.00       357.89
  107.04        2983.25           1667          84.00       340.46
  107.07        2983.50           1670          82.00       331.74
  107.10        2983.75           1673          80.00       323.02
  107.13        2984.00           1677          74.00       296.86
HS scan finished at 01:47:21
end
************************************************************
  HS Scan of (1) Internal mercury lamp
************************************************************
Integration time is 0.2294 seconds per sample
dh230717Manchester 53.47 2.23 2.857833pr1000
************************************************************
Dead Time -------------------------  3E-08 
Number of Cycles Used -------------  4 
Starting Wavelength (Angstroms) ---  2950 
Final Wavelength (Angstoms) -------  2984 
Wavelength Increment (Angstroms) --  .25 
Filter Wheel #1 Position ---------- (1) Ground quartz diffuser (ND=2.32)
Filter Wheel #2 Position ---------- (1) Neutral Density 0.494



************************************************************
HS scan start time = 21:12:02
Dark Count =  6.9 


Time (GMT)  Wavelength (Ang)  Step Number  Raw Counts  Counts/Second

 1272.40        2950.00           1222         104.00       423.28
 1272.47        2950.25           1226         101.00       410.21
 1272.50        2950.50           1229         102.00       414.56
 1272.53        2950.75           1232          97.00       392.77
 1272.56        2951.00           1236         103.00       418.92
 1272.59        2951.25           1239         101.00       410.21
 1272.63        2951.50           1242          98.00       397.13
 1272.66        2951.75           1246         101.00       410.21
 1272.69        2952.00           1249         105.00       427.64
 1272.72        2952.25           1252         106.00       432.00
 1272.75        2952.50           1256         104.00       423.28
 1272.78        2952.75           1259          98.00       397.13
 1272.81        2953.00           1262         103.00       418.92
 1272.84        2953.25           1266         100.00       405.85
 1272.87        2953.50           1269          99.00       401.49
 1272.90        2953.75           1272         100.00       405.85
 1272.94        2954.00           1276          98.00       397.13
 1272.97        2954.25           1279         101.00       410.21
 1273.00        2954.50           1282          89.00       357.89
 1273.03        2954.75           1286          91.00       366.61
 1273.06        2955.00           1289         113.00       462.52
 1273.09        2955.25           1292         100.00       405.85
 1273.12        2955.50           1296          96.00       388.41
 1273.15        2955.75           1299          95.00       384.05
 1273.18        2956.00           1302         106.00       432.00
 1273.21        2956.25           1306          95.00       384.05
 1273.24        2956.50           1309         101.00       410.21
 1273.28        2956.75           1312         102.00       414.56
 1273.31        2957.00           1316          98.00       397.13
 1273.34        2957.25           1319          96.00       388.41
 1273.37        2957.50           1322          95.00       384.05
 1273.40        2957.75           1326          97.00       392.77
 1273.43        2958.00           1329          95.00       384.05
 1273.46        2958.25           1332          99.00       401.49
 1273.49        2958.50           1336          93.00       375.33
 1273.52        2958.75           1339         109.00       445.08
 1273.55        2959.00           1342          93.00       375.33
 1273.58        2959.25           1346         100.00       405.85
 1273.61        2959.50           1349         112.00       458.16
 1273.64        2959.75           1352         119.00       488.67
 1273.68        2960.00           1356         154.00       641.25
 1273.71        2960.25           1359         201.00       846.14
 1273.74        2960.50           1362         210.00       885.38
 1273.77        2960.75           1366         277.00      1177.46
 1273.80        2961.00           1369         333.00      1421.60
 1273.83        2961.25           1372         376.00      1609.06
 1273.86        2961.50           1376         479.00      2058.10
 1273.89        2961.75           1379         654.00      2821.08
 1273.92        2962.00           1382        1412.00      6126.24
 1273.95        2962.25           1386        3271.00     14234.94
 1273.98        2962.50           1389        4915.00     21409.13
 1274.02        2962.75           1392        6497.00     28315.68
 1274.05        2963.00           1396        8534.00     37212.84
 1274.08        2963.25           1399       10276.00     44825.28
 1274.11        2963.50           1402       11988.00     52310.01
 1274.14        2963.75           1406       14212.00     62038.20
 1274.17        2964.00           1409       15948.00     69635.74
 1274.20        2964.25           1412       17891.00     78143.30
 1274.23        2964.50           1416       20404.00     89153.12
 1274.26        2964.75           1419       21679.00     94741.87
 1274.29        2965.00           1422       23586.00    103104.40
 1274.33        2965.25           1426       25925.00    113367.00
 1274.36        2965.50           1429       27527.00    120399.70
 1274.39        2965.75           1432       29370.00    128493.90
 1274.42        2966.00           1436       31473.00    137734.90
 1274.45        2966.25           1439       33021.00    144540.40
 1274.48        2966.50           1442       34721.00    152017.40
 1274.51        2966.75           1446       35975.00    157534.90
 1274.54        2967.00           1449       36286.00    158903.50
 1274.57        2967.25           1452       36317.00    159039.90
 1274.61        2967.50           1456       36265.00    158811.10
 1274.64        2967.75           1459       36420.00    159493.30
 1274.67        2968.00           1462       36106.00    158111.30
 1274.70        2968.25           1466       34924.00    152910.40
 1274.73        2968.50           1469       33513.00    146704.00
 1274.76        2968.75           1472       31929.00    139739.30
 1274.79        2969.00           1476       29773.00    130264.40
 1274.82        2969.25           1479       28469.00    124536.30
 1274.85        2969.50           1482       26506.00    115917.20
 1274.88        2969.75           1486       24150.00    105578.40
 1274.91        2970.00           1489       22693.00     99187.91
 1274.95        2970.25           1492       21092.00     92168.62
 1274.98        2970.50           1496       18802.00     82133.69
 1275.01        2970.75           1499       16991.00     74202.05
 1275.04        2971.00           1502       15563.00     67950.50
 1275.07        2971.25           1506       13110.00     57217.14
 1275.10        2971.50           1509       11451.00     49961.93
 1275.13        2971.75           1513        9251.00     40345.66
 1275.16        2972.00           1516        7598.00     33124.01
 1275.19        2972.25           1519        6070.00     26451.24
 1275.22        2972.50           1523        3921.00     17071.08
 1275.26        2972.75           1526        2286.00      9938.01
 1275.29        2973.00           1529        1022.00      4425.61
 1275.32        2973.25           1533         483.00      2075.54
 1275.35        2973.50           1536         368.00      1574.18
 1275.38        2973.75           1539         331.00      1412.88
 1275.41        2974.00           1543         266.00      1129.51
 1275.44        2974.25           1546         211.00       889.74
 1275.47        2974.50           1549         171.00       715.36
 1275.50        2974.75           1553         135.00       558.42
 1275.53        2975.00           1556         107.00       436.36
 1275.56        2975.25           1559         100.00       405.85
 1275.59        2975.50           1563          89.00       357.89
 1275.62        2975.75           1566          86.00       344.82
 1275.65        2976.00           1569          93.00       375.33
 1275.68        2976.25           1573          95.00       384.05
 1275.72        2976.50           1576          83.00       331.74
 1275.75        2976.75           1579          87.00       349.18
 1275.78        2977.00           1583          86.00       344.82
 1275.81        2977.25           1586          85.00       340.46
 1275.84        2977.50           1590          93.00       375.33
 1275.87        2977.75           1593          89.00       357.89
 1275.90        2978.00           1596          83.00       331.74
 1275.93        2978.25           1600          89.00       357.89
 1275.96        2978.50           1603          90.00       362.25
 1275.99        2978.75           1606          85.00       340.46
 1276.02        2979.00           1610          81.00       323.02
 1276.05        2979.25           1613          92.00       370.97
 1276.08        2979.50           1616          93.00       375.33
 1276.12        2979.75           1620          86.00       344.82
 1276.15        2980.00           1623          92.00       370.97
 1276.18        2980.25           1626          85.00       340.46
 1276.21        2980.50           1630          89.00       357.89
 1276.24        2980.75           1633          77.00       305.58
 1276.27        2981.00           1637          89.00       357.89
 1276.30        2981.25           1640          83.00       331.74
 1276.33        2981.50           1643          79.00       314.30
 1276.36        2981.75           1647          88.00       353.53
 1276.39        2982.00           1650          90.00       362.25
 1276.42        2982.25           1653          82.00       327.38
 1276.45        2982.50           1657          73.00       288.15
 1276.49        2982.75           1660          89.00       357.89
 1276.52        2983.00           1663          92.00       370.97
 1276.55        2983.25           1667          81.00       323.02
 1276.58        2983.50           1670          87.00       349.18
 1276.61        2983.75           1673          92.00       370.97
 1276.64        2984.00           1677          82.00       327.38
HS scan finished at 21:16:51
end
