************************************************************
  HS Scan of (1) Internal mercury lamp
************************************************************
Integration time is 0.2294 seconds per sample
dh260717Manchester 53.47 2.23 2.965129pr1000
************************************************************
Dead Time -------------------------  3E-08 
Number of Cycles Used -------------  4 
Starting Wavelength (Angstroms) ---  2950 
Final Wavelength (Angstoms) -------  2984 
Wavelength Increment (Angstroms) --  .25 
Filter Wheel #1 Position ---------- (1) Ground quartz diffuser (ND=2.32)
Filter Wheel #2 Position ---------- (1) Neutral Density 0.494



************************************************************
HS scan start time = 02:20:08
Dark Count =  5.7 


Time (GMT)  Wavelength (Ang)  Step Number  Raw Counts  Counts/Second

  140.50        2950.00           1222         100.00       411.08
  140.57        2950.25           1226         103.00       424.16
  140.60        2950.50           1229          99.00       406.72
  140.63        2950.75           1232          96.00       393.64
  140.66        2951.00           1236          93.00       380.56
  140.69        2951.25           1239          94.00       384.92
  140.72        2951.50           1242         100.00       411.08
  140.75        2951.75           1246          99.00       406.72
  140.78        2952.00           1249          96.00       393.64
  140.81        2952.25           1252          91.00       371.84
  140.84        2952.50           1256          91.00       371.84
  140.87        2952.75           1259         105.00       432.87
  140.90        2953.00           1262          90.00       367.48
  140.93        2953.25           1266          93.00       380.56
  140.96        2953.50           1269          94.00       384.92
  141.00        2953.75           1272          92.00       376.20
  141.03        2954.00           1276          96.00       393.64
  141.06        2954.25           1279          91.00       371.84
  141.09        2954.50           1282          96.00       393.64
  141.12        2954.75           1286          89.00       363.13
  141.15        2955.00           1289          95.00       389.28
  141.18        2955.25           1292          83.00       336.97
  141.21        2955.50           1296         100.00       411.08
  141.24        2955.75           1299         101.00       415.44
  141.27        2956.00           1302          94.00       384.92
  141.31        2956.25           1306         104.00       428.51
  141.34        2956.50           1309          99.00       406.72
  141.37        2956.75           1312          92.00       376.20
  141.40        2957.00           1316          99.00       406.72
  141.43        2957.25           1319          97.00       398.00
  141.46        2957.50           1322          96.00       393.64
  141.49        2957.75           1326          86.00       350.05
  141.52        2958.00           1329          95.00       389.28
  141.55        2958.25           1332          85.00       345.69
  141.58        2958.50           1336          96.00       393.64
  141.61        2958.75           1339          95.00       389.28
  141.64        2959.00           1342          85.00       345.69
  141.67        2959.25           1346         103.00       424.16
  141.71        2959.50           1349         109.00       450.31
  141.74        2959.75           1352         107.00       441.59
  141.77        2960.00           1356         150.00       629.04
  141.80        2960.25           1359         180.00       759.83
  141.83        2960.50           1362         221.00       938.56
  141.86        2960.75           1366         289.00      1235.01
  141.89        2961.00           1369         329.00      1409.39
  141.92        2961.25           1372         369.00      1583.77
  141.95        2961.50           1376         447.00      1923.83
  141.98        2961.75           1379         659.00      2848.11
  142.01        2962.00           1382        1377.00      5978.84
  142.04        2962.25           1386        3463.00     15077.87
  142.07        2962.50           1389        5163.00     22496.87
  142.10        2962.75           1392        6877.00     29980.31
  142.13        2963.00           1396        9280.00     40477.63
  142.16        2963.25           1399       11017.00     48069.71
  142.20        2963.50           1402       12822.00     55962.67
  142.23        2963.75           1406       15154.00     66165.65
  142.26        2964.00           1409       16898.00     73800.10
  142.29        2964.25           1412       18744.00     81884.87
  142.32        2964.50           1416       21081.00     92125.66
  142.35        2964.75           1419       22883.00    100026.40
  142.38        2965.00           1422       24786.00    108374.00
  142.41        2965.25           1426       27138.00    118697.00
  142.45        2965.50           1429       28941.00    126614.70
  142.48        2965.75           1432       30789.00    134734.00
  142.51        2966.00           1436       32994.00    144427.00
  142.54        2966.25           1439       34537.00    151213.20
  142.57        2966.50           1442       36283.00    158895.60
  142.60        2966.75           1446       37853.00    165806.60
  142.63        2967.00           1449       38613.00    169153.10
  142.66        2967.25           1452       38705.00    169558.20
  142.69        2967.50           1456       38688.00    169483.40
  142.73        2967.75           1459       38561.00    168924.10
  142.76        2968.00           1462       38510.00    168699.50
  142.79        2968.25           1466       37322.00    163468.80
  142.82        2968.50           1469       35802.00    156778.80
  142.85        2968.75           1472       33945.00    148609.20
  142.88        2969.00           1476       31700.00    138738.00
  142.91        2969.25           1479       30095.00    131684.40
  142.94        2969.50           1482       28226.00    123474.40
  142.97        2969.75           1486       25850.00    113043.10
  143.00        2970.00           1489       24218.00    105882.00
  143.04        2970.25           1492       22675.00     99114.24
  143.07        2970.50           1496       20149.00     88040.87
  143.10        2970.75           1499       18329.00     80067.00
  143.13        2971.00           1502       16515.00     72123.20
  143.16        2971.25           1506       14126.00     61667.16
  143.19        2971.50           1509       12348.00     53889.58
  143.22        2971.75           1513       10113.00     44118.08
  143.25        2972.00           1516        8345.00     36392.37
  143.28        2972.25           1519        6511.00     28382.05
  143.31        2972.50           1523        4240.00     18468.38
  143.34        2972.75           1526        2604.00     11330.36
  143.38        2973.00           1529        1238.00      5372.71
  143.41        2973.25           1533         530.00      2285.68
  143.44        2973.50           1536         416.00      1788.67
  143.47        2973.75           1539         370.00      1588.13
  143.50        2974.00           1543         308.00      1317.84
  143.53        2974.25           1546         242.00      1030.11
  143.56        2974.50           1549         193.00       816.50
  143.59        2974.75           1553         142.00       594.17
  143.62        2975.00           1556         112.00       463.39
  143.65        2975.25           1559         107.00       441.59
  143.68        2975.50           1563          91.00       371.84
  143.71        2975.75           1566          83.00       336.97
  143.74        2976.00           1569          84.00       341.33
  143.78        2976.25           1573          94.00       384.92
  143.81        2976.50           1576          90.00       367.48
  143.84        2976.75           1579          93.00       380.56
  143.87        2977.00           1583          90.00       367.48
  143.90        2977.25           1586          80.00       323.89
  143.93        2977.50           1590          91.00       371.84
  143.96        2977.75           1593          86.00       350.05
  143.99        2978.00           1596          85.00       345.69
  144.02        2978.25           1600          86.00       350.05
  144.05        2978.50           1603          83.00       336.97
  144.08        2978.75           1606          88.00       358.77
  144.12        2979.00           1610          90.00       367.48
  144.15        2979.25           1613          87.00       354.41
  144.18        2979.50           1616          87.00       354.41
  144.21        2979.75           1620          81.00       328.25
  144.24        2980.00           1623          89.00       363.13
  144.27        2980.25           1626          91.00       371.84
  144.30        2980.50           1630          86.00       350.05
  144.33        2980.75           1633          81.00       328.25
  144.36        2981.00           1637          91.00       371.84
  144.39        2981.25           1640          80.00       323.89
  144.42        2981.50           1643          87.00       354.41
  144.45        2981.75           1647          86.00       350.05
  144.48        2982.00           1650          80.00       323.89
  144.52        2982.25           1653          92.00       376.20
  144.55        2982.50           1657          89.00       363.13
  144.58        2982.75           1660          82.00       332.61
  144.61        2983.00           1663          80.00       323.89
  144.64        2983.25           1667          82.00       332.61
  144.67        2983.50           1670          75.00       302.10
  144.70        2983.75           1673          90.00       367.48
  144.73        2984.00           1677          86.00       350.05
HS scan finished at 02:24:57
end
************************************************************
  HS Scan of (1) Internal mercury lamp
************************************************************
Integration time is 0.2294 seconds per sample
dh260717Manchester 53.47 2.23 2.857833pr1000
************************************************************
Dead Time -------------------------  3E-08 
Number of Cycles Used -------------  4 
Starting Wavelength (Angstroms) ---  2950 
Final Wavelength (Angstoms) -------  2984 
Wavelength Increment (Angstroms) --  .25 
Filter Wheel #1 Position ---------- (1) Ground quartz diffuser (ND=2.32)
Filter Wheel #2 Position ---------- (1) Neutral Density 0.494



************************************************************
HS scan start time = 21:12:00
Dark Count =  5 


Time (GMT)  Wavelength (Ang)  Step Number  Raw Counts  Counts/Second

 1272.37        2950.00           1222          90.00       370.54
 1272.44        2950.25           1226         101.00       418.49
 1272.47        2950.50           1229         100.00       414.13
 1272.50        2950.75           1232          99.00       409.77
 1272.53        2951.00           1236          92.00       379.25
 1272.56        2951.25           1239          95.00       392.33
 1272.59        2951.50           1242          94.00       387.97
 1272.63        2951.75           1246          94.00       387.97
 1272.66        2952.00           1249          96.00       396.69
 1272.69        2952.25           1252          94.00       387.97
 1272.72        2952.50           1256          95.00       392.33
 1272.75        2952.75           1259          96.00       396.69
 1272.78        2953.00           1262          92.00       379.25
 1272.81        2953.25           1266         101.00       418.49
 1272.84        2953.50           1269          97.00       401.05
 1272.87        2953.75           1272         106.00       440.28
 1272.90        2954.00           1276          94.00       387.97
 1272.93        2954.25           1279         101.00       418.49
 1272.96        2954.50           1282          96.00       396.69
 1272.99        2954.75           1286          97.00       401.05
 1273.03        2955.00           1289          90.00       370.54
 1273.06        2955.25           1292          99.00       409.77
 1273.09        2955.50           1296          88.00       361.82
 1273.12        2955.75           1299          99.00       409.77
 1273.15        2956.00           1302          99.00       409.77
 1273.18        2956.25           1306          95.00       392.33
 1273.21        2956.50           1309          99.00       409.77
 1273.24        2956.75           1312          97.00       401.05
 1273.27        2957.00           1316         102.00       422.85
 1273.30        2957.25           1319          87.00       357.46
 1273.33        2957.50           1322          88.00       361.82
 1273.37        2957.75           1326          95.00       392.33
 1273.40        2958.00           1329         106.00       440.28
 1273.43        2958.25           1332          93.00       383.61
 1273.46        2958.50           1336          93.00       383.61
 1273.49        2958.75           1339          96.00       396.69
 1273.52        2959.00           1342         102.00       422.85
 1273.55        2959.25           1346         100.00       414.13
 1273.58        2959.50           1349         107.00       444.64
 1273.61        2959.75           1352         120.00       501.32
 1273.64        2960.00           1356         163.00       688.77
 1273.67        2960.25           1359         186.00       789.03
 1273.70        2960.50           1362         245.00      1046.24
 1273.73        2960.75           1366         283.00      1211.90
 1273.77        2961.00           1369         348.00      1495.27
 1273.80        2961.25           1372         379.00      1630.42
 1273.83        2961.50           1376         462.00      1992.27
 1273.86        2961.75           1379         641.00      2772.68
 1273.89        2962.00           1382        1308.00      5681.00
 1273.92        2962.25           1386        3162.00     13767.67
 1273.95        2962.50           1389        4724.00     20583.76
 1273.98        2962.75           1392        6365.00     27747.59
 1274.01        2963.00           1396        8502.00     37081.33
 1274.04        2963.25           1399       10239.00     44671.86
 1274.08        2963.50           1402       12000.00     52370.80
 1274.11        2963.75           1406       14255.00     62234.65
 1274.14        2964.00           1409       16028.00     69994.25
 1274.17        2964.25           1412       17767.00     77608.56
 1274.20        2964.50           1416       20036.00     87548.74
 1274.23        2964.75           1419       21641.00     94583.62
 1274.26        2965.00           1422       23320.00    101946.00
 1274.29        2965.25           1426       25715.00    112453.70
 1274.32        2965.50           1429       27568.00    120588.00
 1274.35        2965.75           1432       29242.00    127940.00
 1274.38        2966.00           1436       31540.00    138037.80
 1274.42        2966.25           1439       33226.00    145450.20
 1274.45        2966.50           1442       34427.00    150732.40
 1274.48        2966.75           1446       36336.00    159131.90
 1274.51        2967.00           1449       36988.00    162001.60
 1274.54        2967.25           1452       37048.00    162265.80
 1274.57        2967.50           1456       36998.00    162045.70
 1274.60        2967.75           1459       37044.00    162248.20
 1274.63        2968.00           1462       36938.00    161781.60
 1274.66        2968.25           1466       36281.00    158889.80
 1274.70        2968.50           1469       34704.00    151950.90
 1274.73        2968.75           1472       32844.00    143770.50
 1274.76        2969.00           1476       30803.00    134798.60
 1274.79        2969.25           1479       29016.00    126947.20
 1274.82        2969.50           1482       27630.00    120860.30
 1274.85        2969.75           1486       25266.00    110483.30
 1274.88        2970.00           1489       23653.00    103406.60
 1274.91        2970.25           1492       21975.00     96047.94
 1274.94        2970.50           1496       19878.00     86856.38
 1274.98        2970.75           1499       18045.00     78826.12
 1275.01        2971.00           1502       16434.00     71771.63
 1275.04        2971.25           1506       13878.00     60585.17
 1275.07        2971.50           1509       12185.00     53179.81
 1275.10        2971.75           1513        9975.00     43517.98
 1275.13        2972.00           1516        8341.00     36377.95
 1275.16        2972.25           1519        6510.00     28380.74
 1275.19        2972.50           1523        4294.00     18707.10
 1275.22        2972.75           1526        2699.00     11747.82
 1275.26        2973.00           1529        1274.00      5532.74
 1275.29        2973.25           1533         532.00      2297.46
 1275.32        2973.50           1536         373.00      1604.26
 1275.35        2973.75           1539         317.00      1360.13
 1275.38        2974.00           1543         273.00      1168.31
 1275.41        2974.25           1546         201.00       854.42
 1275.44        2974.50           1549         152.00       640.81
 1275.47        2974.75           1553         136.00       571.06
 1275.50        2975.00           1556         106.00       440.28
 1275.53        2975.25           1559         106.00       440.28
 1275.56        2975.50           1563          87.00       357.46
 1275.60        2975.75           1566          90.00       370.54
 1275.63        2976.00           1569          89.00       366.18
 1275.66        2976.25           1573          88.00       361.82
 1275.69        2976.50           1576          86.00       353.10
 1275.72        2976.75           1579          87.00       357.46
 1275.75        2977.00           1583          94.00       387.97
 1275.78        2977.25           1586          96.00       396.69
 1275.81        2977.50           1590          96.00       396.69
 1275.84        2977.75           1593          81.00       331.30
 1275.87        2978.00           1596          96.00       396.69
 1275.90        2978.25           1600          85.00       348.74
 1275.93        2978.50           1603          91.00       374.90
 1275.96        2978.75           1606          83.00       340.02
 1276.00        2979.00           1610          86.00       353.10
 1276.03        2979.25           1613          84.00       344.38
 1276.06        2979.50           1616          73.00       296.43
 1276.09        2979.75           1620          89.00       366.18
 1276.12        2980.00           1623          86.00       353.10
 1276.15        2980.25           1626          81.00       331.30
 1276.18        2980.50           1630          86.00       353.10
 1276.21        2980.75           1633          88.00       361.82
 1276.24        2981.00           1637          79.00       322.58
 1276.27        2981.25           1640          93.00       383.61
 1276.30        2981.50           1643          80.00       326.94
 1276.34        2981.75           1647          90.00       370.54
 1276.37        2982.00           1650          90.00       370.54
 1276.40        2982.25           1653          81.00       331.30
 1276.43        2982.50           1657          87.00       357.46
 1276.46        2982.75           1660          93.00       383.61
 1276.49        2983.00           1663          94.00       387.97
 1276.52        2983.25           1667          82.00       335.66
 1276.55        2983.50           1670          81.00       331.30
 1276.58        2983.75           1673          79.00       322.58
 1276.61        2984.00           1677          87.00       357.46
HS scan finished at 21:16:50
end
