************************************************************
  HS Scan of (1) Internal mercury lamp
************************************************************
Integration time is 0.2294 seconds per sample
dh210717Manchester 53.47 2.23 2.857833pr1000
************************************************************
Dead Time -------------------------  3E-08 
Number of Cycles Used -------------  4 
Starting Wavelength (Angstroms) ---  2950 
Final Wavelength (Angstoms) -------  2984 
Wavelength Increment (Angstroms) --  .25 
Filter Wheel #1 Position ---------- (1) Ground quartz diffuser (ND=2.32)
Filter Wheel #2 Position ---------- (1) Neutral Density 0.494



************************************************************
HS scan start time = 01:30:16
Dark Count =  5.8 


Time (GMT)  Wavelength (Ang)  Step Number  Raw Counts  Counts/Second

   90.64        2950.00           1222         111.00       458.59
   90.71        2950.25           1226          92.00       375.77
   90.74        2950.50           1229         105.00       432.44
   90.77        2950.75           1232         106.00       436.80
   90.80        2951.00           1236         100.00       410.64
   90.83        2951.25           1239          95.00       388.85
   90.86        2951.50           1242          96.00       393.20
   90.89        2951.75           1246         108.00       445.52
   90.92        2952.00           1249         105.00       432.44
   90.96        2952.25           1252          98.00       401.92
   90.99        2952.50           1256         103.00       423.72
   91.02        2952.75           1259         109.00       449.88
   91.05        2953.00           1262         103.00       423.72
   91.08        2953.25           1266          98.00       401.92
   91.11        2953.50           1269         105.00       432.44
   91.14        2953.75           1272         100.00       410.64
   91.17        2954.00           1276          97.00       397.56
   91.20        2954.25           1279         103.00       423.72
   91.23        2954.50           1282         106.00       436.80
   91.26        2954.75           1286         101.00       415.00
   91.29        2955.00           1289          91.00       371.41
   91.33        2955.25           1292         102.00       419.36
   91.36        2955.50           1296         107.00       441.16
   91.39        2955.75           1299         100.00       410.64
   91.42        2956.00           1302         102.00       419.36
   91.45        2956.25           1306          96.00       393.20
   91.48        2956.50           1309         104.00       428.08
   91.51        2956.75           1312         107.00       441.16
   91.54        2957.00           1316          98.00       401.92
   91.57        2957.25           1319         109.00       449.88
   91.61        2957.50           1322          92.00       375.77
   91.64        2957.75           1326         100.00       410.64
   91.67        2958.00           1329          87.00       353.97
   91.70        2958.25           1332         106.00       436.80
   91.73        2958.50           1336          99.00       406.28
   91.76        2958.75           1339          98.00       401.92
   91.79        2959.00           1342         106.00       436.80
   91.82        2959.25           1346         114.00       471.67
   91.85        2959.50           1349         115.00       476.03
   91.88        2959.75           1352         119.00       493.47
   91.92        2960.00           1356         144.00       602.45
   91.95        2960.25           1359         164.00       689.64
   91.98        2960.50           1362         206.00       872.73
   92.01        2960.75           1366         276.00      1177.90
   92.04        2961.00           1369         306.00      1308.68
   92.07        2961.25           1372         360.00      1544.10
   92.10        2961.50           1376         412.00      1770.80
   92.13        2961.75           1379         518.00      2232.93
   92.16        2962.00           1382         855.00      3702.24
   92.19        2962.25           1386        2285.00      9938.45
   92.22        2962.50           1389        3782.00     16469.34
   92.26        2962.75           1392        5378.00     23434.96
   92.29        2963.00           1396        7668.00     33434.57
   92.32        2963.25           1399        9339.00     40735.02
   92.35        2963.50           1402       11265.00     49153.51
   92.38        2963.75           1406       13492.00     58892.98
   92.41        2964.00           1409       15082.00     65850.10
   92.44        2964.25           1412       16808.00     73405.59
   92.47        2964.50           1416       19167.00     83737.56
   92.50        2964.75           1419       21070.00     92077.01
   92.54        2965.00           1422       22612.00     98837.53
   92.57        2965.25           1426       24833.00    108579.80
   92.60        2965.50           1429       26497.00    115882.60
   92.63        2965.75           1432       28248.00    123570.60
   92.66        2966.00           1436       30588.00    133850.30
   92.69        2966.25           1439       32160.00    140759.70
   92.72        2966.50           1442       33871.00    148283.30
   92.75        2966.75           1446       35653.00    156122.70
   92.78        2967.00           1449       36623.00    160391.50
   92.81        2967.25           1452       36852.00    161399.50
   92.84        2967.50           1456       36735.00    160884.50
   92.88        2967.75           1459       36655.00    160532.40
   92.91        2968.00           1462       36595.00    160268.30
   92.94        2968.25           1466       36058.00    157904.90
   92.97        2968.50           1469       34919.00    152893.20
   93.00        2968.75           1472       33471.00    146524.10
   93.03        2969.00           1476       31068.00    135959.70
   93.06        2969.25           1479       29442.00    128815.10
   93.09        2969.50           1482       27746.00    121366.10
   93.12        2969.75           1486       25508.00    111541.80
   93.15        2970.00           1489       23782.00    103968.90
   93.19        2970.25           1492       21992.00     96118.96
   93.22        2970.50           1496       19941.00     87128.92
   93.25        2970.75           1499       18328.00     80062.16
   93.28        2971.00           1502       16812.00     73423.10
   93.31        2971.25           1506       14518.00     63381.96
   93.34        2971.50           1509       12719.00     55511.73
   93.37        2971.75           1513       10590.00     46202.62
   93.40        2972.00           1516        8818.00     38458.47
   93.43        2972.25           1519        7025.00     30626.21
   93.47        2972.50           1523        4859.00     21169.50
   93.50        2972.75           1526        3265.00     14213.56
   93.53        2973.00           1529        1729.00      7513.46
   93.56        2973.25           1533         661.00      2856.39
   93.59        2973.50           1536         423.00      1818.76
   93.62        2973.75           1539         336.00      1439.47
   93.65        2974.00           1543         311.00      1330.48
   93.68        2974.25           1546         225.00       955.56
   93.71        2974.50           1549         178.00       750.67
   93.74        2974.75           1553         145.00       606.81
   93.77        2975.00           1556         123.00       510.91
   93.81        2975.25           1559         110.00       454.23
   93.84        2975.50           1563          89.00       362.69
   93.87        2975.75           1566          96.00       393.20
   93.90        2976.00           1569          88.00       358.33
   93.93        2976.25           1573          96.00       393.20
   93.96        2976.50           1576          96.00       393.20
   93.99        2976.75           1579          95.00       388.85
   94.02        2977.00           1583          97.00       397.56
   94.05        2977.25           1586          94.00       384.49
   94.08        2977.50           1590          89.00       362.69
   94.12        2977.75           1593          86.00       349.61
   94.15        2978.00           1596          98.00       401.92
   94.18        2978.25           1600          86.00       349.61
   94.21        2978.50           1603          90.00       367.05
   94.24        2978.75           1606          82.00       332.17
   94.27        2979.00           1610          93.00       380.13
   94.30        2979.25           1613         102.00       419.36
   94.33        2979.50           1616          89.00       362.69
   94.36        2979.75           1620          92.00       375.77
   94.39        2980.00           1623          94.00       384.49
   94.42        2980.25           1626          86.00       349.61
   94.45        2980.50           1630          84.00       340.89
   94.48        2980.75           1633          90.00       367.05
   94.52        2981.00           1637          87.00       353.97
   94.55        2981.25           1640          88.00       358.33
   94.58        2981.50           1643          93.00       380.13
   94.61        2981.75           1647          84.00       340.89
   94.64        2982.00           1650          85.00       345.25
   94.67        2982.25           1653          88.00       358.33
   94.70        2982.50           1657          83.00       336.53
   94.73        2982.75           1660          82.00       332.17
   94.76        2983.00           1663          94.00       384.49
   94.79        2983.25           1667          91.00       371.41
   94.83        2983.50           1670          88.00       358.33
   94.86        2983.75           1673          83.00       336.53
   94.89        2984.00           1677          84.00       340.89
HS scan finished at 01:35:06
end
************************************************************
  HS Scan of (1) Internal mercury lamp
************************************************************
Integration time is 0.2294 seconds per sample
dh210717Manchester 53.47 2.23 2.804185pr1000
************************************************************
Dead Time -------------------------  3E-08 
Number of Cycles Used -------------  4 
Starting Wavelength (Angstroms) ---  2950 
Final Wavelength (Angstoms) -------  2984 
Wavelength Increment (Angstroms) --  .25 
Filter Wheel #1 Position ---------- (1) Ground quartz diffuser (ND=2.32)
Filter Wheel #2 Position ---------- (1) Neutral Density 0.494



************************************************************
HS scan start time = 21:13:17
Dark Count =  6.4 


Time (GMT)  Wavelength (Ang)  Step Number  Raw Counts  Counts/Second

 1273.65        2950.00           1222         119.00       490.85
 1273.72        2950.25           1226          96.00       390.59
 1273.75        2950.50           1229         102.00       416.74
 1273.78        2950.75           1232         102.00       416.74
 1273.81        2951.00           1236         112.00       460.34
 1273.84        2951.25           1239         109.00       447.26
 1273.87        2951.50           1242         103.00       421.10
 1273.90        2951.75           1246         107.00       438.54
 1273.93        2952.00           1249         104.00       425.46
 1273.97        2952.25           1252         105.00       429.82
 1274.00        2952.50           1256         113.00       464.70
 1274.03        2952.75           1259         101.00       412.39
 1274.06        2953.00           1262         105.00       429.82
 1274.09        2953.25           1266         113.00       464.70
 1274.12        2953.50           1269         106.00       434.18
 1274.15        2953.75           1272          96.00       390.59
 1274.18        2954.00           1276         100.00       408.03
 1274.21        2954.25           1279          95.00       386.23
 1274.24        2954.50           1282         103.00       421.10
 1274.27        2954.75           1286         111.00       455.98
 1274.31        2955.00           1289         108.00       442.90
 1274.34        2955.25           1292         101.00       412.39
 1274.37        2955.50           1296         100.00       408.03
 1274.40        2955.75           1299          93.00       377.51
 1274.43        2956.00           1302         102.00       416.74
 1274.46        2956.25           1306          93.00       377.51
 1274.49        2956.50           1309         112.00       460.34
 1274.52        2956.75           1312          93.00       377.51
 1274.55        2957.00           1316         109.00       447.26
 1274.58        2957.25           1319         106.00       434.18
 1274.61        2957.50           1322         104.00       425.46
 1274.64        2957.75           1326         104.00       425.46
 1274.68        2958.00           1329          96.00       390.59
 1274.71        2958.25           1332          94.00       381.87
 1274.74        2958.50           1336         100.00       408.03
 1274.77        2958.75           1339          93.00       377.51
 1274.80        2959.00           1342         101.00       412.39
 1274.83        2959.25           1346         100.00       408.03
 1274.86        2959.50           1349         106.00       434.18
 1274.89        2959.75           1352         119.00       490.85
 1274.92        2960.00           1356         139.00       578.04
 1274.95        2960.25           1359         159.00       665.23
 1274.98        2960.50           1362         212.00       896.28
 1275.02        2960.75           1366         260.00      1105.53
 1275.05        2961.00           1369         276.00      1175.28
 1275.08        2961.25           1372         342.00      1463.01
 1275.11        2961.50           1376         406.00      1742.03
 1275.14        2961.75           1379         490.00      2108.24
 1275.17        2962.00           1382         877.00      3795.55
 1275.20        2962.25           1386        2468.00     10734.06
 1275.23        2962.50           1389        4226.00     18404.23
 1275.26        2962.75           1392        5760.00     25099.98
 1275.29        2963.00           1396        7916.00     34515.24
 1275.33        2963.25           1399        9447.00     41204.35
 1275.36        2963.50           1402       11048.00     48202.17
 1275.39        2963.75           1406       13389.00     58439.77
 1275.42        2964.00           1409       15155.00     66166.96
 1275.45        2964.25           1412       16723.00     73030.80
 1275.48        2964.50           1416       18925.00     82674.73
 1275.51        2964.75           1419       20823.00     90991.72
 1275.54        2965.00           1422       22305.00     97488.72
 1275.57        2965.25           1426       24778.00    108335.80
 1275.60        2965.50           1429       26255.00    114817.70
 1275.63        2965.75           1432       28172.00    123234.20
 1275.67        2966.00           1436       30305.00    132604.10
 1275.70        2966.25           1439       31999.00    140049.30
 1275.73        2966.50           1442       33554.00    146886.50
 1275.76        2966.75           1446       35312.00    154619.70
 1275.79        2967.00           1449       35994.00    157620.60
 1275.82        2967.25           1452       36107.00    158117.90
 1275.85        2967.50           1456       35966.00    157497.40
 1275.88        2967.75           1459       35932.00    157347.80
 1275.91        2968.00           1462       35849.00    156982.60
 1275.94        2968.25           1466       35049.00    153462.50
 1275.97        2968.50           1469       33454.00    146446.70
 1276.01        2968.75           1472       31980.00    139965.70
 1276.04        2969.00           1476       29936.00    130982.70
 1276.07        2969.25           1479       28098.00    122909.20
 1276.10        2969.50           1482       26576.00    116226.70
 1276.13        2969.75           1486       24492.00    107081.00
 1276.16        2970.00           1489       22756.00     99466.38
 1276.19        2970.25           1492       21356.00     93328.08
 1276.22        2970.50           1496       18928.00     82687.87
 1276.25        2970.75           1499       17381.00     75912.01
 1276.28        2971.00           1502       15699.00     68547.97
 1276.32        2971.25           1506       13257.00     57862.34
 1276.35        2971.50           1509       11430.00     49872.30
 1276.38        2971.75           1513        9168.00     39985.17
 1276.41        2972.00           1516        7657.00     33383.90
 1276.44        2972.25           1519        6001.00     26152.16
 1276.47        2972.50           1523        3984.00     17348.17
 1276.50        2972.75           1526        2515.00     10939.07
 1276.53        2973.00           1529        1253.00      5435.06
 1276.56        2973.25           1533         538.00      2317.51
 1276.60        2973.50           1536         382.00      1637.40
 1276.63        2973.75           1539         373.00      1598.16
 1276.66        2974.00           1543         289.00      1231.96
 1276.69        2974.25           1546         219.00       926.79
 1276.72        2974.50           1549         186.00       782.93
 1276.75        2974.75           1553         142.00       591.12
 1276.78        2975.00           1556         125.00       517.01
 1276.81        2975.25           1559         100.00       408.03
 1276.84        2975.50           1563          99.00       403.67
 1276.87        2975.75           1566          98.00       399.31
 1276.90        2976.00           1569          85.00       342.64
 1276.93        2976.25           1573          86.00       347.00
 1276.96        2976.50           1576          87.00       351.36
 1276.99        2976.75           1579         100.00       408.03
 1277.02        2977.00           1583          91.00       368.79
 1277.05        2977.25           1586          93.00       377.51
 1277.08        2977.50           1590          83.00       333.92
 1277.12        2977.75           1593          89.00       360.07
 1277.15        2978.00           1596          92.00       373.15
 1277.18        2978.25           1600          80.00       320.84
 1277.21        2978.50           1603         108.00       442.90
 1277.24        2978.75           1606          87.00       351.36
 1277.27        2979.00           1610         101.00       412.39
 1277.30        2979.25           1613          95.00       386.23
 1277.33        2979.50           1616          91.00       368.79
 1277.36        2979.75           1620          92.00       373.15
 1277.39        2980.00           1623          87.00       351.36
 1277.42        2980.25           1626          88.00       355.71
 1277.46        2980.50           1630          89.00       360.07
 1277.49        2980.75           1633          85.00       342.64
 1277.52        2981.00           1637          94.00       381.87
 1277.55        2981.25           1640          86.00       347.00
 1277.58        2981.50           1643          87.00       351.36
 1277.61        2981.75           1647          90.00       364.43
 1277.64        2982.00           1650          98.00       399.31
 1277.67        2982.25           1653          98.00       399.31
 1277.70        2982.50           1657          92.00       373.15
 1277.73        2982.75           1660          88.00       355.71
 1277.76        2983.00           1663          96.00       390.59
 1277.79        2983.25           1667          85.00       342.64
 1277.82        2983.50           1670          86.00       347.00
 1277.86        2983.75           1673          86.00       347.00
 1277.89        2984.00           1677          87.00       351.36
HS scan finished at 21:18:06
end
