************************************************************
  HS Scan of (1) Internal mercury lamp
************************************************************
Integration time is 0.2294 seconds per sample
dh190718Manchester 53.47 2.23 2.965129pr1000
************************************************************
Dead Time -------------------------  3E-08 
Number of Cycles Used -------------  4 
Starting Wavelength (Angstroms) ---  2950 
Final Wavelength (Angstoms) -------  2984 
Wavelength Increment (Angstroms) --  .25 
Filter Wheel #1 Position ---------- (1) Ground quartz diffuser (ND=2.32)
Filter Wheel #2 Position ---------- (1) Neutral Density 0.494



************************************************************
HS scan start time = 02:20:08
Dark Count =  5.2 


Time (GMT)  Wavelength (Ang)  Step Number  Raw Counts  Counts/Second

  140.50        2950.00           1222          57.00       225.81
  140.57        2950.25           1226          59.00       234.53
  140.60        2950.50           1229          65.00       260.68
  140.63        2950.75           1232          60.00       238.89
  140.66        2951.00           1236          53.00       208.37
  140.69        2951.25           1239          53.00       208.37
  140.72        2951.50           1242          53.00       208.37
  140.75        2951.75           1246          54.00       212.73
  140.78        2952.00           1249          54.00       212.73
  140.81        2952.25           1252          61.00       243.25
  140.84        2952.50           1256          52.00       204.01
  140.87        2952.75           1259          55.00       217.09
  140.91        2953.00           1262          45.00       173.50
  140.94        2953.25           1266          58.00       230.17
  140.97        2953.50           1269          53.00       208.37
  141.00        2953.75           1272          45.00       173.50
  141.03        2954.00           1276          54.00       212.73
  141.06        2954.25           1279          52.00       204.01
  141.09        2954.50           1282          53.00       208.37
  141.12        2954.75           1286          53.00       208.37
  141.15        2955.00           1289          52.00       204.01
  141.18        2955.25           1292          52.00       204.01
  141.21        2955.50           1296          51.00       199.65
  141.25        2955.75           1299          44.00       169.14
  141.28        2956.00           1302          55.00       217.09
  141.31        2956.25           1306          65.00       260.68
  141.34        2956.50           1309          48.00       186.57
  141.37        2956.75           1312          56.00       221.45
  141.40        2957.00           1316          46.00       177.86
  141.43        2957.25           1319          54.00       212.73
  141.46        2957.50           1322          57.00       225.81
  141.49        2957.75           1326          58.00       230.17
  141.53        2958.00           1329          56.00       221.45
  141.56        2958.25           1332          53.00       208.37
  141.59        2958.50           1336          51.00       199.65
  141.62        2958.75           1339          53.00       208.37
  141.65        2959.00           1342          47.00       182.22
  141.68        2959.25           1346          57.00       225.81
  141.71        2959.50           1349          63.00       251.96
  141.74        2959.75           1352          71.00       286.84
  141.77        2960.00           1356          98.00       404.54
  141.80        2960.25           1359         121.00       504.80
  141.84        2960.50           1362         156.00       657.38
  141.87        2960.75           1366         208.00       884.07
  141.90        2961.00           1369         244.00      1041.01
  141.93        2961.25           1372         294.00      1258.98
  141.96        2961.50           1376         373.00      1603.39
  141.99        2961.75           1379         506.00      2183.23
  142.02        2962.00           1382        1126.00      4886.51
  142.05        2962.25           1386        2694.00     11725.14
  142.08        2962.50           1389        4164.00     18138.90
  142.11        2962.75           1392        5554.00     24205.89
  142.15        2963.00           1396        7435.00     32419.49
  142.18        2963.25           1399        8708.00     37980.48
  142.21        2963.50           1402       10339.00     45108.08
  142.24        2963.75           1406       12383.00     54044.84
  142.27        2964.00           1409       13855.00     60483.67
  142.30        2964.25           1412       15261.00     66636.13
  142.33        2964.50           1416       17285.00     75496.87
  142.36        2964.75           1419       18685.00     81628.61
  142.40        2965.00           1422       20445.00     89340.27
  142.43        2965.25           1426       22362.00     97743.91
  142.46        2965.50           1429       23907.00    104519.90
  142.49        2965.75           1432       25320.00    110719.40
  142.52        2966.00           1436       27342.00    119594.90
  142.55        2966.25           1439       28743.00    125747.20
  142.58        2966.50           1442       29876.00    130724.40
  142.61        2966.75           1446       31143.00    136292.00
  142.64        2967.00           1449       31417.00    137496.30
  142.68        2967.25           1452       31420.00    137509.40
  142.71        2967.50           1456       31550.00    138080.80
  142.74        2967.75           1459       31519.00    137944.60
  142.77        2968.00           1462       31478.00    137764.40
  142.80        2968.25           1466       30452.00    133255.30
  142.83        2968.50           1469       29270.00    128062.10
  142.86        2968.75           1472       27878.00    121948.40
  142.89        2969.00           1476       25734.00    112536.20
  142.92        2969.25           1479       24182.00    105726.30
  142.95        2969.50           1482       22812.00     99717.22
  142.99        2969.75           1486       20873.00     91216.15
  143.02        2970.00           1489       19652.00     85865.21
  143.05        2970.25           1492       18099.00     79061.76
  143.08        2970.50           1496       16418.00     71700.71
  143.11        2970.75           1499       14990.00     65450.10
  143.14        2971.00           1502       13511.00     58978.73
  143.17        2971.25           1506       11517.00     50257.93
  143.20        2971.50           1509       10098.00     44054.70
  143.23        2971.75           1513        8224.00     35865.95
  143.26        2972.00           1516        6762.00     29480.29
  143.30        2972.25           1519        5209.00     22699.85
  143.33        2972.50           1523        3388.00     14752.82
  143.36        2972.75           1526        1951.00      8484.29
  143.39        2973.00           1529         878.00      3805.14
  143.42        2973.25           1533         389.00      1673.14
  143.45        2973.50           1536         289.00      1237.19
  143.48        2973.75           1539         250.00      1067.17
  143.51        2974.00           1543         212.00       901.51
  143.54        2974.25           1546         172.00       727.13
  143.57        2974.50           1549         137.00       574.55
  143.61        2974.75           1553          84.00       343.51
  143.64        2975.00           1556          79.00       321.71
  143.69        2975.25           1559          62.00       247.60
  143.73        2975.50           1563          52.00       204.01
  143.76        2975.75           1566          57.00       225.81
  143.79        2976.00           1569          52.00       204.01
  143.82        2976.25           1573          52.00       204.01
  143.85        2976.50           1576          48.00       186.57
  143.88        2976.75           1579          53.00       208.37
  143.91        2977.00           1583          52.00       204.01
  143.94        2977.25           1586          48.00       186.57
  143.97        2977.50           1590          53.00       208.37
  144.00        2977.75           1593          51.00       199.65
  144.04        2978.00           1596          51.00       199.65
  144.07        2978.25           1600          49.00       190.93
  144.10        2978.50           1603          61.00       243.25
  144.13        2978.75           1606          50.00       195.29
  144.16        2979.00           1610          58.00       230.17
  144.19        2979.25           1613          48.00       186.57
  144.22        2979.50           1616          47.00       182.22
  144.25        2979.75           1620          58.00       230.17
  144.28        2980.00           1623          48.00       186.57
  144.31        2980.25           1626          49.00       190.93
  144.34        2980.50           1630          48.00       186.57
  144.37        2980.75           1633          53.00       208.37
  144.41        2981.00           1637          56.00       221.45
  144.44        2981.25           1640          46.00       177.86
  144.47        2981.50           1643          47.00       182.22
  144.50        2981.75           1647          49.00       190.93
  144.53        2982.00           1650          50.00       195.29
  144.56        2982.25           1653          49.00       190.93
  144.59        2982.50           1657          49.00       190.93
  144.62        2982.75           1660          46.00       177.86
  144.65        2983.00           1663          50.00       195.29
  144.69        2983.25           1667          49.00       190.93
  144.72        2983.50           1670          50.00       195.29
  144.75        2983.75           1673          51.00       199.65
  144.78        2984.00           1677          45.00       173.50
HS scan finished at 02:25:00
end
************************************************************
  HS Scan of (1) Internal mercury lamp
************************************************************
Integration time is 0.2294 seconds per sample
dh190718Manchester 53.47 2.23 3.018777pr1000
************************************************************
Dead Time -------------------------  3E-08 
Number of Cycles Used -------------  4 
Starting Wavelength (Angstroms) ---  2950 
Final Wavelength (Angstoms) -------  2984 
Wavelength Increment (Angstroms) --  .25 
Filter Wheel #1 Position ---------- (1) Ground quartz diffuser (ND=2.32)
Filter Wheel #2 Position ---------- (1) Neutral Density 0.494



************************************************************
HS scan start time = 21:12:09
Dark Count =  6.6 


Time (GMT)  Wavelength (Ang)  Step Number  Raw Counts  Counts/Second

 1272.51        2950.00           1222          58.00       224.06
 1272.58        2950.25           1226          59.00       228.42
 1272.61        2950.50           1229          56.00       215.35
 1272.64        2950.75           1232          52.00       197.91
 1272.67        2951.00           1236          58.00       224.06
 1272.71        2951.25           1239          52.00       197.91
 1272.74        2951.50           1242          63.00       245.86
 1272.77        2951.75           1246          53.00       202.27
 1272.80        2952.00           1249          63.00       245.86
 1272.83        2952.25           1252          55.00       210.99
 1272.86        2952.50           1256          56.00       215.35
 1272.89        2952.75           1259          60.00       232.78
 1272.92        2953.00           1262          53.00       202.27
 1272.95        2953.25           1266          51.00       193.55
 1272.98        2953.50           1269          58.00       224.06
 1273.02        2953.75           1272          59.00       228.42
 1273.05        2954.00           1276          49.00       184.83
 1273.08        2954.25           1279          57.00       219.71
 1273.11        2954.50           1282          57.00       219.71
 1273.14        2954.75           1286          53.00       202.27
 1273.17        2955.00           1289          55.00       210.99
 1273.20        2955.25           1292          56.00       215.35
 1273.23        2955.50           1296          53.00       202.27
 1273.26        2955.75           1299          54.00       206.63
 1273.29        2956.00           1302          61.00       237.14
 1273.33        2956.25           1306          54.00       206.63
 1273.36        2956.50           1309          47.00       176.11
 1273.39        2956.75           1312          48.00       180.47
 1273.42        2957.00           1316          55.00       210.99
 1273.45        2957.25           1319          48.00       180.47
 1273.48        2957.50           1322          58.00       224.06
 1273.51        2957.75           1326          47.00       176.11
 1273.54        2958.00           1329          51.00       193.55
 1273.57        2958.25           1332          48.00       180.47
 1273.60        2958.50           1336          46.00       171.75
 1273.63        2958.75           1339          53.00       202.27
 1273.67        2959.00           1342          52.00       197.91
 1273.70        2959.25           1346          60.00       232.78
 1273.73        2959.50           1349          62.00       241.50
 1273.76        2959.75           1352          77.00       306.89
 1273.79        2960.00           1356         111.00       455.11
 1273.82        2960.25           1359         144.00       598.96
 1273.85        2960.50           1362         173.00       725.39
 1273.88        2960.75           1366         210.00       886.68
 1273.91        2961.00           1369         247.00      1047.98
 1273.94        2961.25           1372         283.00      1204.93
 1273.97        2961.50           1376         342.00      1462.14
 1274.00        2961.75           1379         484.00      2081.21
 1274.03        2962.00           1382        1038.00      4496.68
 1274.06        2962.25           1386        2536.00     11029.80
 1274.10        2962.50           1389        4013.00     17473.85
 1274.13        2962.75           1392        5452.00     23754.50
 1274.16        2963.00           1396        7391.00     32221.19
 1274.19        2963.25           1399        8785.00     38310.79
 1274.22        2963.50           1402       10100.00     44057.33
 1274.25        2963.75           1406       12208.00     53273.39
 1274.28        2964.00           1409       13807.00     60267.55
 1274.31        2964.25           1412       15297.00     66787.56
 1274.34        2964.50           1416       17229.00     75245.53
 1274.38        2964.75           1419       18770.00     81994.82
 1274.41        2965.00           1422       20210.00     88304.24
 1274.44        2965.25           1426       22101.00     96593.38
 1274.47        2965.50           1429       23690.00    103561.90
 1274.50        2965.75           1432       25028.00    109431.90
 1274.53        2966.00           1436       27024.00    118192.50
 1274.56        2966.25           1439       28479.00    124581.60
 1274.59        2966.50           1442       29946.00    131025.80
 1274.62        2966.75           1446       31521.00    137947.20
 1274.65        2967.00           1449       31969.00    139916.50
 1274.69        2967.25           1452       32025.00    140162.70
 1274.72        2967.50           1456       31947.00    139819.80
 1274.75        2967.75           1459       32154.00    140729.80
 1274.78        2968.00           1462       31861.00    139441.70
 1274.81        2968.25           1466       31249.00    136751.70
 1274.84        2968.50           1469       30097.00    131689.30
 1274.87        2968.75           1472       28713.00    125609.30
 1274.90        2969.00           1476       26846.00    117411.10
 1274.93        2969.25           1479       25421.00    111156.50
 1274.97        2969.50           1482       23800.00    104044.40
 1275.00        2969.75           1486       21887.00     95655.10
 1275.03        2970.00           1489       20388.00     89084.33
 1275.06        2970.25           1492       18783.00     82051.77
 1275.09        2970.50           1496       16965.00     74089.52
 1275.12        2970.75           1499       15634.00     68262.58
 1275.15        2971.00           1502       14086.00     61488.21
 1275.18        2971.25           1506       12323.00     53776.32
 1275.21        2971.50           1509       10580.00     46155.41
 1275.25        2971.75           1513        8614.00     37563.67
 1275.28        2972.00           1516        7139.00     31120.58
 1275.31        2972.25           1519        5624.00     24505.37
 1275.34        2972.50           1523        3716.00     16177.86
 1275.37        2972.75           1526        2271.00      9873.89
 1275.40        2973.00           1529        1045.00      4527.21
 1275.43        2973.25           1533         425.00      1823.99
 1275.46        2973.50           1536         312.00      1331.35
 1275.49        2973.75           1539         260.00      1104.66
 1275.53        2974.00           1543         219.00       925.92
 1275.56        2974.25           1546         154.00       642.56
 1275.59        2974.50           1549         122.00       503.06
 1275.62        2974.75           1553          73.00       289.45
 1275.65        2975.00           1556          72.00       285.09
 1275.68        2975.25           1559          50.00       189.19
 1275.71        2975.50           1563          55.00       210.99
 1275.74        2975.75           1566          55.00       210.99
 1275.77        2976.00           1569          53.00       202.27
 1275.81        2976.25           1573          61.00       237.14
 1275.84        2976.50           1576          55.00       210.99
 1275.87        2976.75           1579          47.00       176.11
 1275.90        2977.00           1583          53.00       202.27
 1275.93        2977.25           1586          51.00       193.55
 1275.96        2977.50           1590          42.00       154.32
 1275.99        2977.75           1593          48.00       180.47
 1276.02        2978.00           1596          48.00       180.47
 1276.05        2978.25           1600          54.00       206.63
 1276.08        2978.50           1603          51.00       193.55
 1276.11        2978.75           1606          51.00       193.55
 1276.14        2979.00           1610          58.00       224.06
 1276.18        2979.25           1613          52.00       197.91
 1276.21        2979.50           1616          54.00       206.63
 1276.24        2979.75           1620          50.00       189.19
 1276.27        2980.00           1623          49.00       184.83
 1276.30        2980.25           1626          54.00       206.63
 1276.33        2980.50           1630          48.00       180.47
 1276.36        2980.75           1633          47.00       176.11
 1276.39        2981.00           1637          47.00       176.11
 1276.43        2981.25           1640          48.00       180.47
 1276.46        2981.50           1643          50.00       189.19
 1276.49        2981.75           1647          48.00       180.47
 1276.52        2982.00           1650          55.00       210.99
 1276.55        2982.25           1653          55.00       210.99
 1276.58        2982.50           1657          43.00       158.68
 1276.61        2982.75           1660          53.00       202.27
 1276.64        2983.00           1663          47.00       176.11
 1276.67        2983.25           1667          49.00       184.83
 1276.71        2983.50           1670          49.00       184.83
 1276.74        2983.75           1673          56.00       215.35
 1276.77        2984.00           1677          54.00       206.63
HS scan finished at 21:16:59
end
