************************************************************
  HS Scan of (1) Internal mercury lamp
************************************************************
Integration time is 0.2294 seconds per sample
dh220718Manchester 53.47 2.23 2.911481pr1000
************************************************************
Dead Time -------------------------  3E-08 
Number of Cycles Used -------------  4 
Starting Wavelength (Angstroms) ---  2950 
Final Wavelength (Angstoms) -------  2984 
Wavelength Increment (Angstroms) --  .25 
Filter Wheel #1 Position ---------- (1) Ground quartz diffuser (ND=2.32)
Filter Wheel #2 Position ---------- (1) Neutral Density 0.494



************************************************************
HS scan start time = 01:31:48
Dark Count =  8.399999 


Time (GMT)  Wavelength (Ang)  Step Number  Raw Counts  Counts/Second

   92.17        2950.00           1222          57.00       211.86
   92.24        2950.25           1226          55.00       203.14
   92.27        2950.50           1229          65.00       246.73
   92.30        2950.75           1232          55.00       203.14
   92.33        2951.00           1236          49.00       176.98
   92.36        2951.25           1239          52.00       190.06
   92.39        2951.50           1242          50.00       181.34
   92.43        2951.75           1246          54.00       198.78
   92.46        2952.00           1249          57.00       211.86
   92.49        2952.25           1252          53.00       194.42
   92.52        2952.50           1256          55.00       203.14
   92.55        2952.75           1259          52.00       190.06
   92.58        2953.00           1262          58.00       216.22
   92.61        2953.25           1266          56.00       207.50
   92.64        2953.50           1269          53.00       194.42
   92.67        2953.75           1272          56.00       207.50
   92.70        2954.00           1276          52.00       190.06
   92.73        2954.25           1279          57.00       211.86
   92.76        2954.50           1282          59.00       220.58
   92.79        2954.75           1286          61.00       229.30
   92.82        2955.00           1289          58.00       216.22
   92.86        2955.25           1292          54.00       198.78
   92.89        2955.50           1296          49.00       176.98
   92.92        2955.75           1299          55.00       203.14
   92.95        2956.00           1302          51.00       185.70
   92.98        2956.25           1306          49.00       176.98
   93.01        2956.50           1309          58.00       216.22
   93.04        2956.75           1312          57.00       211.86
   93.07        2957.00           1316          53.00       194.42
   93.10        2957.25           1319          52.00       190.06
   93.13        2957.50           1322          62.00       233.65
   93.16        2957.75           1326          52.00       190.06
   93.19        2958.00           1329          55.00       203.14
   93.22        2958.25           1332          52.00       190.06
   93.25        2958.50           1336          56.00       207.50
   93.29        2958.75           1339          50.00       181.34
   93.32        2959.00           1342          54.00       198.78
   93.35        2959.25           1346          58.00       216.22
   93.38        2959.50           1349          62.00       233.65
   93.41        2959.75           1352          78.00       303.40
   93.44        2960.00           1356         105.00       421.10
   93.47        2960.25           1359         126.00       512.65
   93.50        2960.50           1362         177.00       734.98
   93.53        2960.75           1366         219.00       918.07
   93.57        2961.00           1369         260.00      1096.81
   93.60        2961.25           1372         294.00      1245.03
   93.63        2961.50           1376         371.00      1580.72
   93.66        2961.75           1379         588.00      2526.78
   93.69        2962.00           1382        1332.00      5770.83
   93.72        2962.25           1386        2941.00     12788.69
   93.75        2962.50           1389        4391.00     19115.58
   93.78        2962.75           1392        5789.00     25217.85
   93.81        2963.00           1396        7807.00     34030.36
   93.85        2963.25           1399        9033.00     39386.53
   93.88        2963.50           1402       10633.00     46379.23
   93.91        2963.75           1406       12585.00     54914.28
   93.94        2964.00           1409       14005.00     61125.94
   93.97        2964.25           1412       15510.00     67711.96
   94.00        2964.50           1416       17329.00     75675.53
   94.03        2964.75           1419       18657.00     81491.93
   94.06        2965.00           1422       20037.00     87538.22
   94.09        2965.25           1426       21999.00     96138.25
   94.13        2965.50           1429       23619.00    103242.60
   94.16        2965.75           1432       25216.00    110249.00
   94.19        2966.00           1436       27046.00    118281.20
   94.22        2966.25           1439       28546.00    124867.90
   94.25        2966.50           1442       29722.00    130033.70
   94.28        2966.75           1446       30710.00    134375.00
   94.31        2967.00           1449       30988.00    135596.70
   94.34        2967.25           1452       30863.00    135047.40
   94.37        2967.50           1456       31112.00    136141.70
   94.41        2967.75           1459       30871.00    135082.50
   94.44        2968.00           1462       30732.00    134471.60
   94.47        2968.25           1466       29561.00    129326.40
   94.50        2968.50           1469       28184.00    123278.10
   94.53        2968.75           1472       26911.00    117688.60
   94.56        2969.00           1476       25070.00    109608.30
   94.59        2969.25           1479       23642.00    103343.40
   94.62        2969.50           1482       22105.00     96603.01
   94.65        2969.75           1486       20192.00     88217.47
   94.69        2970.00           1489       18843.00     82306.74
   94.72        2970.25           1492       17383.00     75912.01
   94.75        2970.50           1496       15622.00     68202.18
   94.78        2970.75           1499       14183.00     61904.74
   94.81        2971.00           1502       12829.00     55981.47
   94.84        2971.25           1506       10899.00     47542.04
   94.87        2971.50           1509        9468.00     41287.38
   94.90        2971.75           1513        7540.00     32864.12
   94.93        2972.00           1516        6147.00     26780.88
   94.97        2972.25           1519        4743.00     20651.85
   95.00        2972.50           1523        2948.00     12819.23
   95.03        2972.75           1526        1673.00      7257.90
   95.06        2973.00           1529         708.00      3049.97
   95.09        2973.25           1533         370.00      1576.36
   95.12        2973.50           1536         277.00      1170.92
   95.15        2973.75           1539         226.00       948.59
   95.18        2974.00           1543         195.00       813.45
   95.22        2974.25           1546         140.00       573.68
   95.25        2974.50           1549         105.00       421.10
   95.28        2974.75           1553          76.00       294.68
   95.31        2975.00           1556          67.00       255.45
   95.34        2975.25           1559          55.00       203.14
   95.37        2975.50           1563          60.00       224.94
   95.40        2975.75           1566          50.00       181.34
   95.43        2976.00           1569          58.00       216.22
   95.46        2976.25           1573          51.00       185.70
   95.49        2976.50           1576          52.00       190.06
   95.52        2976.75           1579          56.00       207.50
   95.56        2977.00           1583          54.00       198.78
   95.59        2977.25           1586          54.00       198.78
   95.62        2977.50           1590          51.00       185.70
   95.65        2977.75           1593          58.00       216.22
   95.68        2978.00           1596          65.00       246.73
   95.71        2978.25           1600          45.00       159.55
   95.74        2978.50           1603          47.00       168.27
   95.77        2978.75           1606          45.00       159.55
   95.80        2979.00           1610          48.00       172.63
   95.83        2979.25           1613          54.00       198.78
   95.86        2979.50           1616          49.00       176.98
   95.89        2979.75           1620          48.00       172.63
   95.93        2980.00           1623          46.00       163.91
   95.96        2980.25           1626          48.00       172.63
   95.99        2980.50           1630          52.00       190.06
   96.02        2980.75           1633          48.00       172.63
   96.05        2981.00           1637          57.00       211.86
   96.08        2981.25           1640          53.00       194.42
   96.11        2981.50           1643          50.00       181.34
   96.14        2981.75           1647          52.00       190.06
   96.17        2982.00           1650          54.00       198.78
   96.20        2982.25           1653          47.00       168.27
   96.23        2982.50           1657          51.00       185.70
   96.27        2982.75           1660          49.00       176.98
   96.30        2983.00           1663          48.00       172.63
   96.33        2983.25           1667          46.00       163.91
   96.36        2983.50           1670          51.00       185.70
   96.39        2983.75           1673          46.00       163.91
   96.42        2984.00           1677          45.00       159.55
HS scan finished at 01:36:38
end
************************************************************
  HS Scan of (1) Internal mercury lamp
************************************************************
Integration time is 0.2294 seconds per sample
dh220718Manchester 53.47 2.23 3.072425pr1000
************************************************************
Dead Time -------------------------  3E-08 
Number of Cycles Used -------------  4 
Starting Wavelength (Angstroms) ---  2950 
Final Wavelength (Angstoms) -------  2984 
Wavelength Increment (Angstroms) --  .25 
Filter Wheel #1 Position ---------- (1) Ground quartz diffuser (ND=2.32)
Filter Wheel #2 Position ---------- (1) Neutral Density 0.494



************************************************************
HS scan start time = 21:13:20
Dark Count =  5.6 


Time (GMT)  Wavelength (Ang)  Step Number  Raw Counts  Counts/Second

 1273.71        2950.00           1222          52.00       202.27
 1273.78        2950.25           1226          53.00       206.63
 1273.81        2950.50           1229          54.00       210.99
 1273.84        2950.75           1232          52.00       202.27
 1273.87        2951.00           1236          52.00       202.27
 1273.90        2951.25           1239          56.00       219.71
 1273.93        2951.50           1242          52.00       202.27
 1273.96        2951.75           1246          52.00       202.27
 1273.99        2952.00           1249          49.00       189.19
 1274.02        2952.25           1252          54.00       210.99
 1274.05        2952.50           1256          56.00       219.71
 1274.08        2952.75           1259          51.00       197.91
 1274.11        2953.00           1262          53.00       206.63
 1274.14        2953.25           1266          53.00       206.63
 1274.17        2953.50           1269          50.00       193.55
 1274.21        2953.75           1272          53.00       206.63
 1274.24        2954.00           1276          53.00       206.63
 1274.27        2954.25           1279          64.00       254.58
 1274.30        2954.50           1282          53.00       206.63
 1274.33        2954.75           1286          57.00       224.06
 1274.36        2955.00           1289          54.00       210.99
 1274.39        2955.25           1292          57.00       224.06
 1274.42        2955.50           1296          54.00       210.99
 1274.45        2955.75           1299          52.00       202.27
 1274.49        2956.00           1302          53.00       206.63
 1274.52        2956.25           1306          52.00       202.27
 1274.55        2956.50           1309          66.00       263.30
 1274.58        2956.75           1312          49.00       189.19
 1274.61        2957.00           1316          56.00       219.71
 1274.64        2957.25           1319          56.00       219.71
 1274.67        2957.50           1322          55.00       215.35
 1274.70        2957.75           1326          58.00       228.42
 1274.73        2958.00           1329          53.00       206.63
 1274.76        2958.25           1332          48.00       184.83
 1274.79        2958.50           1336          59.00       232.78
 1274.82        2958.75           1339          58.00       228.42
 1274.86        2959.00           1342          54.00       210.99
 1274.89        2959.25           1346          58.00       228.42
 1274.92        2959.50           1349          56.00       219.71
 1274.95        2959.75           1352          68.00       272.02
 1274.98        2960.00           1356          99.00       407.15
 1275.01        2960.25           1359         118.00       489.98
 1275.04        2960.50           1362         153.00       642.56
 1275.07        2960.75           1366         187.00       790.78
 1275.10        2961.00           1369         240.00      1021.83
 1275.14        2961.25           1372         291.00      1244.16
 1275.17        2961.50           1376         335.00      1435.98
 1275.20        2961.75           1379         400.00      1719.36
 1275.23        2962.00           1382         705.00      3049.10
 1275.26        2962.25           1386        1986.00      8635.19
 1275.29        2962.50           1389        3460.00     15065.22
 1275.32        2962.75           1392        4922.00     21445.35
 1275.35        2963.00           1396        7007.00     30548.47
 1275.38        2963.25           1399        8416.00     36702.99
 1275.41        2963.50           1402        9885.00     43122.01
 1275.45        2963.75           1406       11905.00     51952.76
 1275.48        2964.00           1409       13443.00     58679.50
 1275.51        2964.25           1412       14994.00     65465.85
 1275.54        2964.50           1416       16936.00     73966.93
 1275.57        2964.75           1419       18561.00     81083.66
 1275.60        2965.00           1422       20101.00     87830.96
 1275.63        2965.25           1426       22192.00     96996.76
 1275.66        2965.50           1429       23686.00    103548.70
 1275.69        2965.75           1432       25185.00    110125.20
 1275.73        2966.00           1436       27333.00    119553.60
 1275.76        2966.25           1439       28620.00    125205.20
 1275.79        2966.50           1442       30015.00    131333.40
 1275.82        2966.75           1446       31691.00    138698.90
 1275.85        2967.00           1449       32281.00    141292.50
 1275.88        2967.25           1452       32486.00    142193.80
 1275.91        2967.50           1456       32531.00    142391.60
 1275.94        2967.75           1459       32418.00    141894.80
 1275.97        2968.00           1462       32310.00    141420.00
 1276.01        2968.25           1466       32043.00    140246.20
 1276.04        2968.50           1469       30860.00    135046.50
 1276.07        2968.75           1472       29369.00    128495.30
 1276.10        2969.00           1476       27484.00    120216.60
 1276.13        2969.25           1479       26180.00    114492.00
 1276.16        2969.50           1482       24432.00    106821.30
 1276.19        2969.75           1486       22707.00     99255.01
 1276.22        2970.00           1489       21109.00     92248.84
 1276.25        2970.25           1492       19788.00     86459.36
 1276.29        2970.50           1496       17672.00     77189.88
 1276.32        2970.75           1499       16400.00     71620.16
 1276.35        2971.00           1502       14866.00     64905.69
 1276.38        2971.25           1506       12681.00     55346.40
 1276.41        2971.50           1509       11146.00     48634.12
 1276.44        2971.75           1513        9156.00     39936.22
 1276.47        2972.00           1516        7651.00     33361.19
 1276.50        2972.25           1519        6205.00     27046.35
 1276.53        2972.50           1523        4294.00     18704.48
 1276.57        2972.75           1526        3013.00     13115.01
 1276.60        2973.00           1529        1603.00      6964.84
 1276.63        2973.25           1533         563.00      2429.99
 1276.66        2973.50           1536         360.00      1544.97
 1276.69        2973.75           1539         281.00      1200.57
 1276.72        2974.00           1543         241.00      1026.19
 1276.75        2974.25           1546         168.00       707.95
 1276.78        2974.50           1549         125.00       520.50
 1276.81        2974.75           1553          87.00       354.84
 1276.84        2975.00           1556          73.00       293.81
 1276.87        2975.25           1559          58.00       228.42
 1276.91        2975.50           1563          54.00       210.99
 1276.94        2975.75           1566          49.00       189.19
 1276.97        2976.00           1569          51.00       197.91
 1277.00        2976.25           1573          56.00       219.71
 1277.03        2976.50           1576          49.00       189.19
 1277.06        2976.75           1579          50.00       193.55
 1277.09        2977.00           1583          63.00       250.22
 1277.12        2977.25           1586          50.00       193.55
 1277.15        2977.50           1590          53.00       206.63
 1277.18        2977.75           1593          49.00       189.19
 1277.21        2978.00           1596          59.00       232.78
 1277.24        2978.25           1600          55.00       215.35
 1277.27        2978.50           1603          56.00       219.71
 1277.31        2978.75           1606          45.00       171.75
 1277.34        2979.00           1610          53.00       206.63
 1277.37        2979.25           1613          58.00       228.42
 1277.40        2979.50           1616          54.00       210.99
 1277.43        2979.75           1620          52.00       202.27
 1277.46        2980.00           1623          58.00       228.42
 1277.49        2980.25           1626          50.00       193.55
 1277.52        2980.50           1630          51.00       197.91
 1277.55        2980.75           1633          46.00       176.11
 1277.58        2981.00           1637          55.00       215.35
 1277.62        2981.25           1640          55.00       215.35
 1277.65        2981.50           1643          52.00       202.27
 1277.68        2981.75           1647          50.00       193.55
 1277.71        2982.00           1650          52.00       202.27
 1277.74        2982.25           1653          56.00       219.71
 1277.77        2982.50           1657          50.00       193.55
 1277.80        2982.75           1660          54.00       210.99
 1277.83        2983.00           1663          54.00       210.99
 1277.86        2983.25           1667          48.00       184.83
 1277.90        2983.50           1670          43.00       163.03
 1277.93        2983.75           1673          52.00       202.27
 1277.96        2984.00           1677          45.00       171.75
HS scan finished at 21:18:10
end
