************************************************************
  HS Scan of (1) Internal mercury lamp
************************************************************
Integration time is 0.2294 seconds per sample
dh270717Manchester 53.47 2.23 2.804185pr1000
************************************************************
Dead Time -------------------------  3E-08 
Number of Cycles Used -------------  4 
Starting Wavelength (Angstroms) ---  2950 
Final Wavelength (Angstoms) -------  2984 
Wavelength Increment (Angstroms) --  .25 
Filter Wheel #1 Position ---------- (1) Ground quartz diffuser (ND=2.32)
Filter Wheel #2 Position ---------- (1) Neutral Density 0.494



************************************************************
HS scan start time = 01:31:05
Dark Count =  5 


Time (GMT)  Wavelength (Ang)  Step Number  Raw Counts  Counts/Second

   91.46        2950.00           1222         118.00       492.60
   91.53        2950.25           1226         102.00       422.85
   91.56        2950.50           1229         101.00       418.49
   91.59        2950.75           1232         102.00       422.85
   91.62        2951.00           1236          95.00       392.33
   91.65        2951.25           1239          92.00       379.25
   91.68        2951.50           1242         101.00       418.49
   91.71        2951.75           1246          87.00       357.46
   91.74        2952.00           1249          94.00       387.97
   91.77        2952.25           1252          97.00       401.05
   91.81        2952.50           1256         103.00       427.21
   91.84        2952.75           1259         102.00       422.85
   91.87        2953.00           1262          99.00       409.77
   91.90        2953.25           1266         100.00       414.13
   91.93        2953.50           1269         100.00       414.13
   91.96        2953.75           1272          98.00       405.41
   91.99        2954.00           1276          96.00       396.69
   92.02        2954.25           1279         104.00       431.57
   92.05        2954.50           1282         101.00       418.49
   92.08        2954.75           1286         102.00       422.85
   92.11        2955.00           1289          94.00       387.97
   92.15        2955.25           1292          93.00       383.61
   92.18        2955.50           1296          99.00       409.77
   92.21        2955.75           1299         103.00       427.21
   92.24        2956.00           1302          98.00       405.41
   92.27        2956.25           1306          94.00       387.97
   92.30        2956.50           1309          92.00       379.25
   92.33        2956.75           1312         106.00       440.28
   92.36        2957.00           1316          90.00       370.54
   92.39        2957.25           1319          91.00       374.90
   92.42        2957.50           1322          87.00       357.46
   92.45        2957.75           1326          92.00       379.25
   92.48        2958.00           1329          90.00       370.54
   92.52        2958.25           1332         101.00       418.49
   92.55        2958.50           1336          94.00       387.97
   92.58        2958.75           1339         104.00       431.57
   92.61        2959.00           1342          84.00       344.38
   92.64        2959.25           1346         102.00       422.85
   92.67        2959.50           1349         104.00       431.57
   92.70        2959.75           1352         111.00       462.08
   92.73        2960.00           1356         144.00       605.94
   92.76        2960.25           1359         186.00       789.03
   92.79        2960.50           1362         222.00       945.97
   92.82        2960.75           1366         281.00      1203.18
   92.86        2961.00           1369         306.00      1312.17
   92.89        2961.25           1372         373.00      1604.26
   92.92        2961.50           1376         433.00      1865.84
   92.95        2961.75           1379         515.00      2223.34
   92.98        2962.00           1382         931.00      4037.11
   93.01        2962.25           1386        2590.00     11272.34
   93.04        2962.50           1389        4166.00     18148.50
   93.07        2962.75           1392        5630.00     24538.55
   93.10        2963.00           1396        7840.00     34189.36
   93.14        2963.25           1399        9394.00     40978.86
   93.17        2963.50           1402       11001.00     48002.82
   93.20        2963.75           1406       13149.00     57396.05
   93.23        2964.00           1409       14856.00     64864.55
   93.26        2964.25           1412       16543.00     72248.85
   93.29        2964.50           1416       18833.00     82277.81
   93.32        2964.75           1419       20481.00     89498.91
   93.35        2965.00           1422       22204.00     97052.00
   93.38        2965.25           1426       24436.00    106841.50
   93.42        2965.50           1429       26077.00    114042.50
   93.45        2965.75           1432       27754.00    121404.80
   93.48        2966.00           1436       29748.00    130162.90
   93.51        2966.25           1439       31302.00    136991.70
   93.54        2966.50           1442       32930.00    144148.60
   93.57        2966.75           1446       34956.00    153059.50
   93.60        2967.00           1449       35411.00    155061.40
   93.63        2967.25           1452       35660.00    156157.00
   93.66        2967.50           1456       35656.00    156139.40
   93.69        2967.75           1459       35721.00    156425.50
   93.72        2968.00           1462       35655.00    156135.10
   93.75        2968.25           1466       34690.00    151889.30
   93.79        2968.50           1469       33510.00    146699.10
   93.82        2968.75           1472       31877.00    139519.10
   93.85        2969.00           1476       29787.00    130334.30
   93.88        2969.25           1479       28439.00    124412.90
   93.91        2969.50           1482       26752.00    117005.50
   93.94        2969.75           1486       24420.00    106771.30
   93.97        2970.00           1489       22939.00    100275.00
   94.00        2970.25           1492       21283.00     93014.19
   94.03        2970.50           1496       19047.00     83215.34
   94.07        2970.75           1499       17475.00     76329.78
   94.10        2971.00           1502       15804.00     69013.71
   94.13        2971.25           1506       13610.00     59412.69
   94.16        2971.50           1509       12097.00     52794.98
   94.19        2971.75           1513        9941.00     43369.38
   94.22        2972.00           1516        8264.00     36041.57
   94.25        2972.25           1519        6639.00     28944.04
   94.28        2972.50           1523        4520.00     19693.41
   94.31        2972.75           1526        3012.00     13113.27
   94.34        2973.00           1529        1501.00      6522.64
   94.37        2973.25           1533         557.00      2406.45
   94.40        2973.50           1536         383.00      1647.86
   94.44        2973.75           1539         334.00      1434.24
   94.47        2974.00           1543         287.00      1229.34
   94.50        2974.25           1546         219.00       932.89
   94.53        2974.50           1549         188.00       797.75
   94.56        2974.75           1553         138.00       579.78
   94.59        2975.00           1556         119.00       496.96
   94.62        2975.25           1559          97.00       401.05
   94.65        2975.50           1563          88.00       361.82
   94.68        2975.75           1566          87.00       357.46
   94.71        2976.00           1569          90.00       370.54
   94.74        2976.25           1573          76.00       309.51
   94.77        2976.50           1576          83.00       340.02
   94.80        2976.75           1579          89.00       366.18
   94.83        2977.00           1583          89.00       366.18
   94.87        2977.25           1586          83.00       340.02
   94.90        2977.50           1590          86.00       353.10
   94.93        2977.75           1593          84.00       344.38
   94.96        2978.00           1596          91.00       374.90
   94.99        2978.25           1600          97.00       401.05
   95.02        2978.50           1603          86.00       353.10
   95.05        2978.75           1606          87.00       357.46
   95.08        2979.00           1610          90.00       370.54
   95.11        2979.25           1613          89.00       366.18
   95.14        2979.50           1616          83.00       340.02
   95.17        2979.75           1620          91.00       374.90
   95.21        2980.00           1623          89.00       366.18
   95.24        2980.25           1626          83.00       340.02
   95.27        2980.50           1630          91.00       374.90
   95.30        2980.75           1633          83.00       340.02
   95.33        2981.00           1637          84.00       344.38
   95.36        2981.25           1640          80.00       326.94
   95.39        2981.50           1643          80.00       326.94
   95.42        2981.75           1647          74.00       300.79
   95.45        2982.00           1650          81.00       331.30
   95.48        2982.25           1653          86.00       353.10
   95.51        2982.50           1657          86.00       353.10
   95.54        2982.75           1660          79.00       322.58
   95.57        2983.00           1663          83.00       340.02
   95.60        2983.25           1667          88.00       361.82
   95.63        2983.50           1670          84.00       344.38
   95.67        2983.75           1673          85.00       348.74
   95.70        2984.00           1677          78.00       318.22
HS scan finished at 01:35:55
end
************************************************************
  HS Scan of (1) Internal mercury lamp
************************************************************
Integration time is 0.2294 seconds per sample
dh270717Manchester 53.47 2.23 2.857833pr1000
************************************************************
Dead Time -------------------------  3E-08 
Number of Cycles Used -------------  4 
Starting Wavelength (Angstroms) ---  2950 
Final Wavelength (Angstoms) -------  2984 
Wavelength Increment (Angstroms) --  .25 
Filter Wheel #1 Position ---------- (1) Ground quartz diffuser (ND=2.32)
Filter Wheel #2 Position ---------- (1) Neutral Density 0.494



************************************************************
HS scan start time = 21:12:02
Dark Count =  8.5 


Time (GMT)  Wavelength (Ang)  Step Number  Raw Counts  Counts/Second

 1272.40        2950.00           1222          99.00       394.51
 1272.47        2950.25           1226         101.00       403.23
 1272.50        2950.50           1229          91.00       359.64
 1272.53        2950.75           1232         106.00       425.03
 1272.56        2951.00           1236         104.00       416.31
 1272.59        2951.25           1239          94.00       372.72
 1272.63        2951.50           1242          96.00       381.43
 1272.66        2951.75           1246          97.00       385.79
 1272.69        2952.00           1249          96.00       381.43
 1272.72        2952.25           1252          97.00       385.79
 1272.75        2952.50           1256         102.00       407.59
 1272.78        2952.75           1259          91.00       359.64
 1272.81        2953.00           1262         102.00       407.59
 1272.84        2953.25           1266          92.00       364.00
 1272.87        2953.50           1269          95.00       377.07
 1272.90        2953.75           1272          94.00       372.72
 1272.93        2954.00           1276          98.00       390.15
 1272.97        2954.25           1279          98.00       390.15
 1273.00        2954.50           1282          97.00       385.79
 1273.03        2954.75           1286          87.00       342.20
 1273.06        2955.00           1289          97.00       385.79
 1273.09        2955.25           1292          99.00       394.51
 1273.12        2955.50           1296         105.00       420.67
 1273.15        2955.75           1299          95.00       377.07
 1273.18        2956.00           1302          87.00       342.20
 1273.21        2956.25           1306         100.00       398.87
 1273.24        2956.50           1309          98.00       390.15
 1273.27        2956.75           1312          98.00       390.15
 1273.30        2957.00           1316          93.00       368.36
 1273.33        2957.25           1319          88.00       346.56
 1273.36        2957.50           1322         101.00       403.23
 1273.40        2957.75           1326          97.00       385.79
 1273.43        2958.00           1329         100.00       398.87
 1273.46        2958.25           1332          94.00       372.72
 1273.49        2958.50           1336          96.00       381.43
 1273.52        2958.75           1339         109.00       438.11
 1273.55        2959.00           1342          98.00       390.15
 1273.58        2959.25           1346          98.00       390.15
 1273.61        2959.50           1349         104.00       416.31
 1273.64        2959.75           1352         120.00       486.06
 1273.67        2960.00           1356         157.00       647.35
 1273.70        2960.25           1359         188.00       782.49
 1273.73        2960.50           1362         214.00       895.84
 1273.77        2960.75           1366         287.00      1214.08
 1273.80        2961.00           1369         349.00      1484.37
 1273.83        2961.25           1372         380.00      1619.52
 1273.86        2961.50           1376         469.00      2007.53
 1273.89        2961.75           1379         687.00      2957.98
 1273.92        2962.00           1382        1448.00      6276.25
 1273.95        2962.25           1386        3431.00     14926.04
 1273.98        2962.50           1389        5069.00     22074.34
 1274.01        2962.75           1392        6606.00     28784.66
 1274.04        2963.00           1396        8824.00     38472.89
 1274.08        2963.25           1399       10478.00     45701.24
 1274.11        2963.50           1402       12283.00     53593.08
 1274.14        2963.75           1406       14437.00     63015.71
 1274.17        2964.00           1409       16325.00     71279.11
 1274.20        2964.25           1412       18183.00     79415.22
 1274.23        2964.50           1416       20287.00     88633.36
 1274.26        2964.75           1419       21995.00     96120.28
 1274.29        2965.00           1422       23598.00    103150.00
 1274.32        2965.25           1426       25853.00    113044.00
 1274.35        2965.50           1429       27597.00    120700.00
 1274.39        2965.75           1432       29365.00    128465.00
 1274.42        2966.00           1436       31744.00    138919.10
 1274.45        2966.25           1439       33423.00    146301.10
 1274.48        2966.50           1442       34658.00    151733.20
 1274.51        2966.75           1446       36490.00    159794.30
 1274.54        2967.00           1449       36971.00    161911.40
 1274.57        2967.25           1452       37057.00    162290.00
 1274.60        2967.50           1456       37012.00    162091.90
 1274.63        2967.75           1459       37000.00    162039.10
 1274.66        2968.00           1462       36773.00    161039.90
 1274.70        2968.25           1466       35843.00    156946.90
 1274.73        2968.50           1469       34296.00    150140.70
 1274.76        2968.75           1472       33011.00    144489.40
 1274.79        2969.00           1476       30681.00    134247.10
 1274.82        2969.25           1479       28618.00    125183.70
 1274.85        2969.50           1482       27122.00    118614.40
 1274.88        2969.75           1486       24571.00    107418.40
 1274.91        2970.00           1489       23063.00    100803.50
 1274.94        2970.25           1492       21435.00     93665.19
 1274.97        2970.50           1496       19274.00     84194.52
 1275.01        2970.75           1499       17606.00     76888.13
 1275.04        2971.00           1502       15951.00     69641.86
 1275.07        2971.25           1506       13616.00     59423.63
 1275.10        2971.50           1509       11846.00     51682.08
 1275.13        2971.75           1513        9628.00     41986.16
 1275.16        2972.00           1516        7882.00     34357.54
 1275.19        2972.25           1519        6238.00     27177.77
 1275.22        2972.50           1523        3913.00     17029.19
 1275.25        2972.75           1526        2409.00     10467.54
 1275.28        2973.00           1529        1052.00      4549.44
 1275.31        2973.25           1533         484.00      2072.93
 1275.34        2973.50           1536         351.00      1493.09
 1275.38        2973.75           1539         322.00      1366.66
 1275.41        2974.00           1543         258.00      1087.66
 1275.44        2974.25           1546         182.00       756.34
 1275.47        2974.50           1549         147.00       603.76
 1275.50        2974.75           1553         113.00       455.54
 1275.53        2975.00           1556         107.00       429.39
 1275.56        2975.25           1559         118.00       477.34
 1275.59        2975.50           1563          93.00       368.36
 1275.62        2975.75           1566          90.00       355.28
 1275.65        2976.00           1569          84.00       329.12
 1275.69        2976.25           1573          91.00       359.64
 1275.72        2976.50           1576          77.00       298.61
 1275.75        2976.75           1579          87.00       342.20
 1275.78        2977.00           1583          88.00       346.56
 1275.81        2977.25           1586          85.00       333.48
 1275.84        2977.50           1590          86.00       337.84
 1275.87        2977.75           1593          91.00       359.64
 1275.90        2978.00           1596          82.00       320.40
 1275.93        2978.25           1600          83.00       324.76
 1275.96        2978.50           1603          91.00       359.64
 1275.99        2978.75           1606          83.00       324.76
 1276.02        2979.00           1610          91.00       359.64
 1276.06        2979.25           1613          81.00       316.04
 1276.09        2979.50           1616          79.00       307.33
 1276.12        2979.75           1620          87.00       342.20
 1276.15        2980.00           1623          85.00       333.48
 1276.18        2980.25           1626          90.00       355.28
 1276.21        2980.50           1630          90.00       355.28
 1276.24        2980.75           1633          92.00       364.00
 1276.27        2981.00           1637          89.00       350.92
 1276.30        2981.25           1640          91.00       359.64
 1276.33        2981.50           1643          76.00       294.25
 1276.36        2981.75           1647          78.00       302.97
 1276.39        2982.00           1650          87.00       342.20
 1276.43        2982.25           1653          73.00       281.17
 1276.46        2982.50           1657          83.00       324.76
 1276.49        2982.75           1660          83.00       324.76
 1276.52        2983.00           1663          81.00       316.04
 1276.55        2983.25           1667          90.00       355.28
 1276.58        2983.50           1670          83.00       324.76
 1276.61        2983.75           1673          87.00       342.20
 1276.64        2984.00           1677          82.00       320.40
HS scan finished at 21:16:52
end
