************************************************************
  HS Scan of (1) Internal mercury lamp
************************************************************
Integration time is 0.2294 seconds per sample
dh280718Manchester 53.47 2.23 3.072425pr1000
************************************************************
Dead Time -------------------------  3E-08 
Number of Cycles Used -------------  4 
Starting Wavelength (Angstroms) ---  2950 
Final Wavelength (Angstoms) -------  2984 
Wavelength Increment (Angstroms) --  .25 
Filter Wheel #1 Position ---------- (1) Ground quartz diffuser (ND=2.32)
Filter Wheel #2 Position ---------- (1) Neutral Density 0.494



************************************************************
HS scan start time = 01:29:53
Dark Count =  6.2 


Time (GMT)  Wavelength (Ang)  Step Number  Raw Counts  Counts/Second

   90.25        2950.00           1222          59.00       230.17
   90.31        2950.25           1226          55.00       212.73
   90.35        2950.50           1229          52.00       199.65
   90.38        2950.75           1232          50.00       190.93
   90.41        2951.00           1236          56.00       217.09
   90.44        2951.25           1239          57.00       221.45
   90.47        2951.50           1242          47.00       177.86
   90.50        2951.75           1246          61.00       238.89
   90.53        2952.00           1249          51.00       195.29
   90.56        2952.25           1252          52.00       199.65
   90.59        2952.50           1256          52.00       199.65
   90.63        2952.75           1259          55.00       212.73
   90.66        2953.00           1262          57.00       221.45
   90.69        2953.25           1266          52.00       199.65
   90.72        2953.50           1269          50.00       190.93
   90.75        2953.75           1272          62.00       243.25
   90.78        2954.00           1276          53.00       204.01
   90.81        2954.25           1279          50.00       190.93
   90.84        2954.50           1282          55.00       212.73
   90.87        2954.75           1286          52.00       199.65
   90.91        2955.00           1289          52.00       199.65
   90.94        2955.25           1292          53.00       204.01
   90.97        2955.50           1296          49.00       186.57
   91.00        2955.75           1299          61.00       238.89
   91.03        2956.00           1302          55.00       212.73
   91.06        2956.25           1306          50.00       190.93
   91.09        2956.50           1309          48.00       182.22
   91.12        2956.75           1312          45.00       169.14
   91.15        2957.00           1316          51.00       195.29
   91.18        2957.25           1319          50.00       190.93
   91.21        2957.50           1322          49.00       186.57
   91.24        2957.75           1326          56.00       217.09
   91.27        2958.00           1329          51.00       195.29
   91.30        2958.25           1332          57.00       221.45
   91.34        2958.50           1336          53.00       204.01
   91.37        2958.75           1339          53.00       204.01
   91.40        2959.00           1342          53.00       204.01
   91.43        2959.25           1346          54.00       208.37
   91.46        2959.50           1349          60.00       234.53
   91.49        2959.75           1352          77.00       308.63
   91.52        2960.00           1356         105.00       430.69
   91.55        2960.25           1359         141.00       587.63
   91.58        2960.50           1362         174.00       731.49
   91.61        2960.75           1366         219.00       927.66
   91.64        2961.00           1369         259.00      1102.04
   91.67        2961.25           1372         304.00      1298.22
   91.70        2961.50           1376         372.00      1594.67
   91.74        2961.75           1379         493.00      2122.19
   91.77        2962.00           1382         984.00      4262.97
   91.80        2962.25           1386        2600.00     11310.73
   91.83        2962.50           1389        4119.00     17938.16
   91.86        2962.75           1392        5588.00     24349.95
   91.89        2963.00           1396        7678.00     33476.50
   91.92        2963.25           1399        9049.00     39466.06
   91.95        2963.50           1402       10584.00     46174.64
   91.99        2963.75           1406       12746.00     55628.07
   92.02        2964.00           1409       14305.00     62448.18
   92.05        2964.25           1412       15865.00     69275.47
   92.08        2964.50           1416       17958.00     78439.82
   92.11        2964.75           1419       19344.00     84511.30
   92.14        2965.00           1422       20945.00     91527.35
   92.17        2965.25           1426       23005.00    100559.20
   92.20        2965.50           1429       24572.00    107432.90
   92.23        2965.75           1432       25931.00    113396.50
   92.27        2966.00           1436       28008.00    122514.90
   92.30        2966.25           1439       29426.00    128743.00
   92.33        2966.50           1442       30847.00    134986.70
   92.36        2966.75           1446       32557.00    142503.30
   92.39        2967.00           1449       32838.00    143738.80
   92.42        2967.25           1452       33202.00    145339.40
   92.45        2967.50           1456       33019.00    144534.70
   92.48        2967.75           1459       32947.00    144218.10
   92.51        2968.00           1462       32902.00    144020.20
   92.55        2968.25           1466       32029.00    140182.00
   92.58        2968.50           1469       30768.00    134639.50
   92.61        2968.75           1472       29432.00    128769.40
   92.64        2969.00           1476       27283.00    119331.40
   92.67        2969.25           1479       25706.00    112409.00
   92.70        2969.50           1482       24291.00    106200.10
   92.73        2969.75           1486       22468.00     98204.33
   92.76        2970.00           1489       20977.00     91667.62
   92.79        2970.25           1492       19654.00     85869.58
   92.83        2970.50           1496       17555.00     76674.86
   92.86        2970.75           1499       16052.00     70094.06
   92.89        2971.00           1502       14632.00     63879.06
   92.92        2971.25           1506       12352.00     53904.89
   92.95        2971.50           1509       10784.00     47048.93
   92.98        2971.75           1513        8733.00     38085.34
   93.01        2972.00           1516        7208.00     31423.68
   93.04        2972.25           1519        5784.00     25205.63
   93.07        2972.50           1523        3825.00     16655.23
   93.10        2972.75           1526        2429.00     10564.81
   93.13        2973.00           1529        1119.00      4851.62
   93.17        2973.25           1533         443.00      1904.21
   93.20        2973.50           1536         329.00      1407.21
   93.23        2973.75           1539         281.00      1197.95
   93.26        2974.00           1543         218.00       923.30
   93.29        2974.25           1546         163.00       683.54
   93.32        2974.50           1549         131.00       544.04
   93.35        2974.75           1553          84.00       339.15
   93.38        2975.00           1556          67.00       265.04
   93.41        2975.25           1559          57.00       221.45
   93.44        2975.50           1563          55.00       212.73
   93.48        2975.75           1566          56.00       217.09
   93.51        2976.00           1569          48.00       182.22
   93.54        2976.25           1573          53.00       204.01
   93.57        2976.50           1576          56.00       217.09
   93.60        2976.75           1579          56.00       217.09
   93.63        2977.00           1583          52.00       199.65
   93.66        2977.25           1586          48.00       182.22
   93.69        2977.50           1590          51.00       195.29
   93.72        2977.75           1593          53.00       204.01
   93.75        2978.00           1596          51.00       195.29
   93.78        2978.25           1600          45.00       169.14
   93.81        2978.50           1603          44.00       164.78
   93.84        2978.75           1606          47.00       177.86
   93.87        2979.00           1610          48.00       182.22
   93.90        2979.25           1613          53.00       204.01
   93.94        2979.50           1616          51.00       195.29
   93.97        2979.75           1620          52.00       199.65
   94.00        2980.00           1623          49.00       186.57
   94.03        2980.25           1626          57.00       221.45
   94.06        2980.50           1630          52.00       199.65
   94.09        2980.75           1633          44.00       164.78
   94.12        2981.00           1637          49.00       186.57
   94.15        2981.25           1640          51.00       195.29
   94.19        2981.50           1643          53.00       204.01
   94.22        2981.75           1647          47.00       177.86
   94.25        2982.00           1650          44.00       164.78
   94.28        2982.25           1653          53.00       204.01
   94.31        2982.50           1657          52.00       199.65
   94.34        2982.75           1660          49.00       186.57
   94.37        2983.00           1663          48.00       182.22
   94.40        2983.25           1667          45.00       169.14
   94.43        2983.50           1670          50.00       190.93
   94.46        2983.75           1673          42.00       156.06
   94.49        2984.00           1677          52.00       199.65
HS scan finished at 01:34:43
end
************************************************************
  HS Scan of (1) Internal mercury lamp
************************************************************
Integration time is 0.2294 seconds per sample
dh280718Manchester 53.47 2.23 2.857833pr1000
************************************************************
Dead Time -------------------------  3E-08 
Number of Cycles Used -------------  4 
Starting Wavelength (Angstroms) ---  2950 
Final Wavelength (Angstoms) -------  2984 
Wavelength Increment (Angstroms) --  .25 
Filter Wheel #1 Position ---------- (1) Ground quartz diffuser (ND=2.32)
Filter Wheel #2 Position ---------- (1) Neutral Density 0.494



************************************************************
HS scan start time = 21:12:10
Dark Count =  6.1 


Time (GMT)  Wavelength (Ang)  Step Number  Raw Counts  Counts/Second

 1272.54        2950.00           1222          53.00       204.45
 1272.61        2950.25           1226          52.00       200.09
 1272.64        2950.50           1229          58.00       226.24
 1272.67        2950.75           1232          52.00       200.09
 1272.70        2951.00           1236          47.00       178.29
 1272.73        2951.25           1239          64.00       252.40
 1272.76        2951.50           1242          53.00       204.45
 1272.79        2951.75           1246          55.00       213.17
 1272.82        2952.00           1249          51.00       195.73
 1272.85        2952.25           1252          54.00       208.81
 1272.89        2952.50           1256          57.00       221.88
 1272.92        2952.75           1259          54.00       208.81
 1272.95        2953.00           1262          56.00       217.53
 1272.98        2953.25           1266          62.00       243.68
 1273.01        2953.50           1269          50.00       191.37
 1273.04        2953.75           1272          56.00       217.53
 1273.07        2954.00           1276          55.00       213.17
 1273.10        2954.25           1279          55.00       213.17
 1273.13        2954.50           1282          59.00       230.60
 1273.16        2954.75           1286          51.00       195.73
 1273.20        2955.00           1289          53.00       204.45
 1273.23        2955.25           1292          57.00       221.88
 1273.26        2955.50           1296          53.00       204.45
 1273.29        2955.75           1299          51.00       195.73
 1273.32        2956.00           1302          61.00       239.32
 1273.35        2956.25           1306          53.00       204.45
 1273.38        2956.50           1309          57.00       221.88
 1273.41        2956.75           1312          57.00       221.88
 1273.44        2957.00           1316          54.00       208.81
 1273.47        2957.25           1319          55.00       213.17
 1273.50        2957.50           1322          59.00       230.60
 1273.54        2957.75           1326          51.00       195.73
 1273.57        2958.00           1329          54.00       208.81
 1273.60        2958.25           1332          50.00       191.37
 1273.63        2958.50           1336          56.00       217.53
 1273.66        2958.75           1339          46.00       173.93
 1273.69        2959.00           1342          58.00       226.24
 1273.72        2959.25           1346          67.00       265.48
 1273.75        2959.50           1349          58.00       226.24
 1273.78        2959.75           1352          82.00       330.87
 1273.82        2960.00           1356          99.00       404.97
 1273.85        2960.25           1359         132.00       548.83
 1273.88        2960.50           1362         165.00       692.69
 1273.91        2960.75           1366         210.00       888.86
 1273.94        2961.00           1369         247.00      1050.16
 1273.97        2961.25           1372         266.00      1132.99
 1274.00        2961.50           1376         355.00      1520.99
 1274.03        2961.75           1379         433.00      1861.05
 1274.06        2962.00           1382         859.00      3718.38
 1274.10        2962.25           1386        2260.00      9828.09
 1274.13        2962.50           1389        3632.00     15813.52
 1274.16        2962.75           1392        5012.00     21836.01
 1274.19        2963.00           1396        6831.00     29777.68
 1274.22        2963.25           1399        8108.00     35355.27
 1274.25        2963.50           1402        9467.00     41293.06
 1274.28        2963.75           1406       11252.00     49095.36
 1274.31        2964.00           1409       12628.00     55112.41
 1274.34        2964.25           1412       14199.00     61984.83
 1274.38        2964.50           1416       15848.00     69201.50
 1274.41        2964.75           1419       17241.00     75300.25
 1274.44        2965.00           1422       18635.00     81405.63
 1274.47        2965.25           1426       20381.00     89055.84
 1274.50        2965.50           1429       22002.00     96161.50
 1274.53        2965.75           1432       23321.00    101945.60
 1274.56        2966.00           1436       25153.00    109982.60
 1274.59        2966.25           1439       26392.00    115420.30
 1274.63        2966.50           1442       27747.00    121369.20
 1274.66        2966.75           1446       29176.00    127645.30
 1274.69        2967.00           1449       29468.00    128928.00
 1274.72        2967.25           1452       29384.00    128559.00
 1274.75        2967.50           1456       29449.00    128844.50
 1274.78        2967.75           1459       29307.00    128220.70
 1274.81        2968.00           1462       29471.00    128941.20
 1274.84        2968.25           1466       28324.00    123903.00
 1274.87        2968.50           1469       27247.00    119173.80
 1274.91        2968.75           1472       25909.00    113300.30
 1274.94        2969.00           1476       24240.00    105976.80
 1274.97        2969.25           1479       22925.00    100208.80
 1275.00        2969.50           1482       21613.00     94456.03
 1275.03        2969.75           1486       19645.00     85830.59
 1275.06        2970.00           1489       18284.00     79868.13
 1275.09        2970.25           1492       16957.00     74056.68
 1275.12        2970.50           1496       15271.00     66675.96
 1275.15        2970.75           1499       13930.00     60807.87
 1275.19        2971.00           1502       12647.00     55195.51
 1275.22        2971.25           1506       10788.00     47066.85
 1275.25        2971.50           1509        9375.00     40891.02
 1275.28        2971.75           1513        7611.00     33184.29
 1275.31        2972.00           1516        6311.00     27507.00
 1275.34        2972.25           1519        5024.00     21888.39
 1275.37        2972.50           1523        3306.00     14391.13
 1275.40        2972.75           1526        1983.00      8619.93
 1275.44        2973.00           1529         922.00      3993.07
 1275.47        2973.25           1533         370.00      1586.39
 1275.50        2973.50           1536         281.00      1198.39
 1275.53        2973.75           1539         244.00      1037.09
 1275.56        2974.00           1543         201.00       849.63
 1275.59        2974.25           1546         131.00       544.47
 1275.62        2974.50           1549         116.00       479.08
 1275.65        2974.75           1553          66.00       261.12
 1275.68        2975.00           1556          64.00       252.40
 1275.71        2975.25           1559          57.00       221.88
 1275.74        2975.50           1563          53.00       204.45
 1275.78        2975.75           1566          46.00       173.93
 1275.81        2976.00           1569          60.00       234.96
 1275.84        2976.25           1573          54.00       208.81
 1275.87        2976.50           1576          47.00       178.29
 1275.90        2976.75           1579          47.00       178.29
 1275.93        2977.00           1583          46.00       173.93
 1275.96        2977.25           1586          52.00       200.09
 1275.99        2977.50           1590          48.00       182.65
 1276.02        2977.75           1593          52.00       200.09
 1276.05        2978.00           1596          45.00       169.57
 1276.09        2978.25           1600          63.00       248.04
 1276.12        2978.50           1603          52.00       200.09
 1276.15        2978.75           1606          46.00       173.93
 1276.18        2979.00           1610          48.00       182.65
 1276.21        2979.25           1613          46.00       173.93
 1276.24        2979.50           1616          53.00       204.45
 1276.27        2979.75           1620          56.00       217.53
 1276.30        2980.00           1623          52.00       200.09
 1276.33        2980.25           1626          53.00       204.45
 1276.36        2980.50           1630          49.00       187.01
 1276.39        2980.75           1633          47.00       178.29
 1276.42        2981.00           1637          55.00       213.17
 1276.46        2981.25           1640          54.00       208.81
 1276.49        2981.50           1643          42.00       156.50
 1276.52        2981.75           1647          50.00       191.37
 1276.55        2982.00           1650          42.00       156.50
 1276.58        2982.25           1653          50.00       191.37
 1276.61        2982.50           1657          50.00       191.37
 1276.64        2982.75           1660          50.00       191.37
 1276.67        2983.00           1663          52.00       200.09
 1276.70        2983.25           1667          47.00       178.29
 1276.73        2983.50           1670          48.00       182.65
 1276.76        2983.75           1673          49.00       187.01
 1276.80        2984.00           1677          56.00       217.53
HS scan finished at 21:17:01
end
