************************************************************
  HS Scan of (1) Internal mercury lamp
************************************************************
Integration time is 0.2294 seconds per sample
dh250718Manchester 53.47 2.23 2.857833pr1000
************************************************************
Dead Time -------------------------  3E-08 
Number of Cycles Used -------------  4 
Starting Wavelength (Angstroms) ---  2950 
Final Wavelength (Angstoms) -------  2984 
Wavelength Increment (Angstroms) --  .25 
Filter Wheel #1 Position ---------- (1) Ground quartz diffuser (ND=2.32)
Filter Wheel #2 Position ---------- (1) Neutral Density 0.494



************************************************************
HS scan start time = 01:43:45
Dark Count =  6.7 


Time (GMT)  Wavelength (Ang)  Step Number  Raw Counts  Counts/Second

  104.12        2950.00           1222          54.00       206.19
  104.19        2950.25           1226          59.00       227.99
  104.22        2950.50           1229          66.00       258.50
  104.25        2950.75           1232          50.00       188.75
  104.28        2951.00           1236          53.00       201.83
  104.31        2951.25           1239          65.00       254.14
  104.35        2951.50           1242          60.00       232.35
  104.38        2951.75           1246          50.00       188.75
  104.41        2952.00           1249          53.00       201.83
  104.44        2952.25           1252          57.00       219.27
  104.47        2952.50           1256          60.00       232.35
  104.50        2952.75           1259          57.00       219.27
  104.53        2953.00           1262          55.00       210.55
  104.56        2953.25           1266          52.00       197.47
  104.59        2953.50           1269          61.00       236.71
  104.63        2953.75           1272          58.00       223.63
  104.66        2954.00           1276          49.00       184.40
  104.69        2954.25           1279          49.00       184.40
  104.72        2954.50           1282          52.00       197.47
  104.75        2954.75           1286          53.00       201.83
  104.78        2955.00           1289          55.00       210.55
  104.81        2955.25           1292          58.00       223.63
  104.84        2955.50           1296          52.00       197.47
  104.87        2955.75           1299          54.00       206.19
  104.90        2956.00           1302          51.00       193.11
  104.93        2956.25           1306          55.00       210.55
  104.96        2956.50           1309          55.00       210.55
  105.00        2956.75           1312          46.00       171.32
  105.03        2957.00           1316          48.00       180.04
  105.06        2957.25           1319          57.00       219.27
  105.09        2957.50           1322          52.00       197.47
  105.12        2957.75           1326          55.00       210.55
  105.15        2958.00           1329          56.00       214.91
  105.18        2958.25           1332          54.00       206.19
  105.21        2958.50           1336          57.00       219.27
  105.24        2958.75           1339          54.00       206.19
  105.27        2959.00           1342          58.00       223.63
  105.30        2959.25           1346          55.00       210.55
  105.33        2959.50           1349          57.00       219.27
  105.37        2959.75           1352          63.00       245.42
  105.40        2960.00           1356          93.00       376.20
  105.43        2960.25           1359         113.00       463.39
  105.46        2960.50           1362         145.00       602.89
  105.49        2960.75           1366         195.00       820.86
  105.52        2961.00           1369         209.00       881.89
  105.55        2961.25           1372         254.00      1078.06
  105.58        2961.50           1376         302.00      1287.32
  105.61        2961.75           1379         438.00      1880.23
  105.65        2962.00           1382         915.00      3959.93
  105.68        2962.25           1386        2328.00     10122.08
  105.71        2962.50           1389        3662.00     15941.80
  105.74        2962.75           1392        4932.00     21484.20
  105.77        2963.00           1396        6630.00     28897.32
  105.80        2963.25           1399        7970.00     34749.81
  105.83        2963.50           1402        9461.00     41264.22
  105.86        2963.75           1406       11392.00     49704.84
  105.89        2964.00           1409       12790.00     55818.33
  105.92        2964.25           1412       14220.00     62074.08
  105.96        2964.50           1416       16130.00     70433.33
  105.99        2964.75           1419       17419.00     76077.10
  106.02        2965.00           1422       18830.00     82257.23
  106.05        2965.25           1426       20776.00     90784.41
  106.08        2965.50           1429       22200.00     97027.01
  106.11        2965.75           1432       23563.00    103004.40
  106.14        2966.00           1436       25461.00    111331.60
  106.17        2966.25           1439       26837.00    117371.10
  106.20        2966.50           1442       27949.00    122253.60
  106.24        2966.75           1446       29514.00    129127.40
  106.27        2967.00           1449       29686.00    129883.10
  106.30        2967.25           1452       29918.00    130902.30
  106.33        2967.50           1456       29941.00    131003.40
  106.36        2967.75           1459       29866.00    130673.90
  106.39        2968.00           1462       29672.00    129821.50
  106.42        2968.25           1466       28894.00    126403.90
  106.45        2968.50           1469       27690.00    121116.30
  106.48        2968.75           1472       26348.00    115224.60
  106.52        2969.00           1476       24707.00    108023.00
  106.55        2969.25           1479       23268.00    101710.50
  106.58        2969.50           1482       21914.00     95773.05
  106.61        2969.75           1486       20113.00     87878.72
  106.64        2970.00           1489       18677.00     81586.99
  106.67        2970.25           1492       17463.00     76269.78
  106.70        2970.50           1496       15519.00     67758.78
  106.73        2970.75           1499       14056.00     61356.52
  106.76        2971.00           1502       12781.00     55778.97
  106.79        2971.25           1506       11061.00     48257.70
  106.82        2971.50           1509        9669.00     42173.21
  106.86        2971.75           1513        7886.00     34382.88
  106.89        2972.00           1516        6707.00     29233.56
  106.92        2972.25           1519        5325.00     23199.66
  106.95        2972.50           1523        3409.00     14837.90
  106.98        2972.75           1526        2080.00      9040.38
  107.01        2973.00           1529         919.00      3977.37
  107.04        2973.25           1533         423.00      1814.83
  107.07        2973.50           1536         328.00      1400.67
  107.10        2973.75           1539         277.00      1178.33
  107.14        2974.00           1543         224.00       947.28
  107.17        2974.25           1546         178.00       746.75
  107.20        2974.50           1549         149.00       620.33
  107.23        2974.75           1553         109.00       445.95
  107.26        2975.00           1556          73.00       289.02
  107.29        2975.25           1559          65.00       254.14
  107.32        2975.50           1563          54.00       206.19
  107.35        2975.75           1566          58.00       223.63
  107.38        2976.00           1569          49.00       184.40
  107.41        2976.25           1573          54.00       206.19
  107.44        2976.50           1576          54.00       206.19
  107.48        2976.75           1579          51.00       193.11
  107.51        2977.00           1583          49.00       184.40
  107.54        2977.25           1586          53.00       201.83
  107.57        2977.50           1590          46.00       171.32
  107.60        2977.75           1593          51.00       193.11
  107.63        2978.00           1596          55.00       210.55
  107.66        2978.25           1600          46.00       171.32
  107.69        2978.50           1603          53.00       201.83
  107.72        2978.75           1606          54.00       206.19
  107.76        2979.00           1610          47.00       175.68
  107.79        2979.25           1613          46.00       171.32
  107.82        2979.50           1616          52.00       197.47
  107.85        2979.75           1620          54.00       206.19
  107.88        2980.00           1623          51.00       193.11
  107.91        2980.25           1626          50.00       188.75
  107.94        2980.50           1630          49.00       184.40
  107.97        2980.75           1633          52.00       197.47
  108.00        2981.00           1637          49.00       184.40
  108.03        2981.25           1640          56.00       214.91
  108.06        2981.50           1643          52.00       197.47
  108.10        2981.75           1647          47.00       175.68
  108.13        2982.00           1650          50.00       188.75
  108.16        2982.25           1653          46.00       171.32
  108.19        2982.50           1657          49.00       184.40
  108.22        2982.75           1660          50.00       188.75
  108.25        2983.00           1663          57.00       219.27
  108.28        2983.25           1667          58.00       223.63
  108.31        2983.50           1670          47.00       175.68
  108.34        2983.75           1673          49.00       184.40
  108.37        2984.00           1677          48.00       180.04
HS scan finished at 01:48:35
end
************************************************************
  HS Scan of (1) Internal mercury lamp
************************************************************
Integration time is 0.2294 seconds per sample
dh250718Manchester 53.47 2.23 3.179721pr1000
************************************************************
Dead Time -------------------------  3E-08 
Number of Cycles Used -------------  4 
Starting Wavelength (Angstroms) ---  2950 
Final Wavelength (Angstoms) -------  2984 
Wavelength Increment (Angstroms) --  .25 
Filter Wheel #1 Position ---------- (1) Ground quartz diffuser (ND=2.32)
Filter Wheel #2 Position ---------- (1) Neutral Density 0.494



************************************************************
HS scan start time = 21:12:08
Dark Count =  4.5 


Time (GMT)  Wavelength (Ang)  Step Number  Raw Counts  Counts/Second

 1272.51        2950.00           1222          48.00       189.63
 1272.58        2950.25           1226          52.00       207.06
 1272.61        2950.50           1229          54.00       215.78
 1272.64        2950.75           1232          57.00       228.86
 1272.67        2951.00           1236          58.00       233.22
 1272.70        2951.25           1239          60.00       241.94
 1272.73        2951.50           1242          50.00       198.34
 1272.76        2951.75           1246          60.00       241.94
 1272.79        2952.00           1249          55.00       220.14
 1272.82        2952.25           1252          51.00       202.70
 1272.85        2952.50           1256          54.00       215.78
 1272.89        2952.75           1259          54.00       215.78
 1272.92        2953.00           1262          54.00       215.78
 1272.95        2953.25           1266          49.00       193.99
 1272.98        2953.50           1269          60.00       241.94
 1273.01        2953.75           1272          57.00       228.86
 1273.04        2954.00           1276          57.00       228.86
 1273.07        2954.25           1279          44.00       172.19
 1273.10        2954.50           1282          62.00       250.66
 1273.13        2954.75           1286          52.00       207.06
 1273.16        2955.00           1289          49.00       193.99
 1273.19        2955.25           1292          53.00       211.42
 1273.22        2955.50           1296          56.00       224.50
 1273.25        2955.75           1299          55.00       220.14
 1273.29        2956.00           1302          54.00       215.78
 1273.32        2956.25           1306          59.00       237.58
 1273.35        2956.50           1309          50.00       198.34
 1273.38        2956.75           1312          50.00       198.34
 1273.41        2957.00           1316          52.00       207.06
 1273.44        2957.25           1319          51.00       202.70
 1273.47        2957.50           1322          50.00       198.34
 1273.50        2957.75           1326          53.00       211.42
 1273.53        2958.00           1329          57.00       228.86
 1273.56        2958.25           1332          63.00       255.02
 1273.59        2958.50           1336          55.00       220.14
 1273.62        2958.75           1339          59.00       237.58
 1273.65        2959.00           1342          58.00       233.22
 1273.68        2959.25           1346          59.00       237.58
 1273.72        2959.50           1349          75.00       307.33
 1273.75        2959.75           1352          81.00       333.48
 1273.78        2960.00           1356         118.00       494.78
 1273.81        2960.25           1359         145.00       612.48
 1273.84        2960.50           1362         186.00       791.21
 1273.87        2960.75           1366         256.00      1096.37
 1273.90        2961.00           1369         282.00      1209.72
 1273.93        2961.25           1372         341.00      1466.93
 1273.96        2961.50           1376         410.00      1767.75
 1273.99        2961.75           1379         567.00      2452.23
 1274.03        2962.00           1382        1271.00      5521.84
 1274.06        2962.25           1386        2935.00     12779.53
 1274.09        2962.50           1389        4465.00     19455.56
 1274.12        2962.75           1392        6013.00     26212.85
 1274.15        2963.00           1396        8056.00     35135.10
 1274.18        2963.25           1399        9661.00     42147.86
 1274.21        2963.50           1402       11148.00     48647.67
 1274.24        2963.75           1406       13270.00     57927.53
 1274.27        2964.00           1409       14922.00     65155.57
 1274.30        2964.25           1412       16504.00     72080.28
 1274.34        2964.50           1416       18559.00     81079.72
 1274.37        2964.75           1419       20223.00     88370.42
 1274.40        2965.00           1422       21625.00     94515.65
 1274.43        2965.25           1426       23771.00    103926.40
 1274.46        2965.50           1429       25267.00    110489.90
 1274.49        2965.75           1432       26779.00    117126.20
 1274.52        2966.00           1436       28637.00    125284.70
 1274.55        2966.25           1439       30088.00    131658.90
 1274.58        2966.50           1442       31557.00    138114.70
 1274.62        2966.75           1446       32987.00    144401.50
 1274.65        2967.00           1449       33303.00    145791.00
 1274.68        2967.25           1452       33399.00    146213.20
 1274.71        2967.50           1456       33651.00    147321.40
 1274.74        2967.75           1459       33379.00    146125.20
 1274.77        2968.00           1462       33325.00    145887.80
 1274.80        2968.25           1466       32229.00    141068.70
 1274.83        2968.50           1469       30887.00    135170.00
 1274.87        2968.75           1472       29487.00    129018.50
 1274.90        2969.00           1476       27659.00    120989.80
 1274.93        2969.25           1479       26222.00    114681.20
 1274.96        2969.50           1482       24378.00    106589.20
 1274.99        2969.75           1486       22300.00     97475.12
 1275.02        2970.00           1489       20814.00     90960.61
 1275.05        2970.25           1492       19392.00     84729.05
 1275.08        2970.50           1496       17098.00     74681.08
 1275.11        2970.75           1499       15662.00     68394.33
 1275.14        2971.00           1502       14039.00     61291.76
 1275.18        2971.25           1506       11923.00     52036.28
 1275.21        2971.50           1509       10347.00     45146.11
 1275.24        2971.75           1513        8456.00     36882.55
 1275.27        2972.00           1516        6969.00     30387.33
 1275.30        2972.25           1519        5460.00     23798.59
 1275.33        2972.50           1523        3531.00     15379.81
 1275.36        2972.75           1526        2061.00      8967.10
 1275.39        2973.00           1529         831.00      3603.27
 1275.42        2973.25           1533         386.00      1663.12
 1275.45        2973.50           1536         307.00      1318.71
 1275.48        2973.75           1539         254.00      1087.66
 1275.52        2974.00           1543         199.00       847.89
 1275.55        2974.25           1546         138.00       581.96
 1275.58        2974.50           1549         105.00       438.11
 1275.61        2974.75           1553          67.00       272.45
 1275.64        2975.00           1556          68.00       276.81
 1275.67        2975.25           1559          65.00       263.73
 1275.70        2975.50           1563          52.00       207.06
 1275.73        2975.75           1566          64.00       259.37
 1275.76        2976.00           1569          53.00       211.42
 1275.79        2976.25           1573          48.00       189.63
 1275.83        2976.50           1576          48.00       189.63
 1275.86        2976.75           1579          46.00       180.91
 1275.89        2977.00           1583          49.00       193.99
 1275.92        2977.25           1586          50.00       198.34
 1275.95        2977.50           1590          54.00       215.78
 1275.98        2977.75           1593          54.00       215.78
 1276.01        2978.00           1596          51.00       202.70
 1276.04        2978.25           1600          59.00       237.58
 1276.07        2978.50           1603          45.00       176.55
 1276.10        2978.75           1606          52.00       207.06
 1276.13        2979.00           1610          49.00       193.99
 1276.16        2979.25           1613          47.00       185.27
 1276.20        2979.50           1616          48.00       189.63
 1276.23        2979.75           1620          49.00       193.99
 1276.26        2980.00           1623          52.00       207.06
 1276.29        2980.25           1626          50.00       198.34
 1276.32        2980.50           1630          48.00       189.63
 1276.35        2980.75           1633          45.00       176.55
 1276.38        2981.00           1637          45.00       176.55
 1276.41        2981.25           1640          48.00       189.63
 1276.44        2981.50           1643          51.00       202.70
 1276.47        2981.75           1647          51.00       202.70
 1276.51        2982.00           1650          58.00       233.22
 1276.54        2982.25           1653          55.00       220.14
 1276.57        2982.50           1657          52.00       207.06
 1276.60        2982.75           1660          53.00       211.42
 1276.63        2983.00           1663          53.00       211.42
 1276.66        2983.25           1667          40.00       154.75
 1276.69        2983.50           1670          50.00       198.34
 1276.73        2983.75           1673          46.00       180.91
 1276.76        2984.00           1677          48.00       189.63
HS scan finished at 21:16:58
end
