************************************************************
  HS Scan of (1) Internal mercury lamp
************************************************************
Integration time is 0.2294 seconds per sample
dh240718Manchester 53.47 2.23 3.072425pr1000
************************************************************
Dead Time -------------------------  3E-08 
Number of Cycles Used -------------  4 
Starting Wavelength (Angstroms) ---  2950 
Final Wavelength (Angstoms) -------  2984 
Wavelength Increment (Angstroms) --  .25 
Filter Wheel #1 Position ---------- (1) Ground quartz diffuser (ND=2.32)
Filter Wheel #2 Position ---------- (1) Neutral Density 0.494



************************************************************
HS scan start time = 01:44:05
Dark Count =  5.8 


Time (GMT)  Wavelength (Ang)  Step Number  Raw Counts  Counts/Second

  104.45        2950.00           1222          50.00       192.68
  104.51        2950.25           1226          57.00       223.19
  104.55        2950.50           1229          54.00       210.11
  104.58        2950.75           1232          62.00       244.99
  104.61        2951.00           1236          49.00       188.32
  104.64        2951.25           1239          55.00       214.47
  104.67        2951.50           1242          52.00       201.40
  104.70        2951.75           1246          56.00       218.83
  104.73        2952.00           1249          60.00       236.27
  104.76        2952.25           1252          49.00       188.32
  104.79        2952.50           1256          56.00       218.83
  104.82        2952.75           1259          49.00       188.32
  104.86        2953.00           1262          62.00       244.99
  104.89        2953.25           1266          64.00       253.71
  104.92        2953.50           1269          58.00       227.55
  104.95        2953.75           1272          49.00       188.32
  104.98        2954.00           1276          43.00       162.16
  105.01        2954.25           1279          50.00       192.68
  105.04        2954.50           1282          56.00       218.83
  105.07        2954.75           1286          52.00       201.40
  105.10        2955.00           1289          56.00       218.83
  105.13        2955.25           1292          53.00       205.76
  105.16        2955.50           1296          61.00       240.63
  105.20        2955.75           1299          51.00       197.04
  105.23        2956.00           1302          53.00       205.76
  105.26        2956.25           1306          50.00       192.68
  105.29        2956.50           1309          55.00       214.47
  105.32        2956.75           1312          60.00       236.27
  105.35        2957.00           1316          51.00       197.04
  105.38        2957.25           1319          44.00       166.52
  105.41        2957.50           1322          54.00       210.11
  105.44        2957.75           1326          61.00       240.63
  105.48        2958.00           1329          56.00       218.83
  105.51        2958.25           1332          48.00       183.96
  105.54        2958.50           1336          53.00       205.76
  105.57        2958.75           1339          54.00       210.11
  105.60        2959.00           1342          53.00       205.76
  105.63        2959.25           1346          53.00       205.76
  105.66        2959.50           1349          59.00       231.91
  105.69        2959.75           1352          80.00       323.46
  105.72        2960.00           1356         108.00       445.52
  105.75        2960.25           1359         142.00       593.73
  105.79        2960.50           1362         178.00       750.67
  105.82        2960.75           1366         223.00       946.84
  105.85        2961.00           1369         275.00      1173.54
  105.88        2961.25           1372         305.00      1304.32
  105.91        2961.50           1376         431.00      1853.63
  105.94        2961.75           1379         900.00      3898.45
  105.97        2962.00           1382        1992.00      8660.49
  106.00        2962.25           1386        3908.00     17019.15
  106.04        2962.50           1389        5474.00     23854.03
  106.07        2962.75           1392        6939.00     30250.63
  106.10        2963.00           1396        8938.00     38982.79
  106.13        2963.25           1399       10312.00     44987.44
  106.16        2963.50           1402       11819.00     51575.82
  106.19        2963.75           1406       13820.00     60327.92
  106.22        2964.00           1409       15296.00     66786.69
  106.25        2964.25           1412       16845.00     73567.60
  106.28        2964.50           1416       18950.00     82786.88
  106.31        2964.75           1419       20239.00     88434.84
  106.35        2965.00           1422       22075.00     96482.88
  106.38        2965.25           1426       24183.00    105728.00
  106.41        2965.50           1429       25543.00    111695.40
  106.44        2965.75           1432       27020.00    118178.50
  106.47        2966.00           1436       29032.00    127014.00
  106.50        2966.25           1439       30531.00    133599.80
  106.53        2966.50           1442       31686.00    138676.00
  106.56        2966.75           1446       32682.00    143054.60
  106.59        2967.00           1449       32883.00    143938.40
  106.63        2967.25           1452       32853.00    143806.50
  106.66        2967.50           1456       32800.00    143573.50
  106.69        2967.75           1459       32873.00    143894.40
  106.72        2968.00           1462       32321.00    141467.50
  106.75        2968.25           1466       30855.00    135023.60
  106.78        2968.50           1469       29360.00    128454.80
  106.81        2968.75           1472       27877.00    121941.40
  106.84        2969.00           1476       25980.00    113613.30
  106.87        2969.25           1479       24445.00    106877.50
  106.91        2969.50           1482       23128.00    101100.40
  106.94        2969.75           1486       21109.00     92247.96
  106.97        2970.00           1489       19672.00     85950.19
  107.00        2970.25           1492       18184.00     79431.43
  107.03        2970.50           1496       16123.00     70406.63
  107.06        2970.75           1499       14499.00     63298.82
  107.09        2971.00           1502       13006.00     56767.04
  107.12        2971.25           1506       10971.00     47868.17
  107.15        2971.50           1509        9361.00     40831.16
  107.19        2971.75           1513        7416.00     32333.88
  107.22        2972.00           1516        5888.00     25661.42
  107.25        2972.25           1519        4358.00     18982.91
  107.28        2972.50           1523        2428.00     10562.20
  107.31        2972.75           1526        1180.00      5119.36
  107.34        2973.00           1529         546.00      2355.01
  107.37        2973.25           1533         379.00      1626.93
  107.40        2973.50           1536         297.00      1269.45
  107.43        2973.75           1539         276.00      1177.90
  107.46        2974.00           1543         210.00       890.17
  107.49        2974.25           1546         171.00       720.16
  107.53        2974.50           1549         119.00       493.47
  107.56        2974.75           1553          85.00       345.25
  107.59        2975.00           1556          65.00       258.07
  107.62        2975.25           1559          66.00       262.43
  107.65        2975.50           1563          60.00       236.27
  107.68        2975.75           1566          54.00       210.11
  107.71        2976.00           1569          47.00       179.60
  107.74        2976.25           1573          48.00       183.96
  107.77        2976.50           1576          53.00       205.76
  107.80        2976.75           1579          53.00       205.76
  107.83        2977.00           1583          53.00       205.76
  107.86        2977.25           1586          49.00       188.32
  107.90        2977.50           1590          57.00       223.19
  107.93        2977.75           1593          47.00       179.60
  107.96        2978.00           1596          50.00       192.68
  107.99        2978.25           1600          44.00       166.52
  108.02        2978.50           1603          47.00       179.60
  108.05        2978.75           1606          46.00       175.24
  108.08        2979.00           1610          49.00       188.32
  108.11        2979.25           1613          44.00       166.52
  108.14        2979.50           1616          54.00       210.11
  108.17        2979.75           1620          49.00       188.32
  108.21        2980.00           1623          51.00       197.04
  108.24        2980.25           1626          53.00       205.76
  108.27        2980.50           1630          55.00       214.47
  108.30        2980.75           1633          49.00       188.32
  108.33        2981.00           1637          54.00       210.11
  108.36        2981.25           1640          52.00       201.40
  108.39        2981.50           1643          45.00       170.88
  108.42        2981.75           1647          48.00       183.96
  108.45        2982.00           1650          49.00       188.32
  108.48        2982.25           1653          49.00       188.32
  108.52        2982.50           1657          48.00       183.96
  108.55        2982.75           1660          42.00       157.80
  108.58        2983.00           1663          52.00       201.40
  108.61        2983.25           1667          50.00       192.68
  108.64        2983.50           1670          57.00       223.19
  108.67        2983.75           1673          49.00       188.32
  108.70        2984.00           1677          45.00       170.88
HS scan finished at 01:48:55
end
************************************************************
  HS Scan of (1) Internal mercury lamp
************************************************************
Integration time is 0.2294 seconds per sample
dh240718Manchester 53.47 2.23 2.965129pr1000
************************************************************
Dead Time -------------------------  3E-08 
Number of Cycles Used -------------  4 
Starting Wavelength (Angstroms) ---  2950 
Final Wavelength (Angstoms) -------  2984 
Wavelength Increment (Angstroms) --  .25 
Filter Wheel #1 Position ---------- (1) Ground quartz diffuser (ND=2.32)
Filter Wheel #2 Position ---------- (1) Neutral Density 0.494



************************************************************
HS scan start time = 21:12:08
Dark Count =  6.9 


Time (GMT)  Wavelength (Ang)  Step Number  Raw Counts  Counts/Second

 1272.50        2950.00           1222          54.00       205.32
 1272.56        2950.25           1226          57.00       218.40
 1272.59        2950.50           1229          62.00       240.19
 1272.62        2950.75           1232          48.00       179.16
 1272.65        2951.00           1236          54.00       205.32
 1272.69        2951.25           1239          52.00       196.60
 1272.72        2951.50           1242          47.00       174.80
 1272.75        2951.75           1246          57.00       218.40
 1272.78        2952.00           1249          51.00       192.24
 1272.81        2952.25           1252          52.00       196.60
 1272.84        2952.50           1256          58.00       222.76
 1272.87        2952.75           1259          61.00       235.83
 1272.90        2953.00           1262          66.00       257.63
 1272.93        2953.25           1266          54.00       205.32
 1272.96        2953.50           1269          61.00       235.83
 1272.99        2953.75           1272          52.00       196.60
 1273.03        2954.00           1276          52.00       196.60
 1273.06        2954.25           1279          53.00       200.96
 1273.09        2954.50           1282          53.00       200.96
 1273.12        2954.75           1286          64.00       248.91
 1273.15        2955.00           1289          57.00       218.40
 1273.18        2955.25           1292          57.00       218.40
 1273.21        2955.50           1296          51.00       192.24
 1273.24        2955.75           1299          56.00       214.04
 1273.27        2956.00           1302          61.00       235.83
 1273.30        2956.25           1306          56.00       214.04
 1273.33        2956.50           1309          58.00       222.76
 1273.37        2956.75           1312          51.00       192.24
 1273.40        2957.00           1316          58.00       222.76
 1273.43        2957.25           1319          64.00       248.91
 1273.46        2957.50           1322          57.00       218.40
 1273.49        2957.75           1326          54.00       205.32
 1273.52        2958.00           1329          54.00       205.32
 1273.55        2958.25           1332          54.00       205.32
 1273.58        2958.50           1336          57.00       218.40
 1273.61        2958.75           1339          53.00       200.96
 1273.64        2959.00           1342          60.00       231.48
 1273.68        2959.25           1346          57.00       218.40
 1273.71        2959.50           1349          71.00       279.43
 1273.74        2959.75           1352          72.00       283.79
 1273.77        2960.00           1356         100.00       405.85
 1273.80        2960.25           1359         138.00       571.50
 1273.83        2960.50           1362         170.00       711.00
 1273.86        2960.75           1366         223.00       942.05
 1273.89        2961.00           1369         256.00      1085.91
 1273.92        2961.25           1372         301.00      1282.09
 1273.96        2961.50           1376         362.00      1548.02
 1273.99        2961.75           1379         475.00      2040.67
 1274.02        2962.00           1382         944.00      4085.51
 1274.05        2962.25           1386        2556.00     11115.74
 1274.08        2962.50           1389        3993.00     17385.26
 1274.11        2962.75           1392        5347.00     23294.83
 1274.14        2963.00           1396        7153.00     31180.42
 1274.17        2963.25           1399        8582.00     37422.55
 1274.21        2963.50           1402       10108.00     44090.98
 1274.24        2963.75           1406       12172.00     53114.65
 1274.27        2964.00           1409       13547.00     59128.77
 1274.30        2964.25           1412       15112.00     65976.58
 1274.33        2964.50           1416       17032.00     74381.58
 1274.36        2964.75           1419       18501.00     80815.13
 1274.39        2965.00           1422       20071.00     87693.79
 1274.42        2965.25           1426       21970.00     96017.68
 1274.46        2965.50           1429       23375.00    102178.90
 1274.49        2965.75           1432       24797.00    108417.00
 1274.52        2966.00           1436       26777.00    117106.90
 1274.55        2966.25           1439       27979.00    122384.40
 1274.58        2966.50           1442       29391.00    128586.20
 1274.61        2966.75           1446       31119.00    136179.00
 1274.64        2967.00           1449       31371.00    137286.60
 1274.67        2967.25           1452       31363.00    137251.40
 1274.70        2967.50           1456       31577.00    138192.00
 1274.73        2967.75           1459       31600.00    138293.10
 1274.77        2968.00           1462       31363.00    137251.40
 1274.80        2968.25           1466       30363.00    132856.70
 1274.83        2968.50           1469       29249.00    127962.40
 1274.86        2968.75           1472       27949.00    122252.70
 1274.89        2969.00           1476       26032.00    113836.70
 1274.92        2969.25           1479       24607.00    107583.40
 1274.95        2969.50           1482       23048.00    100744.80
 1274.98        2969.75           1486       21116.00     92273.83
 1275.01        2970.00           1489       19523.00     85292.50
 1275.05        2970.25           1492       18137.00     79220.75
 1275.08        2970.50           1496       16310.00     71220.45
 1275.11        2970.75           1499       14960.00     65311.37
 1275.14        2971.00           1502       13325.00     58157.62
 1275.17        2971.25           1506       11475.00     50066.86
 1275.20        2971.50           1509       10058.00     43872.44
 1275.23        2971.75           1513        8084.00     35246.93
 1275.26        2972.00           1516        6748.00     29411.73
 1275.29        2972.25           1519        5180.00     22565.84
 1275.33        2972.50           1523        3412.00     14850.12
 1275.36        2972.75           1526        1967.00      8546.65
 1275.39        2973.00           1529         857.00      3706.17
 1275.42        2973.25           1533         391.00      1674.45
 1275.45        2973.50           1536         311.00      1325.68
 1275.48        2973.75           1539         267.00      1133.87
 1275.51        2974.00           1543         218.00       920.25
 1275.54        2974.25           1546         167.00       697.92
 1275.57        2974.50           1549         122.00       501.75
 1275.60        2974.75           1553          81.00       323.02
 1275.64        2975.00           1556          66.00       257.63
 1275.67        2975.25           1559          51.00       192.24
 1275.70        2975.50           1563          53.00       200.96
 1275.73        2975.75           1566          57.00       218.40
 1275.76        2976.00           1569          50.00       187.88
 1275.79        2976.25           1573          51.00       192.24
 1275.82        2976.50           1576          57.00       218.40
 1275.85        2976.75           1579          55.00       209.68
 1275.89        2977.00           1583          54.00       205.32
 1275.92        2977.25           1586          54.00       205.32
 1275.95        2977.50           1590          55.00       209.68
 1275.98        2977.75           1593          53.00       200.96
 1276.01        2978.00           1596          54.00       205.32
 1276.04        2978.25           1600          53.00       200.96
 1276.07        2978.50           1603          53.00       200.96
 1276.10        2978.75           1606          50.00       187.88
 1276.13        2979.00           1610          49.00       183.52
 1276.16        2979.25           1613          56.00       214.04
 1276.19        2979.50           1616          49.00       183.52
 1276.22        2979.75           1620          57.00       218.40
 1276.25        2980.00           1623          59.00       227.12
 1276.28        2980.25           1626          52.00       196.60
 1276.32        2980.50           1630          52.00       196.60
 1276.35        2980.75           1633          49.00       183.52
 1276.38        2981.00           1637          48.00       179.16
 1276.41        2981.25           1640          54.00       205.32
 1276.44        2981.50           1643          61.00       235.83
 1276.47        2981.75           1647          53.00       200.96
 1276.50        2982.00           1650          55.00       209.68
 1276.53        2982.25           1653          48.00       179.16
 1276.56        2982.50           1657          42.00       153.01
 1276.60        2982.75           1660          47.00       174.80
 1276.63        2983.00           1663          52.00       196.60
 1276.66        2983.25           1667          49.00       183.52
 1276.69        2983.50           1670          47.00       174.80
 1276.72        2983.75           1673          50.00       187.88
 1276.75        2984.00           1677          46.00       170.45
HS scan finished at 21:16:58
end
