************************************************************
  HS Scan of (1) Internal mercury lamp
************************************************************
Integration time is 0.2294 seconds per sample
dh250717Manchester 53.47 2.23 2.911481pr1000
************************************************************
Dead Time -------------------------  3E-08 
Number of Cycles Used -------------  4 
Starting Wavelength (Angstroms) ---  2950 
Final Wavelength (Angstoms) -------  2984 
Wavelength Increment (Angstroms) --  .25 
Filter Wheel #1 Position ---------- (1) Ground quartz diffuser (ND=2.32)
Filter Wheel #2 Position ---------- (1) Neutral Density 0.494



************************************************************
HS scan start time = 01:44:16
Dark Count =  7 


Time (GMT)  Wavelength (Ang)  Step Number  Raw Counts  Counts/Second

  104.64        2950.00           1222          91.00       366.18
  104.71        2950.25           1226          97.00       392.33
  104.74        2950.50           1229          92.00       370.54
  104.77        2950.75           1232          96.00       387.97
  104.80        2951.00           1236         103.00       418.49
  104.83        2951.25           1239          98.00       396.69
  104.86        2951.50           1242         108.00       440.28
  104.89        2951.75           1246         100.00       405.41
  104.92        2952.00           1249         103.00       418.49
  104.95        2952.25           1252         102.00       414.13
  104.98        2952.50           1256          98.00       396.69
  105.01        2952.75           1259          98.00       396.69
  105.04        2953.00           1262          90.00       361.82
  105.08        2953.25           1266          95.00       383.61
  105.11        2953.50           1269          90.00       361.82
  105.14        2953.75           1272          98.00       396.69
  105.17        2954.00           1276         101.00       409.77
  105.20        2954.25           1279          92.00       370.54
  105.23        2954.50           1282         106.00       431.57
  105.26        2954.75           1286          95.00       383.61
  105.29        2955.00           1289          91.00       366.18
  105.32        2955.25           1292          95.00       383.61
  105.35        2955.50           1296          95.00       383.61
  105.38        2955.75           1299          91.00       366.18
  105.42        2956.00           1302         100.00       405.41
  105.45        2956.25           1306          93.00       374.90
  105.48        2956.50           1309          96.00       387.97
  105.51        2956.75           1312          95.00       383.61
  105.54        2957.00           1316          96.00       387.97
  105.57        2957.25           1319          96.00       387.97
  105.60        2957.50           1322          92.00       370.54
  105.63        2957.75           1326          87.00       348.74
  105.66        2958.00           1329          97.00       392.33
  105.69        2958.25           1332          94.00       379.25
  105.72        2958.50           1336          97.00       392.33
  105.75        2958.75           1339          97.00       392.33
  105.79        2959.00           1342         104.00       422.85
  105.82        2959.25           1346         101.00       409.77
  105.85        2959.50           1349         111.00       453.36
  105.88        2959.75           1352         117.00       479.52
  105.91        2960.00           1356         152.00       632.10
  105.94        2960.25           1359         194.00       815.19
  105.97        2960.50           1362         229.00       967.77
  106.00        2960.75           1366         294.00      1251.14
  106.03        2961.00           1369         334.00      1425.52
  106.06        2961.25           1372         395.00      1691.45
  106.09        2961.50           1376         492.00      2114.35
  106.13        2961.75           1379         680.00      2934.00
  106.16        2962.00           1382        1434.00      6221.74
  106.19        2962.25           1386        3247.00     14129.79
  106.22        2962.50           1389        5051.00     22002.31
  106.25        2962.75           1392        6783.00     29564.14
  106.28        2963.00           1396        8933.00     38955.70
  106.31        2963.25           1399       10719.00     46761.28
  106.34        2963.50           1402       12501.00     54553.03
  106.37        2963.75           1406       15066.00     65774.83
  106.40        2964.00           1409       16998.00     74232.27
  106.43        2964.25           1412       18900.00     82562.57
  106.47        2964.50           1416       21237.00     92803.79
  106.50        2964.75           1419       23109.00    101011.80
  106.53        2965.00           1422       24796.00    108412.20
  106.56        2965.25           1426       27107.00    118555.20
  106.59        2965.50           1429       28729.00    125677.90
  106.62        2965.75           1432       30487.00    133401.20
  106.65        2966.00           1436       32862.00    143840.80
  106.68        2966.25           1439       34376.00    150499.30
  106.71        2966.50           1442       36044.00    157838.00
  106.74        2966.75           1446       37857.00    165818.50
  106.77        2967.00           1449       38440.00    168385.50
  106.81        2967.25           1452       38558.00    168905.10
  106.84        2967.50           1456       38569.00    168953.60
  106.87        2967.75           1459       38660.00    169354.30
  106.90        2968.00           1462       38387.00    168152.10
  106.93        2968.25           1466       37404.00    163824.10
  106.96        2968.50           1469       35746.00    156526.70
  106.99        2968.75           1472       33979.00    148753.00
  107.02        2969.00           1476       31909.00    139651.00
  107.05        2969.25           1479       29964.00    131103.10
  107.09        2969.50           1482       28149.00    123130.50
  107.12        2969.75           1486       25710.00    112423.00
  107.15        2970.00           1489       23847.00    104248.80
  107.18        2970.25           1492       22363.00     97740.41
  107.21        2970.50           1496       19971.00     87255.13
  107.24        2970.75           1499       18296.00     79916.75
  107.27        2971.00           1502       16529.00     72178.80
  107.30        2971.25           1506       14107.00     61578.35
  107.33        2971.50           1509       12406.00     54137.55
  107.37        2971.75           1513       10259.00     44750.54
  107.40        2972.00           1516        8574.00     37387.16
  107.43        2972.25           1519        6876.00     29970.27
  107.46        2972.50           1523        4534.00     19745.78
  107.49        2972.75           1526        2799.00     12175.33
  107.52        2973.00           1529        1302.00      5646.12
  107.55        2973.25           1533         540.00      2323.61
  107.58        2973.50           1536         421.00      1804.81
  107.61        2973.75           1539         332.00      1416.80
  107.64        2974.00           1543         302.00      1286.01
  107.67        2974.25           1546         231.00       976.49
  107.71        2974.50           1549         179.00       749.80
  107.74        2974.75           1553         132.00       544.91
  107.77        2975.00           1556         102.00       414.13
  107.80        2975.25           1559          99.00       401.05
  107.83        2975.50           1563          87.00       348.74
  107.86        2975.75           1566         105.00       427.21
  107.89        2976.00           1569          87.00       348.74
  107.92        2976.25           1573         100.00       405.41
  107.95        2976.50           1576          94.00       379.25
  107.98        2976.75           1579          81.00       322.58
  108.02        2977.00           1583          85.00       340.02
  108.05        2977.25           1586          84.00       335.66
  108.08        2977.50           1590          83.00       331.30
  108.11        2977.75           1593          85.00       340.02
  108.14        2978.00           1596          92.00       370.54
  108.17        2978.25           1600          82.00       326.94
  108.20        2978.50           1603          87.00       348.74
  108.23        2978.75           1606          90.00       361.82
  108.26        2979.00           1610          90.00       361.82
  108.29        2979.25           1613          88.00       353.10
  108.32        2979.50           1616          92.00       370.54
  108.35        2979.75           1620          79.00       313.87
  108.38        2980.00           1623          86.00       344.38
  108.41        2980.25           1626          77.00       305.15
  108.44        2980.50           1630          88.00       353.10
  108.48        2980.75           1633          80.00       318.22
  108.51        2981.00           1637          92.00       370.54
  108.54        2981.25           1640          90.00       361.82
  108.57        2981.50           1643          84.00       335.66
  108.60        2981.75           1647          90.00       361.82
  108.63        2982.00           1650          89.00       357.46
  108.66        2982.25           1653          85.00       340.02
  108.69        2982.50           1657          84.00       335.66
  108.72        2982.75           1660          85.00       340.02
  108.75        2983.00           1663          88.00       353.10
  108.78        2983.25           1667          91.00       366.18
  108.82        2983.50           1670          88.00       353.10
  108.85        2983.75           1673          80.00       318.22
  108.88        2984.00           1677          86.00       344.38
HS scan finished at 01:49:06
end
************************************************************
  HS Scan of (1) Internal mercury lamp
************************************************************
Integration time is 0.2294 seconds per sample
dh250717Manchester 53.47 2.23 3.126073pr1000
************************************************************
Dead Time -------------------------  3E-08 
Number of Cycles Used -------------  4 
Starting Wavelength (Angstroms) ---  2950 
Final Wavelength (Angstoms) -------  2984 
Wavelength Increment (Angstroms) --  .25 
Filter Wheel #1 Position ---------- (1) Ground quartz diffuser (ND=2.32)
Filter Wheel #2 Position ---------- (1) Neutral Density 0.494



************************************************************
HS scan start time = 21:12:01
Dark Count =  7 


Time (GMT)  Wavelength (Ang)  Step Number  Raw Counts  Counts/Second

 1272.38        2950.00           1222          87.00       348.74
 1272.45        2950.25           1226         105.00       427.21
 1272.48        2950.50           1229          95.00       383.61
 1272.51        2950.75           1232         105.00       427.21
 1272.54        2951.00           1236          93.00       374.90
 1272.57        2951.25           1239          99.00       401.05
 1272.61        2951.50           1242          97.00       392.33
 1272.64        2951.75           1246          88.00       353.10
 1272.67        2952.00           1249         105.00       427.21
 1272.70        2952.25           1252          96.00       387.97
 1272.73        2952.50           1256          89.00       357.46
 1272.76        2952.75           1259          86.00       344.38
 1272.79        2953.00           1262         103.00       418.49
 1272.82        2953.25           1266          89.00       357.46
 1272.85        2953.50           1269          94.00       379.25
 1272.88        2953.75           1272          97.00       392.33
 1272.91        2954.00           1276         101.00       409.77
 1272.94        2954.25           1279          98.00       396.69
 1272.98        2954.50           1282          94.00       379.25
 1273.01        2954.75           1286          91.00       366.18
 1273.04        2955.00           1289          85.00       340.02
 1273.07        2955.25           1292          93.00       374.90
 1273.10        2955.50           1296         100.00       405.41
 1273.13        2955.75           1299         106.00       431.57
 1273.16        2956.00           1302          95.00       383.61
 1273.19        2956.25           1306          85.00       340.02
 1273.22        2956.50           1309         101.00       409.77
 1273.25        2956.75           1312         100.00       405.41
 1273.28        2957.00           1316         103.00       418.49
 1273.31        2957.25           1319          87.00       348.74
 1273.34        2957.50           1322          95.00       383.61
 1273.38        2957.75           1326          88.00       353.10
 1273.41        2958.00           1329         100.00       405.41
 1273.44        2958.25           1332          86.00       344.38
 1273.47        2958.50           1336          90.00       361.82
 1273.50        2958.75           1339         105.00       427.21
 1273.53        2959.00           1342         102.00       414.13
 1273.56        2959.25           1346         105.00       427.21
 1273.59        2959.50           1349         108.00       440.28
 1273.62        2959.75           1352         140.00       579.78
 1273.65        2960.00           1356         180.00       754.16
 1273.68        2960.25           1359         217.00       915.46
 1273.71        2960.50           1362         277.00      1177.03
 1273.75        2960.75           1366         333.00      1421.16
 1273.78        2961.00           1369         411.00      1761.21
 1273.81        2961.25           1372         429.00      1839.68
 1273.84        2961.50           1376         528.00      2271.30
 1273.87        2961.75           1379         725.00      3130.20
 1273.90        2962.00           1382        1570.00      6814.82
 1273.93        2962.25           1386        3710.00     16149.93
 1273.96        2962.50           1389        5555.00     24202.40
 1273.99        2962.75           1392        7417.00     32333.01
 1274.02        2963.00           1396        9830.00     42875.52
 1274.06        2963.25           1399       11628.00     50735.40
 1274.09        2963.50           1402       13401.00     58489.64
 1274.12        2963.75           1406       15979.00     69771.00
 1274.15        2964.00           1409       17899.00     78177.91
 1274.18        2964.25           1412       19768.00     86365.59
 1274.21        2964.50           1416       22269.00     97328.24
 1274.24        2964.75           1419       24251.00    106021.10
 1274.27        2965.00           1422       26182.00    114494.60
 1274.30        2965.25           1426       28731.00    125686.60
 1274.33        2965.50           1429       30593.00    133867.00
 1274.37        2965.75           1432       32718.00    143207.70
 1274.40        2966.00           1436       35182.00    154045.10
 1274.43        2966.25           1439       36846.00    161367.80
 1274.46        2966.50           1442       38611.00    169138.50
 1274.49        2966.75           1446       40592.00    177864.60
 1274.52        2967.00           1449       41150.00    180323.40
 1274.55        2967.25           1452       41381.00    181341.30
 1274.58        2967.50           1456       41228.00    180667.10
 1274.61        2967.75           1459       41155.00    180345.40
 1274.64        2968.00           1462       40982.00    179583.10
 1274.67        2968.25           1466       39946.00    175018.60
 1274.70        2968.50           1469       38238.00    167496.00
 1274.73        2968.75           1472       36701.00    160729.60
 1274.77        2969.00           1476       34097.00    149272.00
 1274.80        2969.25           1479       32351.00    141594.10
 1274.83        2969.50           1482       30424.00    133124.30
 1274.86        2969.75           1486       27808.00    121633.10
 1274.89        2970.00           1489       26070.00    114003.00
 1274.92        2970.25           1492       24264.00    106078.10
 1274.95        2970.50           1496       21567.00     94250.42
 1274.98        2970.75           1499       19572.00     85506.78
 1275.01        2971.00           1502       17698.00     77297.61
 1275.04        2971.25           1506       15172.00     66238.73
 1275.08        2971.50           1509       13109.00     57212.32
 1275.11        2971.75           1513       10780.00     47027.94
 1275.14        2972.00           1516        8857.00     38623.63
 1275.17        2972.25           1519        6986.00     30450.65
 1275.20        2972.50           1523        4561.00     19863.62
 1275.23        2972.75           1526        2727.00     11861.24
 1275.26        2973.00           1529        1174.00      5087.96
 1275.29        2973.25           1533         548.00      2358.49
 1275.32        2973.50           1536         394.00      1687.10
 1275.35        2973.75           1539         322.00      1373.20
 1275.38        2974.00           1543         274.00      1163.95
 1275.42        2974.25           1546         213.00       898.02
 1275.45        2974.50           1549         174.00       728.00
 1275.48        2974.75           1553         112.00       457.72
 1275.51        2975.00           1556         104.00       422.85
 1275.54        2975.25           1559         110.00       449.00
 1275.57        2975.50           1563          84.00       335.66
 1275.60        2975.75           1566          90.00       361.82
 1275.63        2976.00           1569          86.00       344.38
 1275.66        2976.25           1573          87.00       348.74
 1275.69        2976.50           1576          91.00       366.18
 1275.72        2976.75           1579          89.00       357.46
 1275.75        2977.00           1583          89.00       357.46
 1275.79        2977.25           1586          81.00       322.58
 1275.82        2977.50           1590          84.00       335.66
 1275.85        2977.75           1593          89.00       357.46
 1275.88        2978.00           1596         101.00       409.77
 1275.91        2978.25           1600          82.00       326.94
 1275.94        2978.50           1603          81.00       322.58
 1275.97        2978.75           1606          88.00       353.10
 1276.00        2979.00           1610          87.00       348.74
 1276.03        2979.25           1613          87.00       348.74
 1276.06        2979.50           1616          82.00       326.94
 1276.09        2979.75           1620          79.00       313.87
 1276.12        2980.00           1623          83.00       331.30
 1276.16        2980.25           1626          89.00       357.46
 1276.19        2980.50           1630          81.00       322.58
 1276.22        2980.75           1633          85.00       340.02
 1276.25        2981.00           1637          82.00       326.94
 1276.28        2981.25           1640          77.00       305.15
 1276.31        2981.50           1643          85.00       340.02
 1276.34        2981.75           1647          91.00       366.18
 1276.37        2982.00           1650          74.00       292.07
 1276.40        2982.25           1653          85.00       340.02
 1276.44        2982.50           1657          81.00       322.58
 1276.47        2982.75           1660          82.00       326.94
 1276.50        2983.00           1663          85.00       340.02
 1276.53        2983.25           1667          87.00       348.74
 1276.56        2983.50           1670          80.00       318.22
 1276.59        2983.75           1673          94.00       379.25
 1276.62        2984.00           1677          82.00       326.94
HS scan finished at 21:16:50
end
