************************************************************
  HS Scan of (1) Internal mercury lamp
************************************************************
Integration time is 0.2294 seconds per sample
dh220717Manchester 53.47 2.23 2.804185pr1000
************************************************************
Dead Time -------------------------  3E-08 
Number of Cycles Used -------------  4 
Starting Wavelength (Angstroms) ---  2950 
Final Wavelength (Angstoms) -------  2984 
Wavelength Increment (Angstroms) --  .25 
Filter Wheel #1 Position ---------- (1) Ground quartz diffuser (ND=2.32)
Filter Wheel #2 Position ---------- (1) Neutral Density 0.494



************************************************************
HS scan start time = 01:31:43
Dark Count =  4 


Time (GMT)  Wavelength (Ang)  Step Number  Raw Counts  Counts/Second

   92.08        2950.00           1222          99.00       414.13
   92.15        2950.25           1226          98.00       409.77
   92.18        2950.50           1229         106.00       444.64
   92.21        2950.75           1232         101.00       422.85
   92.24        2951.00           1236         114.00       479.52
   92.27        2951.25           1239         100.00       418.49
   92.30        2951.50           1242          99.00       414.13
   92.33        2951.75           1246         100.00       418.49
   92.36        2952.00           1249          96.00       401.05
   92.39        2952.25           1252          94.00       392.33
   92.42        2952.50           1256         102.00       427.21
   92.45        2952.75           1259         116.00       488.24
   92.49        2953.00           1262          99.00       414.13
   92.52        2953.25           1266          91.00       379.25
   92.55        2953.50           1269          98.00       409.77
   92.58        2953.75           1272         116.00       488.24
   92.61        2954.00           1276         108.00       453.36
   92.64        2954.25           1279         100.00       418.49
   92.67        2954.50           1282         102.00       427.21
   92.70        2954.75           1286          99.00       414.13
   92.73        2955.00           1289         105.00       440.28
   92.76        2955.25           1292         101.00       422.85
   92.79        2955.50           1296         106.00       444.64
   92.82        2955.75           1299          99.00       414.13
   92.86        2956.00           1302         102.00       427.21
   92.89        2956.25           1306          90.00       374.90
   92.92        2956.50           1309         100.00       418.49
   92.95        2956.75           1312         104.00       435.93
   92.98        2957.00           1316          98.00       409.77
   93.01        2957.25           1319          96.00       401.05
   93.04        2957.50           1322         100.00       418.49
   93.07        2957.75           1326          96.00       401.05
   93.10        2958.00           1329          97.00       405.41
   93.13        2958.25           1332         100.00       418.49
   93.17        2958.50           1336          97.00       405.41
   93.20        2958.75           1339         102.00       427.21
   93.23        2959.00           1342         102.00       427.21
   93.26        2959.25           1346         106.00       444.64
   93.29        2959.50           1349         121.00       510.03
   93.32        2959.75           1352         133.00       562.35
   93.35        2960.00           1356         179.00       762.88
   93.38        2960.25           1359         205.00       876.22
   93.41        2960.50           1362         262.00      1124.71
   93.44        2960.75           1366         329.00      1416.80
   93.47        2961.00           1369         349.00      1503.99
   93.50        2961.25           1372         391.00      1687.10
   93.53        2961.50           1376         506.00      2188.46
   93.56        2961.75           1379         785.00      3404.88
   93.59        2962.00           1382        1605.00      6980.54
   93.63        2962.25           1386        3637.00     15844.50
   93.66        2962.50           1389        5162.00     22499.93
   93.69        2962.75           1392        6723.00     29315.22
   93.72        2963.00           1396        8889.00     38776.56
   93.75        2963.25           1399       10662.00     46525.23
   93.78        2963.50           1402       12180.00     53162.31
   93.81        2963.75           1406       14546.00     63512.36
   93.84        2964.00           1409       16142.00     70497.68
   93.87        2964.25           1412       17804.00     77774.99
   93.90        2964.50           1416       20203.00     88284.96
   93.94        2964.75           1419       21668.00     94706.37
   93.97        2965.00           1422       23416.00    102371.50
   94.00        2965.25           1426       25632.00    112093.90
   94.03        2965.50           1429       27498.00    120285.10
   94.06        2965.75           1432       29180.00    127672.00
   94.09        2966.00           1436       31187.00    136490.60
   94.12        2966.25           1439       32734.00    143291.20
   94.15        2966.50           1442       34078.00    149201.70
   94.18        2966.75           1446       35681.00    156253.90
   94.22        2967.00           1449       36372.00    159294.80
   94.25        2967.25           1452       36098.00    158088.90
   94.28        2967.50           1456       36096.00    158080.10
   94.31        2967.75           1459       36307.00    159008.70
   94.34        2968.00           1462       35921.00    157310.00
   94.37        2968.25           1466       34713.00    151994.90
   94.40        2968.50           1469       33452.00    146448.50
   94.43        2968.75           1472       31729.00    138872.90
   94.46        2969.00           1476       29477.00    128976.70
   94.49        2969.25           1479       27843.00    121800.00
   94.52        2969.50           1482       26258.00    114841.40
   94.55        2969.75           1486       24057.00    105183.20
   94.58        2970.00           1489       22535.00     98507.78
   94.62        2970.25           1492       20780.00     90813.78
   94.65        2970.50           1496       18574.00     81147.61
   94.68        2970.75           1499       17097.00     74678.90
   94.71        2971.00           1502       15330.00     66943.38
   94.74        2971.25           1506       12963.00     56586.83
   94.77        2971.50           1509       11320.00     49401.85
   94.80        2971.75           1513        9039.00     39431.97
   94.83        2972.00           1516        7333.00     31979.23
   94.86        2972.25           1519        5682.00     24769.93
   94.90        2972.50           1523        3471.00     15120.20
   94.93        2972.75           1526        1908.00      8301.98
   94.96        2973.00           1529         851.00      3692.65
   94.99        2973.25           1533         460.00      1987.91
   95.02        2973.50           1536         366.00      1578.10
   95.05        2973.75           1539         321.00      1381.92
   95.08        2974.00           1543         253.00      1085.48
   95.11        2974.25           1546         196.00       836.99
   95.14        2974.50           1549         157.00       666.97
   95.17        2974.75           1553         113.00       475.16
   95.20        2975.00           1556         108.00       453.36
   95.24        2975.25           1559          99.00       414.13
   95.27        2975.50           1563          93.00       387.97
   95.30        2975.75           1566          99.00       414.13
   95.33        2976.00           1569          92.00       383.61
   95.36        2976.25           1573          97.00       405.41
   95.39        2976.50           1576          87.00       361.82
   95.42        2976.75           1579          93.00       387.97
   95.45        2977.00           1583          90.00       374.90
   95.48        2977.25           1586          89.00       370.54
   95.51        2977.50           1590          89.00       370.54
   95.54        2977.75           1593          89.00       370.54
   95.57        2978.00           1596          90.00       374.90
   95.61        2978.25           1600          96.00       401.05
   95.64        2978.50           1603          84.00       348.74
   95.67        2978.75           1606          88.00       366.18
   95.70        2979.00           1610         103.00       431.57
   95.73        2979.25           1613          90.00       374.90
   95.76        2979.50           1616          90.00       374.90
   95.79        2979.75           1620          95.00       396.69
   95.82        2980.00           1623          90.00       374.90
   95.85        2980.25           1626          88.00       366.18
   95.88        2980.50           1630          88.00       366.18
   95.91        2980.75           1633          81.00       335.66
   95.94        2981.00           1637          84.00       348.74
   95.98        2981.25           1640          84.00       348.74
   96.01        2981.50           1643          87.00       361.82
   96.04        2981.75           1647          95.00       396.69
   96.07        2982.00           1650          95.00       396.69
   96.10        2982.25           1653          85.00       353.10
   96.13        2982.50           1657          97.00       405.41
   96.16        2982.75           1660          85.00       353.10
   96.19        2983.00           1663          95.00       396.69
   96.22        2983.25           1667          75.00       309.51
   96.25        2983.50           1670          89.00       370.54
   96.28        2983.75           1673          93.00       387.97
   96.32        2984.00           1677          85.00       353.10
HS scan finished at 01:36:32
end
************************************************************
  HS Scan of (1) Internal mercury lamp
************************************************************
Integration time is 0.2294 seconds per sample
dh220717Manchester 53.47 2.23 2.804185pr1000
************************************************************
Dead Time -------------------------  3E-08 
Number of Cycles Used -------------  4 
Starting Wavelength (Angstroms) ---  2950 
Final Wavelength (Angstoms) -------  2984 
Wavelength Increment (Angstroms) --  .25 
Filter Wheel #1 Position ---------- (1) Ground quartz diffuser (ND=2.32)
Filter Wheel #2 Position ---------- (1) Neutral Density 0.494



************************************************************
HS scan start time = 21:12:01
Dark Count =  6.2 


Time (GMT)  Wavelength (Ang)  Step Number  Raw Counts  Counts/Second

 1272.39        2950.00           1222         116.00       478.65
 1272.45        2950.25           1226         101.00       413.26
 1272.48        2950.50           1229         107.00       439.41
 1272.52        2950.75           1232          97.00       395.82
 1272.55        2951.00           1236         101.00       413.26
 1272.58        2951.25           1239          98.00       400.18
 1272.61        2951.50           1242          96.00       391.46
 1272.64        2951.75           1246          99.00       404.54
 1272.67        2952.00           1249          97.00       395.82
 1272.70        2952.25           1252          96.00       391.46
 1272.73        2952.50           1256         109.00       448.13
 1272.76        2952.75           1259          93.00       378.38
 1272.79        2953.00           1262         105.00       430.69
 1272.82        2953.25           1266         104.00       426.34
 1272.85        2953.50           1269         102.00       417.62
 1272.89        2953.75           1272          96.00       391.46
 1272.92        2954.00           1276          97.00       395.82
 1272.95        2954.25           1279          95.00       387.10
 1272.98        2954.50           1282          99.00       404.54
 1273.01        2954.75           1286         101.00       413.26
 1273.04        2955.00           1289         104.00       426.34
 1273.07        2955.25           1292          99.00       404.54
 1273.10        2955.50           1296          95.00       387.10
 1273.13        2955.75           1299          98.00       400.18
 1273.16        2956.00           1302          94.00       382.74
 1273.20        2956.25           1306         101.00       413.26
 1273.23        2956.50           1309         100.00       408.90
 1273.26        2956.75           1312         102.00       417.62
 1273.29        2957.00           1316         108.00       443.77
 1273.32        2957.25           1319         104.00       426.34
 1273.35        2957.50           1322         101.00       413.26
 1273.38        2957.75           1326          95.00       387.10
 1273.41        2958.00           1329          99.00       404.54
 1273.44        2958.25           1332          96.00       391.46
 1273.47        2958.50           1336         102.00       417.62
 1273.50        2958.75           1339          94.00       382.74
 1273.54        2959.00           1342         103.00       421.98
 1273.57        2959.25           1346         102.00       417.62
 1273.60        2959.50           1349         114.00       469.93
 1273.63        2959.75           1352         103.00       421.98
 1273.66        2960.00           1356         135.00       561.47
 1273.69        2960.25           1359         179.00       753.29
 1273.72        2960.50           1362         212.00       897.15
 1273.75        2960.75           1366         261.00      1110.76
 1273.78        2961.00           1369         305.00      1302.58
 1273.82        2961.25           1372         347.00      1485.68
 1273.85        2961.50           1376         439.00      1886.77
 1273.88        2961.75           1379         651.00      2811.05
 1273.91        2962.00           1382        1404.00      6094.40
 1273.94        2962.25           1386        3279.00     14272.89
 1273.97        2962.50           1389        4874.00     21233.22
 1274.00        2962.75           1392        6430.00     28026.17
 1274.03        2963.00           1396        8433.00     36774.64
 1274.06        2963.25           1399       10090.00     44015.37
 1274.09        2963.50           1402       11702.00     51062.47
 1274.12        2963.75           1406       14034.00     61262.45
 1274.16        2964.00           1409       15750.00     68772.09
 1274.19        2964.25           1412       17621.00     76963.91
 1274.22        2964.50           1416       19640.00     85808.24
 1274.25        2964.75           1419       21142.00     92390.87
 1274.28        2965.00           1422       22966.00    100388.20
 1274.31        2965.25           1426       25419.00    111149.40
 1274.34        2965.50           1429       27105.00    118549.90
 1274.37        2965.75           1432       28626.00    125229.00
 1274.40        2966.00           1436       31035.00    135812.90
 1274.43        2966.25           1439       32556.00    142498.90
 1274.47        2966.50           1442       34234.00    149878.20
 1274.50        2966.75           1446       35477.00    155346.50
 1274.53        2967.00           1449       36014.00    157709.60
 1274.56        2967.25           1452       35805.00    156789.80
 1274.59        2967.50           1456       36045.00    157846.00
 1274.62        2967.75           1459       36060.00    157912.00
 1274.65        2968.00           1462       35874.00    157093.50
 1274.68        2968.25           1466       34569.00    151351.80
 1274.71        2968.50           1469       33246.00    145532.90
 1274.75        2968.75           1472       31726.00    138850.10
 1274.78        2969.00           1476       29483.00    128993.40
 1274.81        2969.25           1479       27903.00    122053.80
 1274.84        2969.50           1482       26458.00    115709.60
 1274.87        2969.75           1486       24324.00    106344.90
 1274.90        2970.00           1489       22675.00     99112.04
 1274.93        2970.25           1492       20989.00     91720.22
 1274.96        2970.50           1496       18939.00     82736.93
 1274.99        2970.75           1499       17023.00     74345.23
 1275.02        2971.00           1502       15452.00     67467.72
 1275.06        2971.25           1506       13301.00     58055.69
 1275.09        2971.50           1509       11524.00     50284.17
 1275.12        2971.75           1513        9369.00     40864.36
 1275.15        2972.00           1516        7783.00     33935.14
 1275.18        2972.25           1519        6087.00     26528.52
 1275.21        2972.50           1523        3979.00     17327.23
 1275.24        2972.75           1526        2440.00     10612.79
 1275.27        2973.00           1529        1212.00      5257.15
 1275.30        2973.25           1533         566.00      2440.46
 1275.33        2973.50           1536         432.00      1856.25
 1275.36        2973.75           1539         365.00      1564.15
 1275.40        2974.00           1543         321.00      1372.33
 1275.43        2974.25           1546         253.00      1075.88
 1275.46        2974.50           1549         203.00       857.91
 1275.49        2974.75           1553         159.00       666.10
 1275.52        2975.00           1556         118.00       487.37
 1275.55        2975.25           1559         114.00       469.93
 1275.58        2975.50           1563         102.00       417.62
 1275.61        2975.75           1566          94.00       382.74
 1275.64        2976.00           1569          98.00       400.18
 1275.67        2976.25           1573          88.00       356.59
 1275.70        2976.50           1576          85.00       343.51
 1275.73        2976.75           1579          98.00       400.18
 1275.77        2977.00           1583          93.00       378.38
 1275.80        2977.25           1586          92.00       374.02
 1275.83        2977.50           1590          97.00       395.82
 1275.86        2977.75           1593          99.00       404.54
 1275.89        2978.00           1596          94.00       382.74
 1275.92        2978.25           1600          99.00       404.54
 1275.95        2978.50           1603          94.00       382.74
 1275.98        2978.75           1606          97.00       395.82
 1276.01        2979.00           1610         100.00       408.90
 1276.04        2979.25           1613          82.00       330.43
 1276.07        2979.50           1616          84.00       339.15
 1276.11        2979.75           1620          95.00       387.10
 1276.14        2980.00           1623          88.00       356.59
 1276.17        2980.25           1626          96.00       391.46
 1276.20        2980.50           1630          95.00       387.10
 1276.23        2980.75           1633          98.00       400.18
 1276.26        2981.00           1637          77.00       308.63
 1276.29        2981.25           1640          99.00       404.54
 1276.32        2981.50           1643          84.00       339.15
 1276.35        2981.75           1647          90.00       365.30
 1276.38        2982.00           1650          88.00       356.59
 1276.41        2982.25           1653          86.00       347.87
 1276.44        2982.50           1657          99.00       404.54
 1276.47        2982.75           1660          79.00       317.35
 1276.50        2983.00           1663          80.00       321.71
 1276.53        2983.25           1667          89.00       360.95
 1276.57        2983.50           1670          84.00       339.15
 1276.60        2983.75           1673          88.00       356.59
 1276.63        2984.00           1677          97.00       395.82
HS scan finished at 21:16:51
end
