************************************************************
  HS Scan of (1) Internal mercury lamp
************************************************************
Integration time is 0.2294 seconds per sample
dh200718Manchester 53.47 2.23 2.857833pr1000
************************************************************
Dead Time -------------------------  3E-08 
Number of Cycles Used -------------  4 
Starting Wavelength (Angstroms) ---  2950 
Final Wavelength (Angstoms) -------  2984 
Wavelength Increment (Angstroms) --  .25 
Filter Wheel #1 Position ---------- (1) Ground quartz diffuser (ND=2.32)
Filter Wheel #2 Position ---------- (1) Neutral Density 0.494



************************************************************
HS scan start time = 01:39:32
Dark Count =  5.5 


Time (GMT)  Wavelength (Ang)  Step Number  Raw Counts  Counts/Second

   99.90        2950.00           1222          52.00       202.70
   99.96        2950.25           1226          51.00       198.34
  100.00        2950.50           1229          56.00       220.14
  100.03        2950.75           1232          56.00       220.14
  100.06        2951.00           1236          47.00       180.91
  100.09        2951.25           1239          53.00       207.06
  100.12        2951.50           1242          52.00       202.70
  100.15        2951.75           1246          52.00       202.70
  100.18        2952.00           1249          46.00       176.55
  100.21        2952.25           1252          52.00       202.70
  100.24        2952.50           1256          55.00       215.78
  100.28        2952.75           1259          63.00       250.66
  100.31        2953.00           1262          61.00       241.94
  100.34        2953.25           1266          50.00       193.99
  100.37        2953.50           1269          56.00       220.14
  100.40        2953.75           1272          50.00       193.99
  100.43        2954.00           1276          62.00       246.30
  100.46        2954.25           1279          50.00       193.99
  100.49        2954.50           1282          56.00       220.14
  100.52        2954.75           1286          47.00       180.91
  100.55        2955.00           1289          56.00       220.14
  100.58        2955.25           1292          57.00       224.50
  100.62        2955.50           1296          54.00       211.42
  100.65        2955.75           1299          59.00       233.22
  100.68        2956.00           1302          51.00       198.34
  100.71        2956.25           1306          52.00       202.70
  100.74        2956.50           1309          51.00       198.34
  100.77        2956.75           1312          46.00       176.55
  100.80        2957.00           1316          59.00       233.22
  100.83        2957.25           1319          52.00       202.70
  100.86        2957.50           1322          61.00       241.94
  100.89        2957.75           1326          48.00       185.27
  100.92        2958.00           1329          54.00       211.42
  100.96        2958.25           1332          59.00       233.22
  100.99        2958.50           1336          51.00       198.34
  101.02        2958.75           1339          55.00       215.78
  101.05        2959.00           1342          52.00       202.70
  101.08        2959.25           1346          52.00       202.70
  101.11        2959.50           1349          62.00       246.30
  101.14        2959.75           1352          64.00       255.02
  101.17        2960.00           1356         107.00       442.46
  101.20        2960.25           1359         131.00       547.09
  101.23        2960.50           1362         169.00       712.74
  101.26        2960.75           1366         216.00       917.64
  101.29        2961.00           1369         245.00      1044.06
  101.32        2961.25           1372         300.00      1283.83
  101.36        2961.50           1376         336.00      1440.78
  101.39        2961.75           1379         407.00      1750.31
  101.42        2962.00           1382         743.00      3215.22
  101.45        2962.25           1386        2052.00      8923.49
  101.48        2962.50           1389        3421.00     14895.50
  101.51        2962.75           1392        4729.00     20603.40
  101.54        2963.00           1396        6658.00     29024.83
  101.57        2963.25           1399        8073.00     35204.99
  101.60        2963.50           1402        9381.00     40919.86
  101.63        2963.75           1406       11225.00     48979.94
  101.67        2964.00           1409       12626.00     55106.28
  101.70        2964.25           1412       13967.00     60972.37
  101.73        2964.50           1416       15756.00     68801.41
  101.76        2964.75           1419       17207.00     75154.00
  101.79        2965.00           1422       18625.00     81364.45
  101.82        2965.25           1426       20483.00     89505.49
  101.85        2965.50           1429       22003.00     96168.52
  101.88        2965.75           1432       23387.00    102237.70
  101.91        2966.00           1436       25064.00    109594.70
  101.94        2966.25           1439       26496.00    115879.50
  101.98        2966.50           1442       27657.00    120976.60
  102.01        2966.75           1446       29136.00    127472.20
  102.04        2967.00           1449       29681.00    129866.40
  102.07        2967.25           1452       30257.00    132397.10
  102.10        2967.50           1456       29965.00    131114.10
  102.13        2967.75           1459       30048.00    131478.80
  102.16        2968.00           1462       30047.00    131474.40
  102.19        2968.25           1466       29419.00    128715.40
  102.22        2968.50           1469       28355.00    124041.80
  102.26        2968.75           1472       27330.00    119540.80
  102.29        2969.00           1476       25340.00    110805.80
  102.32        2969.25           1479       23968.00    104786.20
  102.35        2969.50           1482       22659.00     99044.96
  102.38        2969.75           1486       20735.00     90609.97
  102.41        2970.00           1489       19449.00     84974.41
  102.44        2970.25           1492       18078.00     78968.47
  102.47        2970.50           1496       16191.00     70705.62
  102.50        2970.75           1499       14931.00     65190.58
  102.54        2971.00           1502       13489.00     58881.17
  102.57        2971.25           1506       11462.00     50016.14
  102.60        2971.50           1509       10106.00     44088.36
  102.63        2971.75           1513        8408.00     36668.48
  102.66        2972.00           1516        6934.00     30230.11
  102.69        2972.25           1519        5583.00     24331.18
  102.72        2972.50           1523        3857.00     16797.91
  102.75        2972.75           1526        2498.00     10868.85
  102.78        2973.00           1529        1279.00      5552.36
  102.82        2973.25           1533         445.00      1915.98
  102.85        2973.50           1536         298.00      1275.11
  102.88        2973.75           1539         245.00      1044.06
  102.91        2974.00           1543         205.00       869.68
  102.94        2974.25           1546         158.00       664.79
  102.97        2974.50           1549         133.00       555.81
  103.00        2974.75           1553          79.00       320.40
  103.03        2975.00           1556          64.00       255.02
  103.06        2975.25           1559          64.00       255.02
  103.09        2975.50           1563          54.00       211.42
  103.12        2975.75           1566          59.00       233.22
  103.16        2976.00           1569          53.00       207.06
  103.19        2976.25           1573          53.00       207.06
  103.22        2976.50           1576          50.00       193.99
  103.25        2976.75           1579          56.00       220.14
  103.28        2977.00           1583          50.00       193.99
  103.31        2977.25           1586          55.00       215.78
  103.34        2977.50           1590          46.00       176.55
  103.37        2977.75           1593          44.00       167.83
  103.40        2978.00           1596          47.00       180.91
  103.44        2978.25           1600          49.00       189.63
  103.47        2978.50           1603          47.00       180.91
  103.50        2978.75           1606          59.00       233.22
  103.53        2979.00           1610          55.00       215.78
  103.56        2979.25           1613          47.00       180.91
  103.59        2979.50           1616          49.00       189.63
  103.62        2979.75           1620          57.00       224.50
  103.65        2980.00           1623          45.00       172.19
  103.68        2980.25           1626          54.00       211.42
  103.71        2980.50           1630          44.00       167.83
  103.75        2980.75           1633          50.00       193.99
  103.78        2981.00           1637          46.00       176.55
  103.81        2981.25           1640          54.00       211.42
  103.84        2981.50           1643          43.00       163.47
  103.87        2981.75           1647          45.00       172.19
  103.90        2982.00           1650          51.00       198.34
  103.93        2982.25           1653          47.00       180.91
  103.96        2982.50           1657          55.00       215.78
  103.99        2982.75           1660          47.00       180.91
  104.02        2983.00           1663          56.00       220.14
  104.06        2983.25           1667          55.00       215.78
  104.09        2983.50           1670          52.00       202.70
  104.12        2983.75           1673          48.00       185.27
  104.15        2984.00           1677          62.00       246.30
HS scan finished at 01:44:22
end
************************************************************
  HS Scan of (1) Internal mercury lamp
************************************************************
Integration time is 0.2294 seconds per sample
dh200718Manchester 53.47 2.23 2.857833pr1000
************************************************************
Dead Time -------------------------  3E-08 
Number of Cycles Used -------------  4 
Starting Wavelength (Angstroms) ---  2950 
Final Wavelength (Angstoms) -------  2984 
Wavelength Increment (Angstroms) --  .25 
Filter Wheel #1 Position ---------- (1) Ground quartz diffuser (ND=2.32)
Filter Wheel #2 Position ---------- (1) Neutral Density 0.494



************************************************************
HS scan start time = 21:12:07
Dark Count =  4.2 


Time (GMT)  Wavelength (Ang)  Step Number  Raw Counts  Counts/Second

 1272.48        2950.00           1222          50.00       199.65
 1272.55        2950.25           1226          58.00       234.53
 1272.58        2950.50           1229          60.00       243.25
 1272.61        2950.75           1232          58.00       234.53
 1272.64        2951.00           1236          56.00       225.81
 1272.67        2951.25           1239          59.00       238.89
 1272.70        2951.50           1242          53.00       212.73
 1272.73        2951.75           1246          52.00       208.37
 1272.76        2952.00           1249          56.00       225.81
 1272.79        2952.25           1252          48.00       190.93
 1272.82        2952.50           1256          63.00       256.32
 1272.86        2952.75           1259          54.00       217.09
 1272.89        2953.00           1262          61.00       247.60
 1272.92        2953.25           1266          57.00       230.17
 1272.95        2953.50           1269          58.00       234.53
 1272.98        2953.75           1272          51.00       204.01
 1273.01        2954.00           1276          54.00       217.09
 1273.04        2954.25           1279          56.00       225.81
 1273.07        2954.50           1282          47.00       186.57
 1273.10        2954.75           1286          49.00       195.29
 1273.13        2955.00           1289          54.00       217.09
 1273.17        2955.25           1292          59.00       238.89
 1273.20        2955.50           1296          56.00       225.81
 1273.23        2955.75           1299          57.00       230.17
 1273.26        2956.00           1302          58.00       234.53
 1273.29        2956.25           1306          51.00       204.01
 1273.32        2956.50           1309          60.00       243.25
 1273.35        2956.75           1312          49.00       195.29
 1273.38        2957.00           1316          62.00       251.96
 1273.41        2957.25           1319          53.00       212.73
 1273.44        2957.50           1322          56.00       225.81
 1273.47        2957.75           1326          62.00       251.96
 1273.51        2958.00           1329          55.00       221.45
 1273.54        2958.25           1332          53.00       212.73
 1273.57        2958.50           1336          53.00       212.73
 1273.60        2958.75           1339          50.00       199.65
 1273.63        2959.00           1342          54.00       217.09
 1273.66        2959.25           1346          59.00       238.89
 1273.69        2959.50           1349          70.00       286.84
 1273.72        2959.75           1352          75.00       308.63
 1273.75        2960.00           1356         121.00       509.16
 1273.78        2960.25           1359         144.00       609.43
 1273.81        2960.50           1362         186.00       792.52
 1273.85        2960.75           1366         212.00       905.87
 1273.88        2961.00           1369         269.00      1154.36
 1273.91        2961.25           1372         317.00      1363.61
 1273.94        2961.50           1376         416.00      1795.21
 1273.97        2961.75           1379         669.00      2898.25
 1274.00        2962.00           1382        1564.00      6800.86
 1274.03        2962.25           1386        3203.00     13950.04
 1274.06        2962.50           1389        4625.00     20155.16
 1274.09        2962.75           1392        5910.00     25764.46
 1274.12        2963.00           1396        7664.00     33424.09
 1274.16        2963.25           1399        9058.00     39514.12
 1274.19        2963.50           1402       10432.00     45518.96
 1274.22        2963.75           1406       12159.00     53069.60
 1274.25        2964.00           1409       13811.00     60295.55
 1274.28        2964.25           1412       15214.00     66434.81
 1274.31        2964.50           1416       17025.00     74362.75
 1274.34        2964.75           1419       18513.00     80879.54
 1274.37        2965.00           1422       19929.00     87083.36
 1274.40        2965.25           1426       21907.00     95753.32
 1274.43        2965.50           1429       23273.00    101743.40
 1274.47        2965.75           1432       24747.00    108209.50
 1274.50        2966.00           1436       26628.00    116464.60
 1274.53        2966.25           1439       27890.00    122005.50
 1274.56        2966.50           1442       29077.00    127218.70
 1274.59        2966.75           1446       30293.00    132561.00
 1274.62        2967.00           1449       30335.00    132745.60
 1274.65        2967.25           1452       30450.00    133250.90
 1274.68        2967.50           1456       30336.00    132750.00
 1274.71        2967.75           1459       30380.00    132943.30
 1274.75        2968.00           1462       30187.00    132095.30
 1274.78        2968.25           1466       28858.00    126256.80
 1274.81        2968.50           1469       27706.00    121197.50
 1274.84        2968.75           1472       26382.00    115384.80
 1274.87        2969.00           1476       24615.00    107630.30
 1274.90        2969.25           1479       23223.00    101524.10
 1274.93        2969.50           1482       21831.00     95420.11
 1274.96        2969.75           1486       19969.00     87258.65
 1274.99        2970.00           1489       18616.00     81330.73
 1275.03        2970.25           1492       17204.00     75146.56
 1275.06        2970.50           1496       15413.00     67305.78
 1275.09        2970.75           1499       13994.00     61096.19
 1275.12        2971.00           1502       12599.00     54993.89
 1275.15        2971.25           1506       10626.00     46366.98
 1275.18        2971.50           1509        9097.00     39684.54
 1275.21        2971.75           1513        7362.00     32105.01
 1275.24        2972.00           1516        5910.00     25764.46
 1275.28        2972.25           1519        4592.00     20011.14
 1275.31        2972.50           1523        2729.00     11882.18
 1275.34        2972.75           1526        1478.00      6425.82
 1275.37        2973.00           1529         631.00      2732.57
 1275.40        2973.25           1533         377.00      1625.19
 1275.43        2973.50           1536         294.00      1263.34
 1275.46        2973.75           1539         245.00      1049.73
 1275.49        2974.00           1543         192.00       818.68
 1275.52        2974.25           1546         153.00       648.66
 1275.55        2974.50           1549         113.00       474.29
 1275.59        2974.75           1553          86.00       356.59
 1275.62        2975.00           1556          70.00       286.84
 1275.65        2975.25           1559          66.00       269.40
 1275.68        2975.50           1563          61.00       247.60
 1275.71        2975.75           1566          53.00       212.73
 1275.74        2976.00           1569          62.00       251.96
 1275.77        2976.25           1573          56.00       225.81
 1275.80        2976.50           1576          52.00       208.37
 1275.83        2976.75           1579          55.00       221.45
 1275.86        2977.00           1583          50.00       199.65
 1275.89        2977.25           1586          44.00       173.50
 1275.93        2977.50           1590          48.00       190.93
 1275.96        2977.75           1593          50.00       199.65
 1275.99        2978.00           1596          51.00       204.01
 1276.02        2978.25           1600          48.00       190.93
 1276.05        2978.50           1603          55.00       221.45
 1276.08        2978.75           1606          50.00       199.65
 1276.11        2979.00           1610          55.00       221.45
 1276.14        2979.25           1613          48.00       190.93
 1276.17        2979.50           1616          51.00       204.01
 1276.20        2979.75           1620          54.00       217.09
 1276.23        2980.00           1623          51.00       204.01
 1276.26        2980.25           1626          51.00       204.01
 1276.30        2980.50           1630          47.00       186.57
 1276.33        2980.75           1633          50.00       199.65
 1276.36        2981.00           1637          51.00       204.01
 1276.39        2981.25           1640          46.00       182.22
 1276.42        2981.50           1643          52.00       208.37
 1276.45        2981.75           1647          49.00       195.29
 1276.48        2982.00           1650          44.00       173.50
 1276.51        2982.25           1653          41.00       160.42
 1276.54        2982.50           1657          51.00       204.01
 1276.57        2982.75           1660          49.00       195.29
 1276.60        2983.00           1663          54.00       217.09
 1276.64        2983.25           1667          45.00       177.86
 1276.67        2983.50           1670          46.00       182.22
 1276.70        2983.75           1673          48.00       190.93
 1276.73        2984.00           1677          47.00       186.57
HS scan finished at 21:16:57
end
