************************************************************
  HS Scan of (1) Internal mercury lamp
************************************************************
Integration time is 0.2294 seconds per sample
dh270718Manchester 53.47 2.23 3.179721pr1000
************************************************************
Dead Time -------------------------  3E-08 
Number of Cycles Used -------------  4 
Starting Wavelength (Angstroms) ---  2950 
Final Wavelength (Angstoms) -------  2984 
Wavelength Increment (Angstroms) --  .25 
Filter Wheel #1 Position ---------- (1) Ground quartz diffuser (ND=2.32)
Filter Wheel #2 Position ---------- (1) Neutral Density 0.494



************************************************************
HS scan start time = 21:12:06
Dark Count =  6.2 


Time (GMT)  Wavelength (Ang)  Step Number  Raw Counts  Counts/Second

 1272.47        2950.00           1222          50.00       190.93
 1272.53        2950.25           1226          55.00       212.73
 1272.56        2950.50           1229          54.00       208.37
 1272.60        2950.75           1232          57.00       221.45
 1272.63        2951.00           1236          61.00       238.89
 1272.66        2951.25           1239          49.00       186.57
 1272.69        2951.50           1242          52.00       199.65
 1272.72        2951.75           1246          55.00       212.73
 1272.75        2952.00           1249          51.00       195.29
 1272.78        2952.25           1252          55.00       212.73
 1272.81        2952.50           1256          45.00       169.14
 1272.84        2952.75           1259          60.00       234.53
 1272.88        2953.00           1262          52.00       199.65
 1272.91        2953.25           1266          60.00       234.53
 1272.94        2953.50           1269          51.00       195.29
 1272.97        2953.75           1272          48.00       182.22
 1273.00        2954.00           1276          54.00       208.37
 1273.03        2954.25           1279          50.00       190.93
 1273.06        2954.50           1282          53.00       204.01
 1273.09        2954.75           1286          48.00       182.22
 1273.12        2955.00           1289          57.00       221.45
 1273.15        2955.25           1292          51.00       195.29
 1273.19        2955.50           1296          56.00       217.09
 1273.22        2955.75           1299          54.00       208.37
 1273.25        2956.00           1302          48.00       182.22
 1273.28        2956.25           1306          49.00       186.57
 1273.31        2956.50           1309          57.00       221.45
 1273.34        2956.75           1312          50.00       190.93
 1273.37        2957.00           1316          58.00       225.81
 1273.40        2957.25           1319          56.00       217.09
 1273.44        2957.50           1322          57.00       221.45
 1273.47        2957.75           1326          49.00       186.57
 1273.50        2958.00           1329          51.00       195.29
 1273.53        2958.25           1332          55.00       212.73
 1273.56        2958.50           1336          52.00       199.65
 1273.59        2958.75           1339          45.00       169.14
 1273.62        2959.00           1342          53.00       204.01
 1273.66        2959.25           1346          54.00       208.37
 1273.69        2959.50           1349          65.00       256.32
 1273.72        2959.75           1352          78.00       312.99
 1273.75        2960.00           1356         114.00       469.93
 1273.78        2960.25           1359         142.00       591.99
 1273.81        2960.50           1362         191.00       805.60
 1273.84        2960.75           1366         241.00      1023.57
 1273.87        2961.00           1369         291.00      1241.55
 1273.90        2961.25           1372         336.00      1437.73
 1273.93        2961.50           1376         393.00      1686.22
 1273.96        2961.75           1379         604.00      2606.13
 1274.00        2962.00           1382        1486.00      6451.99
 1274.03        2962.25           1386        3360.00     14626.30
 1274.06        2962.50           1389        5029.00     21909.78
 1274.09        2962.75           1392        6562.00     28602.56
 1274.12        2963.00           1396        8779.00     38286.33
 1274.15        2963.25           1399       10307.00     44963.84
 1274.18        2963.50           1402       11826.00     51604.68
 1274.21        2963.75           1406       14095.00     61529.34
 1274.24        2964.00           1409       15562.00     67949.18
 1274.28        2964.25           1412       17155.00     74923.23
 1274.31        2964.50           1416       19415.00     84822.37
 1274.34        2964.75           1419       21065.00     92053.34
 1274.37        2965.00           1422       22789.00     99611.98
 1274.40        2965.25           1426       25153.00    109982.20
 1274.43        2965.50           1429       26637.00    116495.40
 1274.46        2965.75           1432       28272.00    123674.20
 1274.49        2966.00           1436       30623.00    134002.30
 1274.52        2966.25           1439       31822.00    139272.10
 1274.55        2966.50           1442       33324.00    145875.90
 1274.59        2966.75           1446       34825.00    152477.90
 1274.62        2967.00           1449       34775.00    152258.00
 1274.65        2967.25           1452       34885.00    152741.90
 1274.68        2967.50           1456       34861.00    152636.30
 1274.71        2967.75           1459       34760.00    152192.00
 1274.74        2968.00           1462       34525.00    151158.20
 1274.77        2968.25           1466       33131.00    145027.20
 1274.80        2968.50           1469       31752.00    138964.40
 1274.83        2968.75           1472       30161.00    131972.20
 1274.87        2969.00           1476       28204.00    123375.60
 1274.90        2969.25           1479       26568.00    116192.50
 1274.93        2969.50           1482       25034.00    109460.00
 1274.96        2969.75           1486       22910.00    100142.60
 1274.99        2970.00           1489       21424.00     93627.05
 1275.02        2970.25           1492       19885.00     86881.79
 1275.05        2970.50           1496       17672.00     77187.25
 1275.09        2970.75           1499       16072.00     70181.60
 1275.12        2971.00           1502       14398.00     62855.12
 1275.15        2971.25           1506       12263.00     53515.67
 1275.18        2971.50           1509       10523.00     45908.00
 1275.21        2971.75           1513        8511.00     37115.41
 1275.24        2972.00           1516        6863.00     29916.99
 1275.27        2972.25           1519        5244.00     22848.26
 1275.30        2972.50           1523        3135.00     13644.64
 1275.33        2972.75           1526        1650.00      7167.19
 1275.37        2973.00           1529         688.00      2972.37
 1275.40        2973.25           1533         390.00      1673.14
 1275.43        2973.50           1536         314.00      1341.82
 1275.46        2973.75           1539         274.00      1167.43
 1275.49        2974.00           1543         205.00       866.63
 1275.52        2974.25           1546         163.00       683.54
 1275.55        2974.50           1549         124.00       513.52
 1275.58        2974.75           1553          79.00       317.35
 1275.61        2975.00           1556          69.00       273.76
 1275.64        2975.25           1559          66.00       260.68
 1275.67        2975.50           1563          46.00       173.50
 1275.70        2975.75           1566          57.00       221.45
 1275.74        2976.00           1569          50.00       190.93
 1275.77        2976.25           1573          44.00       164.78
 1275.80        2976.50           1576          56.00       217.09
 1275.83        2976.75           1579          53.00       204.01
 1275.86        2977.00           1583          52.00       199.65
 1275.89        2977.25           1586          50.00       190.93
 1275.92        2977.50           1590          52.00       199.65
 1275.95        2977.75           1593          54.00       208.37
 1275.98        2978.00           1596          53.00       204.01
 1276.01        2978.25           1600          53.00       204.01
 1276.05        2978.50           1603          51.00       195.29
 1276.08        2978.75           1606          52.00       199.65
 1276.11        2979.00           1610          47.00       177.86
 1276.14        2979.25           1613          50.00       190.93
 1276.17        2979.50           1616          50.00       190.93
 1276.20        2979.75           1620          47.00       177.86
 1276.23        2980.00           1623          49.00       186.57
 1276.26        2980.25           1626          47.00       177.86
 1276.29        2980.50           1630          52.00       199.65
 1276.32        2980.75           1633          52.00       199.65
 1276.35        2981.00           1637          52.00       199.65
 1276.38        2981.25           1640          49.00       186.57
 1276.41        2981.50           1643          46.00       173.50
 1276.45        2981.75           1647          53.00       204.01
 1276.48        2982.00           1650          52.00       199.65
 1276.51        2982.25           1653          56.00       217.09
 1276.54        2982.50           1657          50.00       190.93
 1276.57        2982.75           1660          49.00       186.57
 1276.60        2983.00           1663          51.00       195.29
 1276.63        2983.25           1667          50.00       190.93
 1276.66        2983.50           1670          49.00       186.57
 1276.69        2983.75           1673          51.00       195.29
 1276.72        2984.00           1677          47.00       177.86
HS scan finished at 21:16:56
end
