************************************************************
  HS Scan of (1) Internal mercury lamp
************************************************************
Integration time is 0.2294 seconds per sample
dh290717Manchester 53.47 2.23 2.857833pr1000
************************************************************
Dead Time -------------------------  3E-08 
Number of Cycles Used -------------  4 
Starting Wavelength (Angstroms) ---  2950 
Final Wavelength (Angstoms) -------  2984 
Wavelength Increment (Angstroms) --  .25 
Filter Wheel #1 Position ---------- (1) Ground quartz diffuser (ND=2.32)
Filter Wheel #2 Position ---------- (1) Neutral Density 0.494



************************************************************
HS scan start time = 01:32:14
Dark Count =  4.9 


Time (GMT)  Wavelength (Ang)  Step Number  Raw Counts  Counts/Second

   92.60        2950.00           1222          99.00       410.21
   92.66        2950.25           1226          85.00       349.18
   92.70        2950.50           1229         104.00       432.00
   92.73        2950.75           1232          89.00       366.61
   92.76        2951.00           1236         103.00       427.64
   92.79        2951.25           1239         105.00       436.36
   92.82        2951.50           1242          86.00       353.53
   92.85        2951.75           1246          87.00       357.89
   92.88        2952.00           1249          89.00       366.61
   92.91        2952.25           1252          89.00       366.61
   92.94        2952.50           1256          98.00       405.85
   92.97        2952.75           1259          88.00       362.25
   93.00        2953.00           1262          97.00       401.49
   93.04        2953.25           1266          92.00       379.69
   93.07        2953.50           1269          96.00       397.13
   93.10        2953.75           1272          90.00       370.97
   93.13        2954.00           1276          93.00       384.05
   93.16        2954.25           1279          94.00       388.41
   93.19        2954.50           1282          98.00       405.85
   93.22        2954.75           1286          91.00       375.33
   93.25        2955.00           1289          95.00       392.77
   93.28        2955.25           1292          95.00       392.77
   93.31        2955.50           1296          95.00       392.77
   93.34        2955.75           1299          95.00       392.77
   93.37        2956.00           1302          99.00       410.21
   93.41        2956.25           1306         102.00       423.28
   93.44        2956.50           1309          99.00       410.21
   93.47        2956.75           1312          95.00       392.77
   93.50        2957.00           1316          93.00       384.05
   93.53        2957.25           1319          96.00       397.13
   93.56        2957.50           1322          88.00       362.25
   93.59        2957.75           1326          97.00       401.49
   93.62        2958.00           1329          91.00       375.33
   93.65        2958.25           1332          93.00       384.05
   93.68        2958.50           1336          88.00       362.25
   93.71        2958.75           1339          93.00       384.05
   93.74        2959.00           1342         108.00       449.44
   93.77        2959.25           1346          98.00       405.85
   93.80        2959.50           1349          91.00       375.33
   93.84        2959.75           1352         112.00       466.88
   93.87        2960.00           1356         141.00       593.30
   93.90        2960.25           1359         160.00       676.13
   93.93        2960.50           1362         203.00       863.58
   93.96        2960.75           1366         282.00      1207.98
   93.99        2961.00           1369         326.00      1399.80
   94.02        2961.25           1372         372.00      1600.34
   94.05        2961.50           1376         437.00      1883.72
   94.08        2961.75           1379         559.00      2415.61
   94.11        2962.00           1382        1135.00      4927.06
   94.14        2962.25           1386        2963.00     12899.94
   94.17        2962.50           1389        4453.00     19401.44
   94.20        2962.75           1392        5986.00     26093.22
   94.24        2963.00           1396        8030.00     35019.77
   94.27        2963.25           1399        9583.00     41805.23
   94.30        2963.50           1402       11366.00     49599.03
   94.33        2963.75           1406       13763.00     60082.48
   94.36        2964.00           1409       15407.00     67276.46
   94.39        2964.25           1412       17313.00     75620.79
   94.42        2964.50           1416       19717.00     86151.32
   94.45        2964.75           1419       21390.00     93483.69
   94.48        2965.00           1422       23273.00    101740.30
   94.52        2965.25           1426       25464.00    111352.60
   94.55        2965.50           1429       27419.00    119934.30
   94.58        2965.75           1432       28851.00    126222.90
   94.61        2966.00           1436       31181.00    136460.30
   94.64        2966.25           1439       32650.00    142917.90
   94.67        2966.50           1442       34245.00    149932.30
   94.70        2966.75           1446       36094.00    158067.30
   94.73        2967.00           1449       36592.00    160259.10
   94.76        2967.25           1452       36736.00    160892.90
   94.79        2967.50           1456       36662.00    160567.20
   94.83        2967.75           1459       36501.00    159858.50
   94.86        2968.00           1462       36587.00    160237.10
   94.89        2968.25           1466       35545.00    155651.50
   94.92        2968.50           1469       34209.00    149773.90
   94.95        2968.75           1472       32644.00    142891.50
   94.98        2969.00           1476       30722.00    134443.10
   95.01        2969.25           1479       28964.00    126719.30
   95.04        2969.50           1482       27237.00    119135.20
   95.07        2969.75           1486       25076.00    109650.00
   95.11        2970.00           1489       23396.00    102279.80
   95.14        2970.25           1492       21715.00     94908.48
   95.17        2970.50           1496       19568.00     85498.44
   95.20        2970.75           1499       17852.00     77981.27
   95.23        2971.00           1502       16053.00     70104.13
   95.26        2971.25           1506       13605.00     59391.26
   95.29        2971.50           1509       11967.00     52226.93
   95.32        2971.75           1513        9884.00     43120.70
   95.35        2972.00           1516        8274.00     36085.69
   95.39        2972.25           1519        6610.00     28817.84
   95.42        2972.50           1523        4515.00     19672.03
   95.45        2972.75           1526        2992.00     13026.45
   95.48        2973.00           1529        1520.00      6605.93
   95.51        2973.25           1533         561.00      2424.33
   95.54        2973.50           1536         395.00      1700.61
   95.57        2973.75           1539         334.00      1434.67
   95.60        2974.00           1543         283.00      1212.34
   95.63        2974.25           1546         211.00       898.45
   95.66        2974.50           1549         169.00       715.36
   95.70        2974.75           1553         125.00       523.55
   95.73        2975.00           1556         111.00       462.52
   95.76        2975.25           1559         100.00       414.56
   95.79        2975.50           1563          83.00       340.46
   95.82        2975.75           1566          95.00       392.77
   95.85        2976.00           1569          83.00       340.46
   95.88        2976.25           1573          87.00       357.89
   95.91        2976.50           1576         102.00       423.28
   95.94        2976.75           1579          91.00       375.33
   95.97        2977.00           1583          84.00       344.82
   96.00        2977.25           1586          89.00       366.61
   96.03        2977.50           1590          85.00       349.18
   96.06        2977.75           1593          91.00       375.33
   96.10        2978.00           1596          94.00       388.41
   96.13        2978.25           1600          80.00       327.38
   96.16        2978.50           1603          78.00       318.66
   96.19        2978.75           1606          81.00       331.74
   96.22        2979.00           1610          79.00       323.02
   96.25        2979.25           1613          84.00       344.82
   96.28        2979.50           1616          85.00       349.18
   96.31        2979.75           1620          82.00       336.10
   96.34        2980.00           1623          86.00       353.53
   96.37        2980.25           1626          85.00       349.18
   96.41        2980.50           1630          83.00       340.46
   96.44        2980.75           1633          84.00       344.82
   96.47        2981.00           1637          78.00       318.66
   96.50        2981.25           1640          80.00       327.38
   96.53        2981.50           1643          77.00       314.30
   96.56        2981.75           1647          78.00       318.66
   96.59        2982.00           1650          78.00       318.66
   96.62        2982.25           1653          83.00       340.46
   96.65        2982.50           1657          90.00       370.97
   96.68        2982.75           1660          84.00       344.82
   96.71        2983.00           1663          78.00       318.66
   96.74        2983.25           1667          81.00       331.74
   96.77        2983.50           1670          69.00       279.43
   96.80        2983.75           1673          83.00       340.46
   96.83        2984.00           1677          79.00       323.02
HS scan finished at 01:37:03
end
************************************************************
  HS Scan of (1) Internal mercury lamp
************************************************************
Integration time is 0.2294 seconds per sample
dh290717Manchester 53.47 2.23 2.911481pr1000
************************************************************
Dead Time -------------------------  3E-08 
Number of Cycles Used -------------  4 
Starting Wavelength (Angstroms) ---  2950 
Final Wavelength (Angstoms) -------  2984 
Wavelength Increment (Angstroms) --  .25 
Filter Wheel #1 Position ---------- (1) Ground quartz diffuser (ND=2.32)
Filter Wheel #2 Position ---------- (1) Neutral Density 0.494



************************************************************
HS scan start time = 21:12:04
Dark Count =  8.100001 


Time (GMT)  Wavelength (Ang)  Step Number  Raw Counts  Counts/Second

 1272.43        2950.00           1222         101.00       404.97
 1272.50        2950.25           1226          92.00       365.74
 1272.53        2950.50           1229          98.00       391.90
 1272.56        2950.75           1232          94.00       374.46
 1272.59        2951.00           1236          93.00       370.10
 1272.62        2951.25           1239          92.00       365.74
 1272.66        2951.50           1242          97.00       387.54
 1272.69        2951.75           1246          95.00       378.82
 1272.72        2952.00           1249          94.00       374.46
 1272.75        2952.25           1252          96.00       383.18
 1272.78        2952.50           1256         103.00       413.69
 1272.81        2952.75           1259          98.00       391.90
 1272.84        2953.00           1262          99.00       396.26
 1272.87        2953.25           1266          92.00       365.74
 1272.90        2953.50           1269         102.00       409.33
 1272.93        2953.75           1272          98.00       391.90
 1272.96        2954.00           1276          81.00       317.79
 1272.99        2954.25           1279          95.00       378.82
 1273.02        2954.50           1282          94.00       374.46
 1273.05        2954.75           1286          88.00       348.30
 1273.08        2955.00           1289          95.00       378.82
 1273.12        2955.25           1292          86.00       339.59
 1273.15        2955.50           1296          90.00       357.02
 1273.18        2955.75           1299          99.00       396.26
 1273.21        2956.00           1302          92.00       365.74
 1273.24        2956.25           1306         100.00       400.62
 1273.27        2956.50           1309          92.00       365.74
 1273.30        2956.75           1312          96.00       383.18
 1273.33        2957.00           1316          94.00       374.46
 1273.36        2957.25           1319          88.00       348.30
 1273.39        2957.50           1322          87.00       343.94
 1273.43        2957.75           1326          86.00       339.59
 1273.46        2958.00           1329          95.00       378.82
 1273.49        2958.25           1332          81.00       317.79
 1273.52        2958.50           1336          93.00       370.10
 1273.55        2958.75           1339          91.00       361.38
 1273.58        2959.00           1342         100.00       400.62
 1273.61        2959.25           1346         107.00       431.13
 1273.64        2959.50           1349         110.00       444.21
 1273.67        2959.75           1352         131.00       535.75
 1273.70        2960.00           1356         150.00       618.58
 1273.73        2960.25           1359         194.00       810.39
 1273.76        2960.50           1362         215.00       901.94
 1273.79        2960.75           1366         279.00      1180.95
 1273.82        2961.00           1369         338.00      1438.16
 1273.85        2961.25           1372         361.00      1538.43
 1273.89        2961.50           1376         483.00      2070.31
 1273.92        2961.75           1379         672.00      2894.32
 1273.95        2962.00           1382        1472.00      6382.65
 1273.98        2962.25           1386        3569.00     15529.90
 1274.01        2962.50           1389        5297.00     23071.33
 1274.04        2962.75           1392        6937.00     30231.86
 1274.07        2963.00           1396        9302.00     40563.28
 1274.10        2963.25           1399       10864.00     47390.35
 1274.13        2963.50           1402       12530.00     54675.06
 1274.16        2963.75           1406       14953.00     65275.48
 1274.20        2964.00           1409       16670.00     72791.31
 1274.23        2964.25           1412       18354.00     80165.99
 1274.26        2964.50           1416       20787.00     90826.49
 1274.29        2964.75           1419       22344.00     97652.27
 1274.32        2965.00           1422       24205.00    105814.40
 1274.35        2965.25           1426       26751.00    116987.50
 1274.38        2965.50           1429       28552.00    124895.60
 1274.41        2965.75           1432       30337.00    132737.20
 1274.44        2966.00           1436       32643.00    142873.10
 1274.48        2966.25           1439       34191.00    149680.60
 1274.51        2966.50           1442       35873.00    157080.70
 1274.54        2966.75           1446       37413.00    163858.90
 1274.57        2967.00           1449       37770.00    165430.60
 1274.60        2967.25           1452       37795.00    165540.60
 1274.63        2967.50           1456       37740.00    165298.50
 1274.66        2967.75           1459       37925.00    166113.00
 1274.69        2968.00           1462       37563.00    164519.20
 1274.72        2968.25           1466       36388.00    159347.10
 1274.76        2968.50           1469       34937.00    152962.30
 1274.79        2968.75           1472       33263.00    145599.30
 1274.82        2969.00           1476       30914.00    135272.80
 1274.85        2969.25           1479       29235.00    127895.60
 1274.88        2969.50           1482       27366.00    119687.50
 1274.91        2969.75           1486       25169.00    110044.00
 1274.94        2970.00           1489       23377.00    102182.40
 1274.97        2970.25           1492       21882.00     95626.61
 1275.00        2970.50           1496       19597.00     85611.50
 1275.03        2970.75           1499       17824.00     77844.62
 1275.07        2971.00           1502       15959.00     69678.65
 1275.10        2971.25           1506       13694.00     59766.62
 1275.13        2971.50           1509       11942.00     52103.62
 1275.16        2971.75           1513        9507.00     41459.12
 1275.19        2972.00           1516        7755.00     33804.54
 1275.22        2972.25           1519        6019.00     26223.33
 1275.25        2972.50           1523        3845.00     16734.21
 1275.28        2972.75           1526        2268.00      9854.26
 1275.31        2973.00           1529        1019.00      4407.30
 1275.35        2973.25           1533         470.00      2013.64
 1275.38        2973.50           1536         370.00      1577.67
 1275.41        2973.75           1539         323.00      1372.77
 1275.44        2974.00           1543         271.00      1146.07
 1275.47        2974.25           1546         197.00       823.47
 1275.50        2974.50           1549         157.00       649.10
 1275.53        2974.75           1553         114.00       461.65
 1275.56        2975.00           1556          97.00       387.54
 1275.59        2975.25           1559          88.00       348.30
 1275.62        2975.50           1563          86.00       339.59
 1275.65        2975.75           1566          96.00       383.18
 1275.68        2976.00           1569          89.00       352.66
 1275.72        2976.25           1573          84.00       330.87
 1275.75        2976.50           1576          83.00       326.51
 1275.78        2976.75           1579          83.00       326.51
 1275.81        2977.00           1583          78.00       304.71
 1275.84        2977.25           1586          84.00       330.87
 1275.87        2977.50           1590          91.00       361.38
 1275.90        2977.75           1593          80.00       313.43
 1275.93        2978.00           1596          88.00       348.30
 1275.96        2978.25           1600          82.00       322.15
 1275.99        2978.50           1603          83.00       326.51
 1276.02        2978.75           1606          84.00       330.87
 1276.05        2979.00           1610          91.00       361.38
 1276.08        2979.25           1613          92.00       365.74
 1276.11        2979.50           1616          91.00       361.38
 1276.14        2979.75           1620          88.00       348.30
 1276.17        2980.00           1623          88.00       348.30
 1276.21        2980.25           1626          86.00       339.59
 1276.24        2980.50           1630          88.00       348.30
 1276.27        2980.75           1633          80.00       313.43
 1276.30        2981.00           1637          83.00       326.51
 1276.33        2981.25           1640          90.00       357.02
 1276.36        2981.50           1643          85.00       335.23
 1276.39        2981.75           1647          87.00       343.94
 1276.42        2982.00           1650          81.00       317.79
 1276.45        2982.25           1653          74.00       287.27
 1276.48        2982.50           1657          77.00       300.35
 1276.51        2982.75           1660          88.00       348.30
 1276.54        2983.00           1663          90.00       357.02
 1276.57        2983.25           1667          86.00       339.59
 1276.60        2983.50           1670          84.00       330.87
 1276.64        2983.75           1673          87.00       343.94
 1276.67        2984.00           1677          79.00       309.07
HS scan finished at 21:16:53
end
