************************************************************
  HS Scan of (1) Internal mercury lamp
************************************************************
Integration time is 0.2294 seconds per sample
dh010818Manchester 53.47 2.23 2.911481pr1000
************************************************************
Dead Time -------------------------  3E-08 
Number of Cycles Used -------------  4 
Starting Wavelength (Angstroms) ---  2950 
Final Wavelength (Angstoms) -------  2984 
Wavelength Increment (Angstroms) --  .25 
Filter Wheel #1 Position ---------- (1) Ground quartz diffuser (ND=2.32)
Filter Wheel #2 Position ---------- (1) Neutral Density 0.494



************************************************************
HS scan start time = 01:43:33
Dark Count =  5.6 


Time (GMT)  Wavelength (Ang)  Step Number  Raw Counts  Counts/Second

  103.92        2950.00           1222          56.00       219.71
  103.98        2950.25           1226          53.00       206.63
  104.01        2950.50           1229          56.00       219.71
  104.05        2950.75           1232          54.00       210.99
  104.08        2951.00           1236          57.00       224.06
  104.11        2951.25           1239          51.00       197.91
  104.14        2951.50           1242          57.00       224.06
  104.17        2951.75           1246          47.00       180.47
  104.20        2952.00           1249          59.00       232.78
  104.23        2952.25           1252          51.00       197.91
  104.26        2952.50           1256          52.00       202.27
  104.29        2952.75           1259          53.00       206.63
  104.32        2953.00           1262          47.00       180.47
  104.35        2953.25           1266          53.00       206.63
  104.38        2953.50           1269          52.00       202.27
  104.42        2953.75           1272          53.00       206.63
  104.45        2954.00           1276          62.00       245.86
  104.48        2954.25           1279          51.00       197.91
  104.51        2954.50           1282          49.00       189.19
  104.54        2954.75           1286          58.00       228.42
  104.57        2955.00           1289          51.00       197.91
  104.60        2955.25           1292          50.00       193.55
  104.63        2955.50           1296          57.00       224.06
  104.66        2955.75           1299          53.00       206.63
  104.69        2956.00           1302          55.00       215.35
  104.72        2956.25           1306          66.00       263.30
  104.76        2956.50           1309          60.00       237.14
  104.79        2956.75           1312          49.00       189.19
  104.82        2957.00           1316          51.00       197.91
  104.85        2957.25           1319          50.00       193.55
  104.88        2957.50           1322          56.00       219.71
  104.91        2957.75           1326          59.00       232.78
  104.94        2958.00           1329          51.00       197.91
  104.97        2958.25           1332          51.00       197.91
  105.00        2958.50           1336          54.00       210.99
  105.03        2958.75           1339          50.00       193.55
  105.06        2959.00           1342          51.00       197.91
  105.09        2959.25           1346          55.00       215.35
  105.13        2959.50           1349          73.00       293.81
  105.16        2959.75           1352          93.00       381.00
  105.19        2960.00           1356         105.00       433.31
  105.22        2960.25           1359         144.00       603.32
  105.25        2960.50           1362         187.00       790.78
  105.28        2960.75           1366         228.00       969.51
  105.31        2961.00           1369         280.00      1196.21
  105.34        2961.25           1372         308.00      1318.27
  105.37        2961.50           1376         404.00      1736.79
  105.40        2961.75           1379         696.00      3009.86
  105.43        2962.00           1382        1605.00      6973.56
  105.46        2962.25           1386        3405.00     14825.25
  105.50        2962.50           1389        4742.00     20659.71
  105.53        2962.75           1392        6167.00     26880.43
  105.56        2963.00           1396        7918.00     34527.47
  105.59        2963.25           1399        9208.00     40163.45
  105.62        2963.50           1402       10632.00     46387.09
  105.65        2963.75           1406       12439.00     54288.00
  105.68        2964.00           1409       13782.00     60162.55
  105.71        2964.25           1412       15359.00     67063.31
  105.74        2964.50           1416       17203.00     75136.05
  105.77        2964.75           1419       18583.00     81180.04
  105.80        2965.00           1422       20199.00     88260.42
  105.84        2965.25           1426       22117.00     96667.91
  105.87        2965.50           1429       23503.00    102746.00
  105.90        2965.75           1432       24897.00    108861.50
  105.93        2966.00           1436       26810.00    117257.50
  105.96        2966.25           1439       27799.00    121599.70
  105.99        2966.50           1442       28977.00    126773.30
  106.02        2966.75           1446       30102.00    131715.60
  106.05        2967.00           1449       30230.00    132278.00
  106.09        2967.25           1452       30338.00    132752.60
  106.12        2967.50           1456       30341.00    132765.80
  106.15        2967.75           1459       30177.00    132045.20
  106.18        2968.00           1462       29896.00    130810.50
  106.21        2968.25           1466       28605.00    125139.40
  106.24        2968.50           1469       27222.00    119066.20
  106.27        2968.75           1472       25990.00    113658.00
  106.30        2969.00           1476       24236.00    105961.40
  106.33        2969.25           1479       22846.00     99864.56
  106.36        2969.50           1482       21421.00     93616.52
  106.40        2969.75           1486       19694.00     86047.48
  106.43        2970.00           1489       18167.00     79357.85
  106.46        2970.25           1492       16916.00     73879.35
  106.49        2970.50           1496       15069.00     65794.08
  106.52        2970.75           1499       13565.00     59213.21
  106.55        2971.00           1502       12180.00     53155.32
  106.58        2971.25           1506       10358.00     45189.39
  106.61        2971.50           1509        8964.00     39097.27
  106.64        2971.75           1513        7041.00     30696.96
  106.68        2972.00           1516        5521.00     24060.08
  106.71        2972.25           1519        4197.00     18281.17
  106.74        2972.50           1523        2432.00     10580.52
  106.77        2972.75           1526        1290.00      5599.89
  106.80        2973.00           1529         564.00      2434.35
  106.83        2973.25           1533         340.00      1457.78
  106.86        2973.50           1536         273.00      1165.69
  106.89        2973.75           1539         239.00      1017.47
  106.92        2974.00           1543         196.00       830.01
  106.96        2974.25           1546         147.00       616.40
  106.99        2974.50           1549         114.00       472.54
  107.02        2974.75           1553          84.00       341.76
  107.05        2975.00           1556          69.00       276.38
  107.08        2975.25           1559          66.00       263.30
  107.11        2975.50           1563          58.00       228.42
  107.14        2975.75           1566          44.00       167.39
  107.17        2976.00           1569          55.00       215.35
  107.20        2976.25           1573          55.00       215.35
  107.24        2976.50           1576          49.00       189.19
  107.27        2976.75           1579          54.00       210.99
  107.30        2977.00           1583          47.00       180.47
  107.33        2977.25           1586          47.00       180.47
  107.36        2977.50           1590          52.00       202.27
  107.39        2977.75           1593          52.00       202.27
  107.42        2978.00           1596          56.00       219.71
  107.45        2978.25           1600          51.00       197.91
  107.48        2978.50           1603          45.00       171.75
  107.51        2978.75           1606          54.00       210.99
  107.54        2979.00           1610          55.00       215.35
  107.58        2979.25           1613          52.00       202.27
  107.61        2979.50           1616          51.00       197.91
  107.64        2979.75           1620          50.00       193.55
  107.67        2980.00           1623          53.00       206.63
  107.70        2980.25           1626          49.00       189.19
  107.73        2980.50           1630          47.00       180.47
  107.76        2980.75           1633          47.00       180.47
  107.79        2981.00           1637          50.00       193.55
  107.82        2981.25           1640          51.00       197.91
  107.85        2981.50           1643          51.00       197.91
  107.88        2981.75           1647          51.00       197.91
  107.91        2982.00           1650          49.00       189.19
  107.95        2982.25           1653          51.00       197.91
  107.98        2982.50           1657          45.00       171.75
  108.01        2982.75           1660          43.00       163.03
  108.04        2983.00           1663          50.00       193.55
  108.07        2983.25           1667          48.00       184.83
  108.10        2983.50           1670          49.00       189.19
  108.13        2983.75           1673          50.00       193.55
  108.16        2984.00           1677          49.00       189.19
HS scan finished at 01:48:23
end
************************************************************
  HS Scan of (1) Internal mercury lamp
************************************************************
Integration time is 0.2294 seconds per sample
dh010818Manchester 53.47 2.23 3.126073pr1000
************************************************************
Dead Time -------------------------  3E-08 
Number of Cycles Used -------------  4 
Starting Wavelength (Angstroms) ---  2950 
Final Wavelength (Angstoms) -------  2984 
Wavelength Increment (Angstroms) --  .25 
Filter Wheel #1 Position ---------- (1) Ground quartz diffuser (ND=2.32)
Filter Wheel #2 Position ---------- (1) Neutral Density 0.494



************************************************************
HS scan start time = 21:12:03
Dark Count =  5.2 


Time (GMT)  Wavelength (Ang)  Step Number  Raw Counts  Counts/Second

 1272.43        2950.00           1222          65.00       260.68
 1272.50        2950.25           1226          60.00       238.89
 1272.53        2950.50           1229          58.00       230.17
 1272.56        2950.75           1232          49.00       190.93
 1272.59        2951.00           1236          50.00       195.29
 1272.62        2951.25           1239          49.00       190.93
 1272.65        2951.50           1242          51.00       199.65
 1272.68        2951.75           1246          50.00       195.29
 1272.71        2952.00           1249          55.00       217.09
 1272.74        2952.25           1252          51.00       199.65
 1272.78        2952.50           1256          59.00       234.53
 1272.81        2952.75           1259          50.00       195.29
 1272.84        2953.00           1262          49.00       190.93
 1272.87        2953.25           1266          43.00       164.78
 1272.90        2953.50           1269          51.00       199.65
 1272.93        2953.75           1272          47.00       182.22
 1272.96        2954.00           1276          49.00       190.93
 1272.99        2954.25           1279          57.00       225.81
 1273.03        2954.50           1282          56.00       221.45
 1273.06        2954.75           1286          52.00       204.01
 1273.09        2955.00           1289          55.00       217.09
 1273.12        2955.25           1292          55.00       217.09
 1273.15        2955.50           1296          52.00       204.01
 1273.18        2955.75           1299          46.00       177.86
 1273.21        2956.00           1302          48.00       186.57
 1273.24        2956.25           1306          49.00       190.93
 1273.27        2956.50           1309          58.00       230.17
 1273.30        2956.75           1312          49.00       190.93
 1273.33        2957.00           1316          44.00       169.14
 1273.36        2957.25           1319          50.00       195.29
 1273.39        2957.50           1322          56.00       221.45
 1273.43        2957.75           1326          59.00       234.53
 1273.46        2958.00           1329          55.00       217.09
 1273.49        2958.25           1332          56.00       221.45
 1273.52        2958.50           1336          53.00       208.37
 1273.55        2958.75           1339          57.00       225.81
 1273.58        2959.00           1342          55.00       217.09
 1273.61        2959.25           1346          65.00       260.68
 1273.64        2959.50           1349          61.00       243.25
 1273.67        2959.75           1352          83.00       339.15
 1273.70        2960.00           1356         117.00       487.37
 1273.74        2960.25           1359         140.00       587.63
 1273.77        2960.50           1362         171.00       722.77
 1273.80        2960.75           1366         227.00       966.90
 1273.83        2961.00           1369         255.00      1088.96
 1273.86        2961.25           1372         314.00      1346.17
 1273.89        2961.50           1376         369.00      1585.95
 1273.92        2961.75           1379         527.00      2274.78
 1273.95        2962.00           1382        1109.00      4812.38
 1273.98        2962.25           1386        2715.00     11816.74
 1274.01        2962.50           1389        4198.00     18287.27
 1274.04        2962.75           1392        5638.00     24572.60
 1274.08        2963.00           1396        7525.00     32812.58
 1274.11        2963.25           1399        8977.00     39155.82
 1274.14        2963.50           1402       10500.00     45811.83
 1274.17        2963.75           1406       12742.00     55614.95
 1274.20        2964.00           1409       14323.00     62531.32
 1274.23        2964.25           1412       15836.00     69152.91
 1274.26        2964.50           1416       17906.00     78216.46
 1274.29        2964.75           1419       19561.00     85466.46
 1274.32        2965.00           1422       20927.00     91452.84
 1274.36        2965.25           1426       23077.00    100879.40
 1274.39        2965.50           1429       24488.00    107068.70
 1274.42        2965.75           1432       25727.00    112505.50
 1274.45        2966.00           1436       27989.00    122435.80
 1274.48        2966.25           1439       29236.00    127912.80
 1274.51        2966.50           1442       30654.00    134142.90
 1274.54        2966.75           1446       32217.00    141012.90
 1274.57        2967.00           1449       32797.00    143562.90
 1274.61        2967.25           1452       32525.00    142367.00
 1274.64        2967.50           1456       32580.00    142608.80
 1274.67        2967.75           1459       32547.00    142463.70
 1274.70        2968.00           1462       32413.00    141874.60
 1274.73        2968.25           1466       31565.00    138146.80
 1274.76        2968.50           1469       29968.00    131128.60
 1274.79        2968.75           1472       28601.00    125123.60
 1274.82        2969.00           1476       26762.00    117048.50
 1274.85        2969.25           1479       25334.00    110780.80
 1274.89        2969.50           1482       23799.00    104046.20
 1274.92        2969.75           1486       21887.00     95661.24
 1274.95        2970.00           1489       20358.00     88958.99
 1274.98        2970.25           1492       18992.00     82973.51
 1275.01        2970.50           1496       16872.00     73688.45
 1275.04        2970.75           1499       15461.00     67511.49
 1275.07        2971.00           1502       13877.00     60579.92
 1275.11        2971.25           1506       11927.00     52050.70
 1275.14        2971.50           1509       10300.00     44937.62
 1275.17        2971.75           1513        8593.00     37478.03
 1275.20        2972.00           1516        7055.00     30759.85
 1275.23        2972.25           1519        5424.00     23638.38
 1275.26        2972.50           1523        3474.00     15128.05
 1275.29        2972.75           1526        1967.00      8554.07
 1275.32        2973.00           1529         831.00      3600.21
 1275.35        2973.25           1533         372.00      1599.03
 1275.39        2973.50           1536         307.00      1315.66
 1275.42        2973.75           1539         279.00      1193.59
 1275.45        2974.00           1543         208.00       884.07
 1275.48        2974.25           1546         157.00       661.74
 1275.51        2974.50           1549         116.00       483.01
 1275.54        2974.75           1553          86.00       352.23
 1275.57        2975.00           1556          63.00       251.96
 1275.60        2975.25           1559          55.00       217.09
 1275.63        2975.50           1563          52.00       204.01
 1275.67        2975.75           1566          55.00       217.09
 1275.70        2976.00           1569          56.00       221.45
 1275.73        2976.25           1573          50.00       195.29
 1275.76        2976.50           1576          45.00       173.50
 1275.79        2976.75           1579          56.00       221.45
 1275.82        2977.00           1583          46.00       177.86
 1275.85        2977.25           1586          45.00       173.50
 1275.88        2977.50           1590          59.00       234.53
 1275.91        2977.75           1593          44.00       169.14
 1275.94        2978.00           1596          48.00       186.57
 1275.97        2978.25           1600          54.00       212.73
 1276.00        2978.50           1603          49.00       190.93
 1276.03        2978.75           1606          57.00       225.81
 1276.07        2979.00           1610          48.00       186.57
 1276.10        2979.25           1613          51.00       199.65
 1276.13        2979.50           1616          41.00       156.06
 1276.16        2979.75           1620          42.00       160.42
 1276.19        2980.00           1623          46.00       177.86
 1276.22        2980.25           1626          45.00       173.50
 1276.25        2980.50           1630          44.00       169.14
 1276.28        2980.75           1633          50.00       195.29
 1276.31        2981.00           1637          43.00       164.78
 1276.34        2981.25           1640          53.00       208.37
 1276.37        2981.50           1643          46.00       177.86
 1276.40        2981.75           1647          52.00       204.01
 1276.43        2982.00           1650          56.00       221.45
 1276.46        2982.25           1653          48.00       186.57
 1276.50        2982.50           1657          49.00       190.93
 1276.53        2982.75           1660          44.00       169.14
 1276.56        2983.00           1663          48.00       186.57
 1276.59        2983.25           1667          47.00       182.22
 1276.62        2983.50           1670          47.00       182.22
 1276.65        2983.75           1673          46.00       177.86
 1276.68        2984.00           1677          47.00       182.22
HS scan finished at 21:16:54
end
