************************************************************
  HS Scan of (1) Internal mercury lamp
************************************************************
Integration time is 0.2294 seconds per sample
dh030818Manchester 53.47 2.23 3.126073pr1000
************************************************************
Dead Time -------------------------  3E-08 
Number of Cycles Used -------------  4 
Starting Wavelength (Angstroms) ---  2950 
Final Wavelength (Angstoms) -------  2984 
Wavelength Increment (Angstroms) --  .25 
Filter Wheel #1 Position ---------- (1) Ground quartz diffuser (ND=2.32)
Filter Wheel #2 Position ---------- (1) Neutral Density 0.494



************************************************************
HS scan start time = 01:39:16
Dark Count =  6.6 


Time (GMT)  Wavelength (Ang)  Step Number  Raw Counts  Counts/Second

   99.63        2950.00           1222          44.00       163.03
   99.70        2950.25           1226          53.00       202.27
   99.73        2950.50           1229          54.00       206.63
   99.76        2950.75           1232          47.00       176.11
   99.79        2951.00           1236          57.00       219.71
   99.82        2951.25           1239          50.00       189.19
   99.85        2951.50           1242          46.00       171.75
   99.88        2951.75           1246          49.00       184.83
   99.91        2952.00           1249          48.00       180.47
   99.95        2952.25           1252          54.00       206.63
   99.98        2952.50           1256          53.00       202.27
  100.01        2952.75           1259          54.00       206.63
  100.04        2953.00           1262          49.00       184.83
  100.07        2953.25           1266          54.00       206.63
  100.10        2953.50           1269          52.00       197.91
  100.13        2953.75           1272          60.00       232.78
  100.16        2954.00           1276          48.00       180.47
  100.19        2954.25           1279          46.00       171.75
  100.22        2954.50           1282          51.00       193.55
  100.25        2954.75           1286          45.00       167.39
  100.29        2955.00           1289          53.00       202.27
  100.32        2955.25           1292          52.00       197.91
  100.35        2955.50           1296          53.00       202.27
  100.38        2955.75           1299          48.00       180.47
  100.41        2956.00           1302          56.00       215.35
  100.44        2956.25           1306          56.00       215.35
  100.47        2956.50           1309          58.00       224.06
  100.50        2956.75           1312          44.00       163.03
  100.53        2957.00           1316          48.00       180.47
  100.56        2957.25           1319          58.00       224.06
  100.59        2957.50           1322          55.00       210.99
  100.63        2957.75           1326          51.00       193.55
  100.66        2958.00           1329          56.00       215.35
  100.69        2958.25           1332          51.00       193.55
  100.72        2958.50           1336          55.00       210.99
  100.75        2958.75           1339          49.00       184.83
  100.78        2959.00           1342          51.00       193.55
  100.81        2959.25           1346          61.00       237.14
  100.84        2959.50           1349          56.00       215.35
  100.87        2959.75           1352          82.00       328.69
  100.90        2960.00           1356         121.00       498.70
  100.93        2960.25           1359         156.00       651.28
  100.96        2960.50           1362         187.00       786.42
  101.00        2960.75           1366         231.00       978.23
  101.03        2961.00           1369         278.00      1183.13
  101.06        2961.25           1372         328.00      1401.11
  101.09        2961.50           1376         398.00      1706.28
  101.12        2961.75           1379         662.00      2857.26
  101.15        2962.00           1382        1582.00      6868.90
  101.18        2962.25           1386        3395.00     14777.26
  101.21        2962.50           1389        4911.00     21392.98
  101.24        2962.75           1392        6483.00     28255.85
  101.27        2963.00           1396        8383.00     36554.45
  101.31        2963.25           1399        9777.00     42645.64
  101.34        2963.50           1402       11232.00     49005.74
  101.37        2963.75           1406       13094.00     57148.46
  101.40        2964.00           1409       14545.00     63496.61
  101.43        2964.25           1412       16185.00     70674.54
  101.46        2964.50           1416       18335.00     80089.32
  101.49        2964.75           1419       19692.00     86034.32
  101.52        2965.00           1422       21320.00     93169.39
  101.55        2965.25           1426       23274.00    101737.20
  101.59        2965.50           1429       24815.00    108497.30
  101.62        2965.75           1432       26513.00    115949.30
  101.65        2966.00           1436       28342.00    123979.90
  101.68        2966.25           1439       29633.00    129650.60
  101.71        2966.50           1442       31084.00    136026.50
  101.74        2966.75           1446       32332.00    141512.30
  101.77        2967.00           1449       32521.00    142343.30
  101.80        2967.25           1452       32609.00    142730.20
  101.83        2967.50           1456       32582.00    142611.50
  101.87        2967.75           1459       32652.00    142919.20
  101.90        2968.00           1462       32262.00    141204.60
  101.93        2968.25           1466       31042.00    135841.90
  101.96        2968.50           1469       29758.00    130199.80
  101.99        2968.75           1472       28263.00    123633.00
  102.02        2969.00           1476       26166.00    114426.10
  102.05        2969.25           1479       24829.00    108558.70
  102.08        2969.50           1482       23283.00    101776.70
  102.11        2969.75           1486       21322.00     93178.16
  102.15        2970.00           1489       19983.00     87309.48
  102.18        2970.25           1492       18428.00     80496.69
  102.21        2970.50           1496       16500.00     72053.58
  102.24        2970.75           1499       14962.00     65321.44
  102.27        2971.00           1502       13442.00     58670.75
  102.30        2971.25           1506       11386.00     49679.04
  102.33        2971.50           1509        9928.00     43305.57
  102.36        2971.75           1513        7891.00     34405.15
  102.39        2972.00           1516        6317.00     27531.01
  102.42        2972.25           1519        4815.00     20973.96
  102.46        2972.50           1523        2899.00     12613.32
  102.49        2972.75           1526        1622.00      7043.34
  102.52        2973.00           1529         704.00      3040.38
  102.55        2973.25           1533         347.00      1483.94
  102.58        2973.50           1536         301.00      1283.40
  102.61        2973.75           1539         250.00      1061.06
  102.64        2974.00           1543         234.00       991.31
  102.67        2974.25           1546         176.00       738.46
  102.70        2974.50           1549         120.00       494.34
  102.73        2974.75           1553          85.00       341.76
  102.77        2975.00           1556          65.00       254.58
  102.80        2975.25           1559          59.00       228.42
  102.83        2975.50           1563          47.00       176.11
  102.86        2975.75           1566          52.00       197.91
  102.89        2976.00           1569          47.00       176.11
  102.92        2976.25           1573          46.00       171.75
  102.95        2976.50           1576          47.00       176.11
  102.98        2976.75           1579          49.00       184.83
  103.01        2977.00           1583          50.00       189.19
  103.04        2977.25           1586          58.00       224.06
  103.07        2977.50           1590          48.00       180.47
  103.11        2977.75           1593          54.00       206.63
  103.14        2978.00           1596          52.00       197.91
  103.17        2978.25           1600          49.00       184.83
  103.20        2978.50           1603          47.00       176.11
  103.23        2978.75           1606          42.00       154.32
  103.26        2979.00           1610          65.00       254.58
  103.29        2979.25           1613          56.00       215.35
  103.32        2979.50           1616          43.00       158.68
  103.35        2979.75           1620          51.00       193.55
  103.38        2980.00           1623          49.00       184.83
  103.42        2980.25           1626          56.00       215.35
  103.45        2980.50           1630          49.00       184.83
  103.48        2980.75           1633          45.00       167.39
  103.51        2981.00           1637          46.00       171.75
  103.54        2981.25           1640          46.00       171.75
  103.57        2981.50           1643          52.00       197.91
  103.60        2981.75           1647          44.00       163.03
  103.63        2982.00           1650          46.00       171.75
  103.66        2982.25           1653          53.00       202.27
  103.70        2982.50           1657          48.00       180.47
  103.73        2982.75           1660          50.00       189.19
  103.76        2983.00           1663          50.00       189.19
  103.79        2983.25           1667          47.00       176.11
  103.82        2983.50           1670          46.00       171.75
  103.85        2983.75           1673          49.00       184.83
  103.88        2984.00           1677          44.00       163.03
HS scan finished at 01:44:06
end
************************************************************
  HS Scan of (1) Internal mercury lamp
************************************************************
Integration time is 0.2294 seconds per sample
dh030818Manchester 53.47 2.23 3.018777pr1000
************************************************************
Dead Time -------------------------  3E-08 
Number of Cycles Used -------------  4 
Starting Wavelength (Angstroms) ---  2950 
Final Wavelength (Angstoms) -------  2984 
Wavelength Increment (Angstroms) --  .25 
Filter Wheel #1 Position ---------- (1) Ground quartz diffuser (ND=2.32)
Filter Wheel #2 Position ---------- (1) Neutral Density 0.494



************************************************************
HS scan start time = 21:12:09
Dark Count =  3.7 


Time (GMT)  Wavelength (Ang)  Step Number  Raw Counts  Counts/Second

 1272.52        2950.00           1222          50.00       201.83
 1272.59        2950.25           1226          57.00       232.35
 1272.62        2950.50           1229          48.00       193.11
 1272.65        2950.75           1232          50.00       201.83
 1272.68        2951.00           1236          52.00       210.55
 1272.71        2951.25           1239          52.00       210.55
 1272.74        2951.50           1242          57.00       232.35
 1272.77        2951.75           1246          52.00       210.55
 1272.80        2952.00           1249          52.00       210.55
 1272.83        2952.25           1252          53.00       214.91
 1272.86        2952.50           1256          54.00       219.27
 1272.90        2952.75           1259          49.00       197.47
 1272.93        2953.00           1262          60.00       245.42
 1272.96        2953.25           1266          48.00       193.11
 1272.99        2953.50           1269          51.00       206.19
 1273.02        2953.75           1272          56.00       227.99
 1273.05        2954.00           1276          53.00       214.91
 1273.08        2954.25           1279          52.00       210.55
 1273.11        2954.50           1282          49.00       197.47
 1273.14        2954.75           1286          52.00       210.55
 1273.17        2955.00           1289          52.00       210.55
 1273.21        2955.25           1292          51.00       206.19
 1273.24        2955.50           1296          54.00       219.27
 1273.27        2955.75           1299          50.00       201.83
 1273.30        2956.00           1302          56.00       227.99
 1273.33        2956.25           1306          51.00       206.19
 1273.36        2956.50           1309          54.00       219.27
 1273.39        2956.75           1312          57.00       232.35
 1273.42        2957.00           1316          48.00       193.11
 1273.45        2957.25           1319          56.00       227.99
 1273.48        2957.50           1322          51.00       206.19
 1273.51        2957.75           1326          56.00       227.99
 1273.54        2958.00           1329          56.00       227.99
 1273.57        2958.25           1332          50.00       201.83
 1273.61        2958.50           1336          67.00       275.94
 1273.64        2958.75           1339          51.00       206.19
 1273.67        2959.00           1342          54.00       219.27
 1273.70        2959.25           1346          52.00       210.55
 1273.73        2959.50           1349          65.00       267.22
 1273.76        2959.75           1352          69.00       284.66
 1273.79        2960.00           1356          97.00       406.72
 1273.82        2960.25           1359         126.00       533.14
 1273.85        2960.50           1362         155.00       659.56
 1273.88        2960.75           1366         215.00       921.12
 1273.91        2961.00           1369         245.00      1051.91
 1273.95        2961.25           1372         281.00      1208.85
 1273.98        2961.50           1376         332.00      1431.19
 1274.01        2961.75           1379         446.00      1928.18
 1274.04        2962.00           1382         745.00      3231.79
 1274.07        2962.25           1386        1975.00      8595.50
 1274.10        2962.50           1389        3370.00     14680.83
 1274.13        2962.75           1392        4756.00     20729.10
 1274.16        2963.00           1396        6630.00     28910.42
 1274.19        2963.25           1399        8084.00     35260.90
 1274.22        2963.50           1402        9492.00     41412.80
 1274.26        2963.75           1406       11601.00     50631.78
 1274.29        2964.00           1409       13236.00     57782.30
 1274.32        2964.25           1412       14503.00     63325.51
 1274.35        2964.50           1416       16578.00     72407.78
 1274.38        2964.75           1419       17943.00     78385.06
 1274.41        2965.00           1422       19495.00     85183.85
 1274.44        2965.25           1426       21357.00     93344.30
 1274.47        2965.50           1429       22969.00    100412.30
 1274.50        2965.75           1432       24216.00    105882.00
 1274.54        2966.00           1436       26248.00    114798.80
 1274.57        2966.25           1439       27609.00    120773.80
 1274.60        2966.50           1442       28976.00    126777.30
 1274.63        2966.75           1446       30669.00    134215.50
 1274.66        2967.00           1449       31175.00    136439.20
 1274.69        2967.25           1452       31334.00    137138.00
 1274.72        2967.50           1456       31431.00    137564.40
 1274.75        2967.75           1459       31232.00    136689.70
 1274.78        2968.00           1462       31360.00    137252.30
 1274.82        2968.25           1466       30652.00    134140.80
 1274.85        2968.50           1469       29523.00    129180.10
 1274.88        2968.75           1472       28358.00    124062.90
 1274.91        2969.00           1476       26316.00    115097.30
 1274.94        2969.25           1479       25026.00    109435.90
 1274.97        2969.50           1482       23621.00    103272.00
 1275.00        2969.75           1486       21485.00     93905.41
 1275.03        2970.00           1489       20277.00     88610.58
 1275.06        2970.25           1492       18712.00     81753.45
 1275.10        2970.50           1496       16796.00     73362.25
 1275.13        2970.75           1499       15389.00     67202.93
 1275.16        2971.00           1502       13931.00     60822.74
 1275.19        2971.25           1506       12085.00     52748.19
 1275.22        2971.50           1509       10473.00     45700.37
 1275.25        2971.75           1513        8803.00     38402.11
 1275.28        2972.00           1516        7432.00     32412.93
 1275.31        2972.25           1519        5892.00     25688.06
 1275.35        2972.50           1523        4114.00     17927.25
 1275.38        2972.75           1526        2736.00     11914.90
 1275.41        2973.00           1529        1371.00      5961.40
 1275.44        2973.25           1533         482.00      2085.13
 1275.47        2973.50           1536         309.00      1330.92
 1275.50        2973.75           1539         262.00      1126.02
 1275.53        2974.00           1543         204.00       873.17
 1275.56        2974.25           1546         151.00       642.12
 1275.59        2974.50           1549         107.00       450.31
 1275.62        2974.75           1553          81.00       336.97
 1275.66        2975.00           1556          68.00       280.30
 1275.69        2975.25           1559          60.00       245.42
 1275.72        2975.50           1563          55.00       223.63
 1275.75        2975.75           1566          49.00       197.47
 1275.78        2976.00           1569          46.00       184.40
 1275.81        2976.25           1573          51.00       206.19
 1275.84        2976.50           1576          50.00       201.83
 1275.87        2976.75           1579          48.00       193.11
 1275.90        2977.00           1583          49.00       197.47
 1275.93        2977.25           1586          50.00       201.83
 1275.96        2977.50           1590          55.00       223.63
 1275.99        2977.75           1593          46.00       184.40
 1276.02        2978.00           1596          49.00       197.47
 1276.06        2978.25           1600          56.00       227.99
 1276.09        2978.50           1603          51.00       206.19
 1276.12        2978.75           1606          46.00       184.40
 1276.15        2979.00           1610          54.00       219.27
 1276.18        2979.25           1613          47.00       188.75
 1276.21        2979.50           1616          59.00       241.07
 1276.24        2979.75           1620          50.00       201.83
 1276.27        2980.00           1623          48.00       193.11
 1276.31        2980.25           1626          54.00       219.27
 1276.34        2980.50           1630          55.00       223.63
 1276.37        2980.75           1633          57.00       232.35
 1276.40        2981.00           1637          49.00       197.47
 1276.43        2981.25           1640          54.00       219.27
 1276.46        2981.50           1643          47.00       188.75
 1276.49        2981.75           1647          49.00       197.47
 1276.52        2982.00           1650          52.00       210.55
 1276.55        2982.25           1653          48.00       193.11
 1276.59        2982.50           1657          47.00       188.75
 1276.62        2982.75           1660          53.00       214.91
 1276.65        2983.00           1663          46.00       184.40
 1276.69        2983.25           1667          46.00       184.40
 1276.73        2983.50           1670          55.00       223.63
 1276.76        2983.75           1673          46.00       184.40
 1276.79        2984.00           1677          48.00       193.11
HS scan finished at 21:17:00
end
