************************************************************
  HS Scan of (1) Internal mercury lamp
************************************************************
Integration time is 0.2294 seconds per sample
dh060818Manchester 53.47 2.23 3.018777pr1000
************************************************************
Dead Time -------------------------  3E-08 
Number of Cycles Used -------------  4 
Starting Wavelength (Angstroms) ---  2950 
Final Wavelength (Angstoms) -------  2984 
Wavelength Increment (Angstroms) --  .25 
Filter Wheel #1 Position ---------- (1) Ground quartz diffuser (ND=2.32)
Filter Wheel #2 Position ---------- (1) Neutral Density 0.494



************************************************************
HS scan start time = 01:43:46
Dark Count =  5.4 


Time (GMT)  Wavelength (Ang)  Step Number  Raw Counts  Counts/Second

  104.14        2950.00           1222          50.00       194.42
  104.21        2950.25           1226          50.00       194.42
  104.24        2950.50           1229          62.00       246.73
  104.27        2950.75           1232          47.00       181.34
  104.30        2951.00           1236          49.00       190.06
  104.33        2951.25           1239          59.00       233.65
  104.36        2951.50           1242          58.00       229.30
  104.39        2951.75           1246          53.00       207.50
  104.42        2952.00           1249          55.00       216.22
  104.45        2952.25           1252          55.00       216.22
  104.48        2952.50           1256          51.00       198.78
  104.52        2952.75           1259          59.00       233.65
  104.55        2953.00           1262          47.00       181.34
  104.58        2953.25           1266          53.00       207.50
  104.61        2953.50           1269          54.00       211.86
  104.64        2953.75           1272          46.00       176.98
  104.67        2954.00           1276          51.00       198.78
  104.70        2954.25           1279          46.00       176.98
  104.73        2954.50           1282          55.00       216.22
  104.76        2954.75           1286          49.00       190.06
  104.79        2955.00           1289          46.00       176.98
  104.82        2955.25           1292          49.00       190.06
  104.86        2955.50           1296          55.00       216.22
  104.89        2955.75           1299          53.00       207.50
  104.92        2956.00           1302          53.00       207.50
  104.95        2956.25           1306          56.00       220.58
  104.98        2956.50           1309          50.00       194.42
  105.01        2956.75           1312          48.00       185.70
  105.04        2957.00           1316          54.00       211.86
  105.07        2957.25           1319          52.00       203.14
  105.10        2957.50           1322          51.00       198.78
  105.13        2957.75           1326          51.00       198.78
  105.16        2958.00           1329          52.00       203.14
  105.20        2958.25           1332          55.00       216.22
  105.23        2958.50           1336          56.00       220.58
  105.26        2958.75           1339          58.00       229.30
  105.29        2959.00           1342          53.00       207.50
  105.32        2959.25           1346          53.00       207.50
  105.35        2959.50           1349          67.00       268.53
  105.38        2959.75           1352          70.00       281.61
  105.41        2960.00           1356         100.00       412.39
  105.44        2960.25           1359         122.00       508.29
  105.47        2960.50           1362         153.00       643.43
  105.50        2960.75           1366         227.00       966.03
  105.54        2961.00           1369         254.00      1083.73
  105.57        2961.25           1372         303.00      1297.35
  105.60        2961.50           1376         417.00      1794.34
  105.63        2961.75           1379         778.00      3368.26
  105.66        2962.00           1382        1703.00      7401.82
  105.69        2962.25           1386        3513.00     15297.34
  105.72        2962.50           1389        4990.00     21743.04
  105.75        2962.75           1392        6423.00     27999.10
  105.78        2963.00           1396        8396.00     36616.49
  105.82        2963.25           1399        9812.00     42803.84
  105.85        2963.50           1402       11126.00     48547.55
  105.88        2963.75           1406       12960.00     56567.58
  105.91        2964.00           1409       14615.00     63808.17
  105.94        2964.25           1412       15913.00     69489.09
  105.97        2964.50           1416       17891.00     78149.88
  106.00        2964.75           1419       19293.00     84291.34
  106.03        2965.00           1422       20634.00     90167.72
  106.06        2965.25           1426       22546.00     98549.88
  106.10        2965.50           1429       23962.00    104760.30
  106.13        2965.75           1432       25316.00    110701.00
  106.16        2966.00           1436       27425.00    119958.40
  106.19        2966.25           1439       28818.00    126075.80
  106.22        2966.50           1442       29894.00    130802.60
  106.25        2966.75           1446       30892.00    135188.00
  106.28        2967.00           1449       31040.00    135838.40
  106.31        2967.25           1452       31069.00    135965.90
  106.34        2967.50           1456       30936.00    135381.30
  106.38        2967.75           1459       30662.00    134177.20
  106.41        2968.00           1462       30410.00    133069.90
  106.44        2968.25           1466       29196.00    127736.20
  106.47        2968.50           1469       27773.00    121486.40
  106.50        2968.75           1472       26550.00    116117.00
  106.53        2969.00           1476       24593.00    107528.50
  106.56        2969.25           1479       23097.00    100966.20
  106.59        2969.50           1482       21586.00     94340.74
  106.62        2969.75           1486       19693.00     86043.97
  106.66        2970.00           1489       18208.00     79538.30
  106.69        2970.25           1492       16928.00     73932.76
  106.73        2970.50           1496       15198.00     66359.53
  106.77        2970.75           1499       13767.00     60097.80
  106.80        2971.00           1502       12269.00     53545.41
  106.83        2971.25           1506       10458.00     45627.37
  106.86        2971.50           1509        8881.00     38735.49
  106.89        2971.75           1513        6918.00     30160.67
  106.92        2972.00           1516        5570.00     24274.86
  106.95        2972.25           1519        4261.00     18561.34
  106.98        2972.50           1523        2381.00     10358.93
  107.01        2972.75           1526        1121.00      4863.83
  107.05        2973.00           1529         512.00      2208.52
  107.08        2973.25           1533         333.00      1428.13
  107.11        2973.50           1536         285.00      1218.88
  107.14        2973.75           1539         248.00      1057.58
  107.17        2974.00           1543         202.00       857.04
  107.20        2974.25           1546         147.00       617.27
  107.23        2974.50           1549         117.00       486.49
  107.26        2974.75           1553          86.00       351.36
  107.29        2975.00           1556          71.00       285.97
  107.32        2975.25           1559          57.00       224.94
  107.36        2975.50           1563          52.00       203.14
  107.39        2975.75           1566          53.00       207.50
  107.42        2976.00           1569          40.00       150.83
  107.45        2976.25           1573          52.00       203.14
  107.48        2976.50           1576          57.00       224.94
  107.51        2976.75           1579          51.00       198.78
  107.54        2977.00           1583          48.00       185.70
  107.57        2977.25           1586          51.00       198.78
  107.60        2977.50           1590          44.00       168.27
  107.63        2977.75           1593          51.00       198.78
  107.66        2978.00           1596          52.00       203.14
  107.70        2978.25           1600          46.00       176.98
  107.73        2978.50           1603          48.00       185.70
  107.76        2978.75           1606          53.00       207.50
  107.79        2979.00           1610          47.00       181.34
  107.82        2979.25           1613          45.00       172.63
  107.85        2979.50           1616          55.00       216.22
  107.88        2979.75           1620          53.00       207.50
  107.91        2980.00           1623          49.00       190.06
  107.94        2980.25           1626          55.00       216.22
  107.97        2980.50           1630          43.00       163.91
  108.01        2980.75           1633          51.00       198.78
  108.04        2981.00           1637          45.00       172.63
  108.07        2981.25           1640          54.00       211.86
  108.10        2981.50           1643          55.00       216.22
  108.13        2981.75           1647          50.00       194.42
  108.16        2982.00           1650          47.00       181.34
  108.19        2982.25           1653          53.00       207.50
  108.22        2982.50           1657          42.00       159.55
  108.25        2982.75           1660          53.00       207.50
  108.28        2983.00           1663          47.00       181.34
  108.31        2983.25           1667          45.00       172.63
  108.34        2983.50           1670          49.00       190.06
  108.37        2983.75           1673          48.00       185.70
  108.41        2984.00           1677          42.00       159.55
HS scan finished at 01:48:37
end
************************************************************
  HS Scan of (1) Internal mercury lamp
************************************************************
Integration time is 0.2294 seconds per sample
dh060818Manchester 53.47 2.23 3.126073pr1000
************************************************************
Dead Time -------------------------  3E-08 
Number of Cycles Used -------------  4 
Starting Wavelength (Angstroms) ---  2950 
Final Wavelength (Angstoms) -------  2984 
Wavelength Increment (Angstroms) --  .25 
Filter Wheel #1 Position ---------- (1) Ground quartz diffuser (ND=2.32)
Filter Wheel #2 Position ---------- (1) Neutral Density 0.494



************************************************************
HS scan start time = 20:42:05
Dark Count =  5.8 


Time (GMT)  Wavelength (Ang)  Step Number  Raw Counts  Counts/Second

 1242.45        2950.00           1222          51.00       197.04
 1242.52        2950.25           1226          57.00       223.19
 1242.55        2950.50           1229          54.00       210.11
 1242.58        2950.75           1232          58.00       227.55
 1242.61        2951.00           1236          46.00       175.24
 1242.65        2951.25           1239          56.00       218.83
 1242.68        2951.50           1242          51.00       197.04
 1242.71        2951.75           1246          57.00       223.19
 1242.74        2952.00           1249          53.00       205.76
 1242.77        2952.25           1252          50.00       192.68
 1242.80        2952.50           1256          49.00       188.32
 1242.83        2952.75           1259          55.00       214.47
 1242.86        2953.00           1262          50.00       192.68
 1242.89        2953.25           1266          50.00       192.68
 1242.92        2953.50           1269          46.00       175.24
 1242.95        2953.75           1272          55.00       214.47
 1242.98        2954.00           1276          48.00       183.96
 1243.01        2954.25           1279          51.00       197.04
 1243.05        2954.50           1282          50.00       192.68
 1243.08        2954.75           1286          55.00       214.47
 1243.11        2955.00           1289          54.00       210.11
 1243.14        2955.25           1292          52.00       201.40
 1243.17        2955.50           1296          48.00       183.96
 1243.20        2955.75           1299          62.00       244.99
 1243.23        2956.00           1302          55.00       214.47
 1243.26        2956.25           1306          52.00       201.40
 1243.29        2956.50           1309          47.00       179.60
 1243.32        2956.75           1312          54.00       210.11
 1243.35        2957.00           1316          50.00       192.68
 1243.39        2957.25           1319          57.00       223.19
 1243.42        2957.50           1322          55.00       214.47
 1243.45        2957.75           1326          53.00       205.76
 1243.48        2958.00           1329          59.00       231.91
 1243.51        2958.25           1332          56.00       218.83
 1243.54        2958.50           1336          49.00       188.32
 1243.57        2958.75           1339          49.00       188.32
 1243.60        2959.00           1342          52.00       201.40
 1243.63        2959.25           1346          53.00       205.76
 1243.66        2959.50           1349          66.00       262.43
 1243.69        2959.75           1352          70.00       279.86
 1243.73        2960.00           1356          98.00       401.92
 1243.76        2960.25           1359         134.00       558.86
 1243.79        2960.50           1362         157.00       659.12
 1243.82        2960.75           1366         228.00       968.64
 1243.85        2961.00           1369         252.00      1073.27
 1243.88        2961.25           1372         295.00      1260.73
 1243.91        2961.50           1376         356.00      1526.66
 1243.94        2961.75           1379         536.00      2311.41
 1243.97        2962.00           1382        1215.00      5271.98
 1244.01        2962.25           1386        2888.00     12568.82
 1244.04        2962.50           1389        4380.00     19078.92
 1244.07        2962.75           1392        5921.00     25805.50
 1244.10        2963.00           1396        7885.00     34382.44
 1244.13        2963.25           1399        9290.00     40520.90
 1244.16        2963.50           1402       10705.00     46705.33
 1244.19        2963.75           1406       12625.00     55100.60
 1244.22        2964.00           1409       14232.00     62130.52
 1244.25        2964.25           1412       15575.00     68007.84
 1244.28        2964.50           1416       17579.00     76781.71
 1244.32        2964.75           1419       19040.00     83181.16
 1244.35        2965.00           1422       20655.00     90258.01
 1244.38        2965.25           1426       22868.00     99960.18
 1244.41        2965.50           1429       24334.00    106390.50
 1244.44        2965.75           1432       25638.00    112112.30
 1244.47        2966.00           1436       27842.00    121787.70
 1244.50        2966.25           1439       29225.00    127861.80
 1244.53        2966.50           1442       30456.00    133270.20
 1244.57        2966.75           1446       32093.00    140465.10
 1244.60        2967.00           1449       32274.00    141260.90
 1244.63        2967.25           1452       32469.00    142118.20
 1244.66        2967.50           1456       32357.00    141625.70
 1244.69        2967.75           1459       32389.00    141766.40
 1244.72        2968.00           1462       32456.00    142061.00
 1244.75        2968.25           1466       31213.00    136597.00
 1244.78        2968.50           1469       29865.00    130673.40
 1244.81        2968.75           1472       28523.00    124778.30
 1244.85        2969.00           1476       26590.00    116290.80
 1244.88        2969.25           1479       24982.00    109233.60
 1244.91        2969.50           1482       23653.00    103403.10
 1244.94        2969.75           1486       21654.00     94637.09
 1244.97        2970.00           1489       20349.00     88916.91
 1245.00        2970.25           1492       18948.00     82778.11
 1245.03        2970.50           1496       16893.00     73777.76
 1245.06        2970.75           1499       15199.00     66362.16
 1245.09        2971.00           1502       13689.00     59754.80
 1245.12        2971.25           1506       11759.00     51313.46
 1245.16        2971.50           1509       10205.00     44519.75
 1245.19        2971.75           1513        8314.00     36256.51
 1245.22        2972.00           1516        6815.00     29709.12
 1245.25        2972.25           1519        5150.00     22439.69
 1245.28        2972.50           1523        3343.00     14553.87
 1245.31        2972.75           1526        1848.00      8032.45
 1245.34        2973.00           1529         788.00      3410.11
 1245.37        2973.25           1533         380.00      1631.29
 1245.40        2973.50           1536         321.00      1374.08
 1245.44        2973.75           1539         257.00      1095.07
 1245.47        2974.00           1543         217.00       920.69
 1245.50        2974.25           1546         151.00       632.97
 1245.53        2974.50           1549         118.00       489.11
 1245.56        2974.75           1553          96.00       393.20
 1245.59        2975.00           1556          57.00       223.19
 1245.62        2975.25           1559          52.00       201.40
 1245.65        2975.50           1563          50.00       192.68
 1245.68        2975.75           1566          42.00       157.80
 1245.71        2976.00           1569          59.00       231.91
 1245.75        2976.25           1573          55.00       214.47
 1245.78        2976.50           1576          61.00       240.63
 1245.81        2976.75           1579          54.00       210.11
 1245.84        2977.00           1583          55.00       214.47
 1245.87        2977.25           1586          51.00       197.04
 1245.90        2977.50           1590          49.00       188.32
 1245.93        2977.75           1593          49.00       188.32
 1245.96        2978.00           1596          51.00       197.04
 1245.99        2978.25           1600          50.00       192.68
 1246.02        2978.50           1603          46.00       175.24
 1246.06        2978.75           1606          48.00       183.96
 1246.09        2979.00           1610          53.00       205.76
 1246.12        2979.25           1613          67.00       266.79
 1246.15        2979.50           1616          48.00       183.96
 1246.18        2979.75           1620          51.00       197.04
 1246.21        2980.00           1623          52.00       201.40
 1246.24        2980.25           1626          45.00       170.88
 1246.27        2980.50           1630          50.00       192.68
 1246.30        2980.75           1633          56.00       218.83
 1246.33        2981.00           1637          54.00       210.11
 1246.37        2981.25           1640          50.00       192.68
 1246.40        2981.50           1643          44.00       166.52
 1246.43        2981.75           1647          45.00       170.88
 1246.46        2982.00           1650          50.00       192.68
 1246.49        2982.25           1653          52.00       201.40
 1246.52        2982.50           1657          45.00       170.88
 1246.55        2982.75           1660          50.00       192.68
 1246.58        2983.00           1663          51.00       197.04
 1246.62        2983.25           1667          50.00       192.68
 1246.65        2983.50           1670          45.00       170.88
 1246.68        2983.75           1673          47.00       179.60
 1246.71        2984.00           1677          46.00       175.24
HS scan finished at 20:46:55
end
