************************************************************
  HS Scan of (1) Internal mercury lamp
************************************************************
Integration time is 0.2294 seconds per sample
dh050817Manchester 53.47 2.23 2.857833pr1000
************************************************************
Dead Time -------------------------  3E-08 
Number of Cycles Used -------------  4 
Starting Wavelength (Angstroms) ---  2950 
Final Wavelength (Angstoms) -------  2984 
Wavelength Increment (Angstroms) --  .25 
Filter Wheel #1 Position ---------- (1) Ground quartz diffuser (ND=2.32)
Filter Wheel #2 Position ---------- (1) Neutral Density 0.494



************************************************************
HS scan start time = 01:31:44
Dark Count =  5.1 


Time (GMT)  Wavelength (Ang)  Step Number  Raw Counts  Counts/Second

   92.11        2950.00           1222          88.00       361.38
   92.18        2950.25           1226          83.00       339.59
   92.21        2950.50           1229          89.00       365.74
   92.24        2950.75           1232          84.00       343.94
   92.27        2951.00           1236          89.00       365.74
   92.30        2951.25           1239          93.00       383.18
   92.33        2951.50           1242          92.00       378.82
   92.36        2951.75           1246          83.00       339.59
   92.39        2952.00           1249          92.00       378.82
   92.42        2952.25           1252          94.00       387.54
   92.45        2952.50           1256          98.00       404.97
   92.48        2952.75           1259          88.00       361.38
   92.51        2953.00           1262          93.00       383.18
   92.54        2953.25           1266          93.00       383.18
   92.58        2953.50           1269          89.00       365.74
   92.61        2953.75           1272          89.00       365.74
   92.64        2954.00           1276          95.00       391.90
   92.67        2954.25           1279          88.00       361.38
   92.70        2954.50           1282          85.00       348.30
   92.73        2954.75           1286          89.00       365.74
   92.76        2955.00           1289          89.00       365.74
   92.79        2955.25           1292          97.00       400.62
   92.82        2955.50           1296          83.00       339.59
   92.85        2955.75           1299          84.00       343.94
   92.88        2956.00           1302          87.00       357.02
   92.91        2956.25           1306          91.00       374.46
   92.94        2956.50           1309          85.00       348.30
   92.98        2956.75           1312          92.00       378.82
   93.01        2957.00           1316          87.00       357.02
   93.04        2957.25           1319          79.00       322.15
   93.07        2957.50           1322          91.00       374.46
   93.10        2957.75           1326          83.00       339.59
   93.13        2958.00           1329          79.00       322.15
   93.16        2958.25           1332          84.00       343.94
   93.19        2958.50           1336          93.00       383.18
   93.22        2958.75           1339          92.00       378.82
   93.25        2959.00           1342          88.00       361.38
   93.29        2959.25           1346          98.00       404.97
   93.32        2959.50           1349          98.00       404.97
   93.35        2959.75           1352         111.00       461.65
   93.38        2960.00           1356         143.00       601.14
   93.41        2960.25           1359         167.00       705.77
   93.44        2960.50           1362         195.00       827.83
   93.47        2960.75           1366         253.00      1080.68
   93.50        2961.00           1369         293.00      1255.06
   93.53        2961.25           1372         359.00      1542.79
   93.56        2961.50           1376         418.00      1800.01
   93.59        2961.75           1379         497.00      2144.43
   93.63        2962.00           1382         809.00      3504.73
   93.66        2962.25           1386        2172.00      9448.62
   93.69        2962.50           1389        3656.00     15922.60
   93.72        2962.75           1392        5242.00     22844.34
   93.75        2963.00           1396        7398.00     32258.32
   93.78        2963.25           1399        8997.00     39243.65
   93.81        2963.50           1402       10580.00     46161.97
   93.84        2963.75           1406       12765.00     55715.99
   93.87        2964.00           1409       14814.00     64680.32
   93.90        2964.25           1412       16342.00     71368.43
   93.93        2964.50           1416       18817.00     82207.29
   93.97        2964.75           1419       20484.00     89511.64
   94.00        2965.00           1422       22132.00     96735.87
   94.03        2965.25           1426       24565.00    107407.00
   94.06        2965.50           1429       26288.00    114968.20
   94.09        2965.75           1432       27980.00    122396.70
   94.12        2966.00           1436       30094.00    131682.70
   94.15        2966.25           1439       31768.00    139039.50
   94.18        2966.50           1442       33357.00    146025.80
   94.21        2966.75           1446       35168.00    153991.80
   94.25        2967.00           1449       36061.00    157921.20
   94.28        2967.25           1452       36276.00    158867.40
   94.31        2967.50           1456       36199.00    158528.50
   94.34        2967.75           1459       36378.00    159316.30
   94.37        2968.00           1462       36111.00    158141.30
   94.40        2968.25           1466       35708.00    156367.80
   94.43        2968.50           1469       34568.00    151352.20
   94.46        2968.75           1472       33090.00    144851.70
   94.49        2969.00           1476       30908.00    135259.60
   94.52        2969.25           1479       29569.00    129376.10
   94.56        2969.50           1482       27713.00    121224.30
   94.59        2969.75           1486       25405.00    111092.80
   94.62        2970.00           1489       23742.00    103796.60
   94.65        2970.25           1492       22162.00     96867.41
   94.68        2970.50           1496       20009.00     87429.98
   94.71        2970.75           1499       18273.00     79824.33
   94.74        2971.00           1502       16539.00     72230.90
   94.77        2971.25           1506       14476.00     63201.24
   94.80        2971.50           1509       12763.00     55707.24
   94.83        2971.75           1513       10672.00     46564.14
   94.86        2972.00           1516        9046.00     39457.76
   94.89        2972.25           1519        7367.00     32122.92
   94.93        2972.50           1523        5342.00     23280.86
   94.96        2972.75           1526        3608.00     15713.16
   94.99        2973.00           1529        1993.00      8667.90
   95.02        2973.25           1533         693.00      2998.96
   95.05        2973.50           1536         424.00      1826.17
   95.08        2973.75           1539         355.00      1525.35
   95.11        2974.00           1543         269.00      1150.43
   95.14        2974.25           1546         196.00       832.19
   95.17        2974.50           1549         163.00       688.33
   95.20        2974.75           1553         133.00       557.55
   95.23        2975.00           1556         104.00       431.13
   95.27        2975.25           1559          89.00       365.74
   95.30        2975.50           1563          87.00       357.02
   95.33        2975.75           1566          86.00       352.66
   95.36        2976.00           1569          94.00       387.54
   95.39        2976.25           1573          95.00       391.90
   95.42        2976.50           1576          89.00       365.74
   95.45        2976.75           1579          84.00       343.94
   95.48        2977.00           1583          85.00       348.30
   95.51        2977.25           1586          85.00       348.30
   95.54        2977.50           1590          88.00       361.38
   95.57        2977.75           1593          80.00       326.51
   95.60        2978.00           1596          83.00       339.59
   95.64        2978.25           1600          85.00       348.30
   95.67        2978.50           1603          81.00       330.87
   95.70        2978.75           1606          90.00       370.10
   95.73        2979.00           1610          76.00       309.07
   95.76        2979.25           1613          84.00       343.94
   95.79        2979.50           1616          89.00       365.74
   95.82        2979.75           1620          87.00       357.02
   95.85        2980.00           1623          77.00       313.43
   95.88        2980.25           1626          78.00       317.79
   95.91        2980.50           1630          76.00       309.07
   95.94        2980.75           1633          82.00       335.23
   95.97        2981.00           1637          77.00       313.43
   96.00        2981.25           1640          79.00       322.15
   96.03        2981.50           1643          82.00       335.23
   96.07        2981.75           1647          87.00       357.02
   96.10        2982.00           1650          78.00       317.79
   96.13        2982.25           1653          85.00       348.30
   96.16        2982.50           1657          85.00       348.30
   96.19        2982.75           1660          86.00       352.66
   96.22        2983.00           1663          84.00       343.94
   96.25        2983.25           1667          71.00       287.27
   96.28        2983.50           1670          71.00       287.27
   96.31        2983.75           1673          82.00       335.23
   96.34        2984.00           1677          82.00       335.23
HS scan finished at 01:36:34
end
************************************************************
  HS Scan of (1) Internal mercury lamp
************************************************************
Integration time is 0.2294 seconds per sample
dh050817Manchester 53.47 2.23 2.804185pr1000
************************************************************
Dead Time -------------------------  3E-08 
Number of Cycles Used -------------  4 
Starting Wavelength (Angstroms) ---  2950 
Final Wavelength (Angstoms) -------  2984 
Wavelength Increment (Angstroms) --  .25 
Filter Wheel #1 Position ---------- (1) Ground quartz diffuser (ND=2.32)
Filter Wheel #2 Position ---------- (1) Neutral Density 0.494



************************************************************
HS scan start time = 20:42:00
Dark Count =  6.2 


Time (GMT)  Wavelength (Ang)  Step Number  Raw Counts  Counts/Second

 1242.37        2950.00           1222          93.00       378.38
 1242.44        2950.25           1226          97.00       395.82
 1242.47        2950.50           1229          91.00       369.66
 1242.50        2950.75           1232          92.00       374.02
 1242.53        2951.00           1236          91.00       369.66
 1242.56        2951.25           1239          89.00       360.95
 1242.60        2951.50           1242          92.00       374.02
 1242.63        2951.75           1246          86.00       347.87
 1242.66        2952.00           1249          89.00       360.95
 1242.69        2952.25           1252         102.00       417.62
 1242.72        2952.50           1256          91.00       369.66
 1242.75        2952.75           1259          80.00       321.71
 1242.78        2953.00           1262          85.00       343.51
 1242.81        2953.25           1266          97.00       395.82
 1242.84        2953.50           1269         112.00       461.21
 1242.87        2953.75           1272          89.00       360.95
 1242.90        2954.00           1276          86.00       347.87
 1242.93        2954.25           1279          86.00       347.87
 1242.96        2954.50           1282          83.00       334.79
 1242.99        2954.75           1286          92.00       374.02
 1243.02        2955.00           1289          89.00       360.95
 1243.06        2955.25           1292          82.00       330.43
 1243.09        2955.50           1296          88.00       356.59
 1243.12        2955.75           1299          96.00       391.46
 1243.15        2956.00           1302         101.00       413.26
 1243.18        2956.25           1306          83.00       334.79
 1243.21        2956.50           1309          89.00       360.95
 1243.24        2956.75           1312          87.00       352.23
 1243.27        2957.00           1316         103.00       421.98
 1243.30        2957.25           1319          88.00       356.59
 1243.33        2957.50           1322          86.00       347.87
 1243.36        2957.75           1326          92.00       374.02
 1243.39        2958.00           1329          97.00       395.82
 1243.42        2958.25           1332          90.00       365.30
 1243.46        2958.50           1336          89.00       360.95
 1243.49        2958.75           1339          89.00       360.95
 1243.52        2959.00           1342          94.00       382.74
 1243.55        2959.25           1346          93.00       378.38
 1243.58        2959.50           1349         100.00       408.90
 1243.61        2959.75           1352         117.00       483.01
 1243.64        2960.00           1356         156.00       653.02
 1243.67        2960.25           1359         175.00       735.85
 1243.70        2960.50           1362         217.00       918.94
 1243.73        2960.75           1366         262.00      1115.12
 1243.76        2961.00           1369         316.00      1350.53
 1243.79        2961.25           1372         354.00      1516.20
 1243.82        2961.50           1376         439.00      1886.77
 1243.85        2961.75           1379         592.00      2553.81
 1243.88        2962.00           1382        1176.00      5100.17
 1243.92        2962.25           1386        2914.00     12680.50
 1243.95        2962.50           1389        4435.00     19317.21
 1243.98        2962.75           1392        6098.00     26576.54
 1244.01        2963.00           1396        8115.00     35385.41
 1244.04        2963.25           1399        9619.00     41956.88
 1244.07        2963.50           1402       11392.00     49707.03
 1244.10        2963.75           1406       13943.00     60864.30
 1244.13        2964.00           1409       15526.00     67791.62
 1244.16        2964.25           1412       17137.00     74844.41
 1244.19        2964.50           1416       19440.00     84931.91
 1244.22        2964.75           1419       21280.00     92995.80
 1244.25        2965.00           1422       22817.00     99734.77
 1244.28        2965.25           1426       25033.00    109455.60
 1244.32        2965.50           1429       26794.00    117184.60
 1244.35        2965.75           1432       28357.00    124047.50
 1244.38        2966.00           1436       30700.00    134340.70
 1244.41        2966.25           1439       32350.00    141593.20
 1244.44        2966.50           1442       33820.00    148057.20
 1244.47        2966.75           1446       35472.00    155324.60
 1244.50        2967.00           1449       35928.00    157331.10
 1244.53        2967.25           1452       36106.00    158114.40
 1244.56        2967.50           1456       35998.00    157639.10
 1244.59        2967.75           1459       35790.00    156723.80
 1244.62        2968.00           1462       35692.00    156292.60
 1244.66        2968.25           1466       34676.00    151822.50
 1244.69        2968.50           1469       33735.00    147683.40
 1244.72        2968.75           1472       31974.00    139940.20
 1244.75        2969.00           1476       29655.00    129749.10
 1244.78        2969.25           1479       28386.00    124174.90
 1244.81        2969.50           1482       26582.00    116253.90
 1244.84        2969.75           1486       24189.00    105752.60
 1244.87        2970.00           1489       22682.00     99142.74
 1244.90        2970.25           1492       21005.00     91790.35
 1244.93        2970.50           1496       18991.00     82964.75
 1244.96        2970.75           1499       17310.00     75601.97
 1245.00        2971.00           1502       15466.00     67529.00
 1245.03        2971.25           1506       13395.00     58466.90
 1245.06        2971.50           1509       11740.00     51228.63
 1245.09        2971.75           1513        9744.00     42503.16
 1245.12        2972.00           1516        7954.00     34682.10
 1245.15        2972.25           1519        6367.00     27751.08
 1245.18        2972.50           1523        4163.00     18130.17
 1245.21        2972.75           1526        2537.00     11035.91
 1245.24        2973.00           1529        1169.00      5069.65
 1245.27        2973.25           1533         498.00      2143.99
 1245.30        2973.50           1536         367.00      1572.87
 1245.33        2973.75           1539         307.00      1311.30
 1245.36        2974.00           1543         273.00      1163.07
 1245.39        2974.25           1546         199.00       840.47
 1245.42        2974.50           1549         151.00       631.22
 1245.45        2974.75           1553         126.00       522.24
 1245.48        2975.00           1556         106.00       435.05
 1245.52        2975.25           1559          91.00       369.66
 1245.55        2975.50           1563          89.00       360.95
 1245.58        2975.75           1566         102.00       417.62
 1245.61        2976.00           1569          90.00       365.30
 1245.64        2976.25           1573          86.00       347.87
 1245.67        2976.50           1576          90.00       365.30
 1245.70        2976.75           1579          80.00       321.71
 1245.73        2977.00           1583          87.00       352.23
 1245.76        2977.25           1586         100.00       408.90
 1245.79        2977.50           1590          78.00       312.99
 1245.82        2977.75           1593          79.00       317.35
 1245.85        2978.00           1596          74.00       295.56
 1245.88        2978.25           1600          92.00       374.02
 1245.91        2978.50           1603          79.00       317.35
 1245.94        2978.75           1606          81.00       326.07
 1245.97        2979.00           1610          80.00       321.71
 1246.00        2979.25           1613          88.00       356.59
 1246.04        2979.50           1616          80.00       321.71
 1246.07        2979.75           1620          71.00       282.48
 1246.10        2980.00           1623          85.00       343.51
 1246.13        2980.25           1626          89.00       360.95
 1246.16        2980.50           1630          68.00       269.40
 1246.19        2980.75           1633          74.00       295.56
 1246.22        2981.00           1637          74.00       295.56
 1246.25        2981.25           1640          92.00       374.02
 1246.28        2981.50           1643          73.00       291.20
 1246.31        2981.75           1647          86.00       347.87
 1246.34        2982.00           1650          68.00       269.40
 1246.37        2982.25           1653          75.00       299.92
 1246.40        2982.50           1657          77.00       308.63
 1246.43        2982.75           1660          88.00       356.59
 1246.46        2983.00           1663          80.00       321.71
 1246.49        2983.25           1667          80.00       321.71
 1246.52        2983.50           1670          85.00       343.51
 1246.55        2983.75           1673          78.00       312.99
 1246.58        2984.00           1677          78.00       312.99
HS scan finished at 20:46:48
end
