************************************************************
  HS Scan of (1) Internal mercury lamp
************************************************************
Integration time is 0.2294 seconds per sample
dh030817Manchester 53.47 2.23 2.857833pr1000
************************************************************
Dead Time -------------------------  3E-08 
Number of Cycles Used -------------  4 
Starting Wavelength (Angstroms) ---  2950 
Final Wavelength (Angstoms) -------  2984 
Wavelength Increment (Angstroms) --  .25 
Filter Wheel #1 Position ---------- (1) Ground quartz diffuser (ND=2.32)
Filter Wheel #2 Position ---------- (1) Neutral Density 0.494



************************************************************
HS scan start time = 01:39:27
Dark Count =  7.5 


Time (GMT)  Wavelength (Ang)  Step Number  Raw Counts  Counts/Second

   99.82        2950.00           1222          84.00       333.48
   99.89        2950.25           1226         101.00       407.59
   99.92        2950.50           1229          89.00       355.28
   99.95        2950.75           1232         109.00       442.46
   99.98        2951.00           1236          97.00       390.15
  100.01        2951.25           1239         101.00       407.59
  100.04        2951.50           1242          90.00       359.64
  100.08        2951.75           1246          92.00       368.36
  100.11        2952.00           1249          93.00       372.72
  100.14        2952.25           1252          91.00       364.00
  100.17        2952.50           1256          93.00       372.72
  100.20        2952.75           1259          91.00       364.00
  100.23        2953.00           1262          95.00       381.43
  100.26        2953.25           1266          91.00       364.00
  100.29        2953.50           1269          91.00       364.00
  100.32        2953.75           1272          93.00       372.72
  100.35        2954.00           1276          95.00       381.43
  100.39        2954.25           1279          90.00       359.64
  100.42        2954.50           1282          93.00       372.72
  100.45        2954.75           1286          84.00       333.48
  100.48        2955.00           1289          90.00       359.64
  100.51        2955.25           1292          90.00       359.64
  100.54        2955.50           1296          94.00       377.07
  100.57        2955.75           1299          82.00       324.76
  100.60        2956.00           1302          97.00       390.15
  100.63        2956.25           1306          99.00       398.87
  100.67        2956.50           1309          89.00       355.28
  100.70        2956.75           1312          87.00       346.56
  100.73        2957.00           1316          93.00       372.72
  100.76        2957.25           1319          88.00       350.92
  100.79        2957.50           1322          88.00       350.92
  100.82        2957.75           1326          86.00       342.20
  100.85        2958.00           1329         101.00       407.59
  100.88        2958.25           1332          87.00       346.56
  100.91        2958.50           1336          87.00       346.56
  100.94        2958.75           1339          85.00       337.84
  100.97        2959.00           1342          89.00       355.28
  101.00        2959.25           1346          91.00       364.00
  101.04        2959.50           1349         112.00       455.54
  101.07        2959.75           1352         121.00       494.78
  101.10        2960.00           1356         150.00       621.20
  101.13        2960.25           1359         183.00       765.06
  101.16        2960.50           1362         227.00       956.87
  101.19        2960.75           1366         287.00      1218.44
  101.22        2961.00           1369         324.00      1379.74
  101.25        2961.25           1372         368.00      1571.57
  101.28        2961.50           1376         446.00      1911.62
  101.31        2961.75           1379         623.00      2683.30
  101.35        2962.00           1382        1295.00      5613.41
  101.38        2962.25           1386        3113.00     13542.99
  101.41        2962.50           1389        4700.00     20468.10
  101.44        2962.75           1392        6309.00     27492.15
  101.47        2963.00           1396        8363.00     36463.14
  101.50        2963.25           1399       10019.00     43699.37
  101.53        2963.50           1402       11619.00     50693.87
  101.56        2963.75           1406       14008.00     61143.00
  101.59        2964.00           1409       15590.00     68066.06
  101.62        2964.25           1412       17404.00     76007.91
  101.65        2964.50           1416       19681.00     85982.18
  101.69        2964.75           1419       21570.00     94261.39
  101.72        2965.00           1422       23144.00    101163.10
  101.75        2965.25           1426       25476.00    111393.90
  101.78        2965.50           1429       27118.00    118601.30
  101.81        2965.75           1432       28923.00    126527.80
  101.84        2966.00           1436       31137.00    136255.50
  101.87        2966.25           1439       32513.00    142304.10
  101.90        2966.50           1442       34129.00    149410.60
  101.93        2966.75           1446       35903.00    157215.40
  101.97        2967.00           1449       36246.00    158724.80
  102.00        2967.25           1452       36239.00    158694.00
  102.03        2967.50           1456       36530.00    159974.70
  102.06        2967.75           1459       36412.00    159455.40
  102.09        2968.00           1462       36168.00    158381.50
  102.12        2968.25           1466       35435.00    155156.00
  102.15        2968.50           1469       33911.00    148451.70
  102.18        2968.75           1472       32434.00    141956.80
  102.21        2969.00           1476       30282.00    132498.20
  102.24        2969.25           1479       28557.00    124920.20
  102.28        2969.50           1482       27144.00    118715.40
  102.31        2969.75           1486       24974.00    109191.00
  102.34        2970.00           1489       23430.00    102417.50
  102.37        2970.25           1492       21673.00     94712.94
  102.40        2970.50           1496       19405.00     84772.87
  102.43        2970.75           1499       17773.00     77623.88
  102.46        2971.00           1502       16240.00     70911.37
  102.49        2971.25           1506       13962.00     60941.75
  102.52        2971.50           1509       12198.00     53225.73
  102.56        2971.75           1513       10090.00     44009.68
  102.59        2972.00           1516        8373.00     36506.83
  102.62        2972.25           1519        6760.00     29461.51
  102.65        2972.50           1523        4576.00     19926.90
  102.68        2972.75           1526        3109.00     13525.54
  102.71        2973.00           1529        1608.00      6978.36
  102.74        2973.25           1533         581.00      2500.19
  102.77        2973.50           1536         370.00      1580.28
  102.80        2973.75           1539         333.00      1418.98
  102.83        2974.00           1543         279.00      1183.56
  102.86        2974.25           1546         211.00       887.12
  102.90        2974.50           1549         165.00       686.59
  102.93        2974.75           1553         119.00       486.06
  102.96        2975.00           1556          99.00       398.87
  102.99        2975.25           1559          86.00       342.20
  103.02        2975.50           1563          90.00       359.64
  103.05        2975.75           1566          87.00       346.56
  103.08        2976.00           1569          82.00       324.76
  103.11        2976.25           1573          81.00       320.40
  103.14        2976.50           1576          84.00       333.48
  103.17        2976.75           1579          79.00       311.69
  103.20        2977.00           1583          88.00       350.92
  103.23        2977.25           1586          87.00       346.56
  103.27        2977.50           1590          88.00       350.92
  103.30        2977.75           1593          92.00       368.36
  103.33        2978.00           1596          94.00       377.07
  103.36        2978.25           1600          84.00       333.48
  103.39        2978.50           1603          82.00       324.76
  103.42        2978.75           1606          84.00       333.48
  103.45        2979.00           1610          81.00       320.40
  103.48        2979.25           1613          84.00       333.48
  103.51        2979.50           1616          80.00       316.04
  103.54        2979.75           1620          70.00       272.45
  103.57        2980.00           1623          81.00       320.40
  103.60        2980.25           1626          78.00       307.33
  103.64        2980.50           1630          79.00       311.69
  103.67        2980.75           1633          78.00       307.33
  103.70        2981.00           1637          87.00       346.56
  103.73        2981.25           1640          77.00       302.97
  103.76        2981.50           1643          78.00       307.33
  103.79        2981.75           1647          89.00       355.28
  103.82        2982.00           1650          73.00       285.53
  103.85        2982.25           1653          70.00       272.45
  103.88        2982.50           1657          78.00       307.33
  103.91        2982.75           1660          76.00       298.61
  103.94        2983.00           1663          79.00       311.69
  103.97        2983.25           1667          80.00       316.04
  104.00        2983.50           1670          71.00       276.81
  104.03        2983.75           1673          76.00       298.61
  104.07        2984.00           1677          78.00       307.33
HS scan finished at 01:44:17
end
************************************************************
  HS Scan of (1) Internal mercury lamp
************************************************************
Integration time is 0.2294 seconds per sample
dh030817Manchester 53.47 2.23 2.857833pr1000
************************************************************
Dead Time -------------------------  3E-08 
Number of Cycles Used -------------  4 
Starting Wavelength (Angstroms) ---  2950 
Final Wavelength (Angstoms) -------  2984 
Wavelength Increment (Angstroms) --  .25 
Filter Wheel #1 Position ---------- (1) Ground quartz diffuser (ND=2.32)
Filter Wheel #2 Position ---------- (1) Neutral Density 0.494



************************************************************
HS scan start time = 21:11:59
Dark Count =  5.7 


Time (GMT)  Wavelength (Ang)  Step Number  Raw Counts  Counts/Second

 1272.36        2950.00           1222          96.00       393.64
 1272.43        2950.25           1226         100.00       411.08
 1272.46        2950.50           1229          92.00       376.20
 1272.49        2950.75           1232         115.00       476.47
 1272.52        2951.00           1236          98.00       402.36
 1272.55        2951.25           1239          96.00       393.64
 1272.58        2951.50           1242          89.00       363.13
 1272.61        2951.75           1246          84.00       341.33
 1272.64        2952.00           1249          89.00       363.13
 1272.67        2952.25           1252          92.00       376.20
 1272.70        2952.50           1256          88.00       358.77
 1272.73        2952.75           1259          93.00       380.56
 1272.76        2953.00           1262          92.00       376.20
 1272.79        2953.25           1266          91.00       371.84
 1272.82        2953.50           1269         107.00       441.59
 1272.85        2953.75           1272          94.00       384.92
 1272.89        2954.00           1276          96.00       393.64
 1272.92        2954.25           1279          90.00       367.48
 1272.95        2954.50           1282          91.00       371.84
 1272.98        2954.75           1286         108.00       445.95
 1273.01        2955.00           1289          91.00       371.84
 1273.04        2955.25           1292          92.00       376.20
 1273.07        2955.50           1296          85.00       345.69
 1273.10        2955.75           1299          98.00       402.36
 1273.13        2956.00           1302          89.00       363.13
 1273.16        2956.25           1306          94.00       384.92
 1273.19        2956.50           1309          88.00       358.77
 1273.23        2956.75           1312          92.00       376.20
 1273.26        2957.00           1316          87.00       354.41
 1273.29        2957.25           1319          97.00       398.00
 1273.32        2957.50           1322          88.00       358.77
 1273.35        2957.75           1326          90.00       367.48
 1273.38        2958.00           1329          92.00       376.20
 1273.41        2958.25           1332          86.00       350.05
 1273.44        2958.50           1336          84.00       341.33
 1273.47        2958.75           1339          92.00       376.20
 1273.50        2959.00           1342          89.00       363.13
 1273.53        2959.25           1346          99.00       406.72
 1273.57        2959.50           1349         103.00       424.16
 1273.60        2959.75           1352         112.00       463.39
 1273.63        2960.00           1356         156.00       655.20
 1273.66        2960.25           1359         172.00       724.95
 1273.69        2960.50           1362         225.00       956.00
 1273.72        2960.75           1366         286.00      1221.93
 1273.75        2961.00           1369         320.00      1370.15
 1273.78        2961.25           1372         355.00      1522.74
 1273.81        2961.50           1376         439.00      1888.95
 1273.84        2961.75           1379         544.00      2346.72
 1273.87        2962.00           1382         979.00      4243.35
 1273.90        2962.25           1386        2776.00     12080.66
 1273.93        2962.50           1389        4353.00     18961.52
 1273.96        2962.75           1392        5858.00     25530.88
 1273.99        2963.00           1396        8003.00     34898.33
 1274.03        2963.25           1399        9559.00     41696.85
 1274.06        2963.50           1402       11152.00     48659.92
 1274.09        2963.75           1406       13512.00     58980.91
 1274.12        2964.00           1409       15300.00     66804.63
 1274.15        2964.25           1412       16998.00     74237.96
 1274.18        2964.50           1416       19435.00     84912.19
 1274.21        2964.75           1419       21000.00     91770.62
 1274.24        2965.00           1422       22869.00     99965.00
 1274.27        2965.25           1426       24995.00    109291.10
 1274.30        2965.50           1429       26620.00    116422.90
 1274.34        2965.75           1432       28397.00    124225.40
 1274.37        2966.00           1436       30659.00    134162.70
 1274.40        2966.25           1439       32050.00    140276.50
 1274.43        2966.50           1442       33484.00    146581.70
 1274.46        2966.75           1446       35470.00    155317.90
 1274.49        2967.00           1449       36152.00    158319.10
 1274.52        2967.25           1452       36522.00    159947.40
 1274.55        2967.50           1456       36673.00    160612.10
 1274.58        2967.75           1459       36513.00    159907.80
 1274.61        2968.00           1462       36463.00    159687.80
 1274.64        2968.25           1466       35692.00    156294.80
 1274.68        2968.50           1469       34536.00    151208.80
 1274.71        2968.75           1472       32903.00    144026.80
 1274.74        2969.00           1476       30687.00    134285.80
 1274.77        2969.25           1479       29014.00    126935.40
 1274.80        2969.50           1482       27377.00    119746.30
 1274.83        2969.75           1486       25261.00    110458.30
 1274.86        2970.00           1489       23621.00    103263.20
 1274.89        2970.25           1492       21874.00     95602.06
 1274.92        2970.50           1496       19778.00     86415.11
 1274.95        2970.75           1499       18129.00     79190.97
 1274.98        2971.00           1502       16137.00     70468.35
 1275.02        2971.25           1506       13936.00     60835.87
 1275.05        2971.50           1509       12268.00     53539.73
 1275.08        2971.75           1513       10026.00     43737.83
 1275.11        2972.00           1516        8348.00     36405.48
 1275.14        2972.25           1519        6778.00     29547.98
 1275.17        2972.50           1523        4565.00     19886.75
 1275.20        2972.75           1526        3063.00     13332.71
 1275.23        2973.00           1529        1565.00      6798.68
 1275.26        2973.25           1533         569.00      2455.72
 1275.29        2973.50           1536         393.00      1688.40
 1275.32        2973.75           1539         341.00      1461.70
 1275.35        2974.00           1543         276.00      1178.33
 1275.39        2974.25           1546         211.00       894.97
 1275.42        2974.50           1549         167.00       703.15
 1275.45        2974.75           1553         120.00       498.26
 1275.48        2975.00           1556         115.00       476.47
 1275.51        2975.25           1559          92.00       376.20
 1275.54        2975.50           1563          84.00       341.33
 1275.57        2975.75           1566          79.00       319.53
 1275.60        2976.00           1569          85.00       345.69
 1275.63        2976.25           1573          84.00       341.33
 1275.66        2976.50           1576          78.00       315.17
 1275.69        2976.75           1579          84.00       341.33
 1275.72        2977.00           1583          89.00       363.13
 1275.75        2977.25           1586          83.00       336.97
 1275.78        2977.50           1590          83.00       336.97
 1275.81        2977.75           1593          81.00       328.25
 1275.84        2978.00           1596          77.00       310.81
 1275.88        2978.25           1600          79.00       319.53
 1275.91        2978.50           1603          84.00       341.33
 1275.94        2978.75           1606          72.00       289.02
 1275.97        2979.00           1610          79.00       319.53
 1276.00        2979.25           1613          72.00       289.02
 1276.03        2979.50           1616          88.00       358.77
 1276.06        2979.75           1620          80.00       323.89
 1276.09        2980.00           1623          85.00       345.69
 1276.12        2980.25           1626          86.00       350.05
 1276.15        2980.50           1630          90.00       367.48
 1276.18        2980.75           1633          77.00       310.81
 1276.21        2981.00           1637          79.00       319.53
 1276.25        2981.25           1640          78.00       315.17
 1276.28        2981.50           1643          78.00       315.17
 1276.31        2981.75           1647          87.00       354.41
 1276.34        2982.00           1650          80.00       323.89
 1276.37        2982.25           1653          81.00       328.25
 1276.40        2982.50           1657          82.00       332.61
 1276.43        2982.75           1660          84.00       341.33
 1276.46        2983.00           1663          80.00       323.89
 1276.49        2983.25           1667          74.00       297.74
 1276.52        2983.50           1670          77.00       310.81
 1276.55        2983.75           1673          73.00       293.38
 1276.58        2984.00           1677          81.00       328.25
HS scan finished at 21:16:48
end
