************************************************************
  HS Scan of (1) Internal mercury lamp
************************************************************
Integration time is 0.2294 seconds per sample
dh020818Manchester 53.47 2.23 3.018777pr1000
************************************************************
Dead Time -------------------------  3E-08 
Number of Cycles Used -------------  4 
Starting Wavelength (Angstroms) ---  2950 
Final Wavelength (Angstoms) -------  2984 
Wavelength Increment (Angstroms) --  .25 
Filter Wheel #1 Position ---------- (1) Ground quartz diffuser (ND=2.32)
Filter Wheel #2 Position ---------- (1) Neutral Density 0.494



************************************************************
HS scan start time = 02:21:35
Dark Count =  6.6 


Time (GMT)  Wavelength (Ang)  Step Number  Raw Counts  Counts/Second

  141.94        2950.00           1222          47.00       176.11
  142.01        2950.25           1226          52.00       197.91
  142.04        2950.50           1229          54.00       206.63
  142.08        2950.75           1232          49.00       184.83
  142.11        2951.00           1236          55.00       210.99
  142.14        2951.25           1239          58.00       224.06
  142.17        2951.50           1242          59.00       228.42
  142.20        2951.75           1246          56.00       215.35
  142.23        2952.00           1249          47.00       176.11
  142.26        2952.25           1252          60.00       232.78
  142.29        2952.50           1256          58.00       224.06
  142.32        2952.75           1259          58.00       224.06
  142.35        2953.00           1262          55.00       210.99
  142.38        2953.25           1266          53.00       202.27
  142.42        2953.50           1269          51.00       193.55
  142.45        2953.75           1272          59.00       228.42
  142.48        2954.00           1276          58.00       224.06
  142.51        2954.25           1279          49.00       184.83
  142.54        2954.50           1282          53.00       202.27
  142.57        2954.75           1286          56.00       215.35
  142.60        2955.00           1289          55.00       210.99
  142.63        2955.25           1292          48.00       180.47
  142.66        2955.50           1296          51.00       193.55
  142.69        2955.75           1299          51.00       193.55
  142.73        2956.00           1302          53.00       202.27
  142.76        2956.25           1306          58.00       224.06
  142.79        2956.50           1309          47.00       176.11
  142.82        2956.75           1312          54.00       206.63
  142.85        2957.00           1316          50.00       189.19
  142.88        2957.25           1319          51.00       193.55
  142.91        2957.50           1322          49.00       184.83
  142.94        2957.75           1326          45.00       167.39
  142.97        2958.00           1329          55.00       210.99
  143.00        2958.25           1332          60.00       232.78
  143.04        2958.50           1336          52.00       197.91
  143.07        2958.75           1339          49.00       184.83
  143.10        2959.00           1342          47.00       176.11
  143.13        2959.25           1346          54.00       206.63
  143.16        2959.50           1349          67.00       263.30
  143.19        2959.75           1352          78.00       311.25
  143.22        2960.00           1356         102.00       415.87
  143.25        2960.25           1359         131.00       542.29
  143.28        2960.50           1362         169.00       707.95
  143.31        2960.75           1366         205.00       864.89
  143.34        2961.00           1369         242.00      1026.19
  143.38        2961.25           1372         287.00      1222.36
  143.41        2961.50           1376         368.00      1575.49
  143.44        2961.75           1379         551.00      2373.32
  143.47        2962.00           1382        1172.00      5080.98
  143.50        2962.25           1386        2780.00     12094.19
  143.53        2962.50           1389        4237.00     18451.36
  143.56        2962.75           1392        5749.00     25051.08
  143.59        2963.00           1396        7691.00     33531.54
  143.62        2963.25           1399        9066.00     39538.59
  143.66        2963.50           1402       10457.00     45617.75
  143.69        2963.75           1406       12551.00     54773.46
  143.72        2964.00           1409       13903.00     60687.55
  143.75        2964.25           1412       15542.00     67859.90
  143.78        2964.50           1416       17280.00     75468.85
  143.81        2964.75           1419       18715.00     81753.90
  143.84        2965.00           1422       20215.00     88326.15
  143.87        2965.25           1426       22204.00     97044.99
  143.90        2965.50           1429       23702.00    103614.50
  143.94        2965.75           1432       25043.00    109497.70
  143.97        2966.00           1436       27303.00    119417.50
  144.00        2966.25           1439       28664.00    125394.10
  144.03        2966.50           1442       30026.00    131377.30
  144.06        2966.75           1446       31299.00    136971.50
  144.09        2967.00           1449       31603.00    138307.70
  144.12        2967.25           1452       31626.00    138408.80
  144.15        2967.50           1456       31571.00    138167.00
  144.18        2967.75           1459       31414.00    137476.90
  144.22        2968.00           1462       31473.00    137736.20
  144.25        2968.25           1466       30534.00    133609.50
  144.28        2968.50           1469       29171.00    127621.10
  144.31        2968.75           1472       27772.00    121476.80
  144.34        2969.00           1476       25935.00    113412.30
  144.37        2969.25           1479       24352.00    106465.90
  144.40        2969.50           1482       22881.00    100013.70
  144.43        2969.75           1486       21022.00     91863.11
  144.46        2970.00           1489       19487.00     85136.09
  144.50        2970.25           1492       18120.00     79147.61
  144.53        2970.50           1496       16298.00     71169.22
  144.56        2970.75           1499       14791.00     64573.10
  144.59        2971.00           1502       13449.00     58701.37
  144.62        2971.25           1506       11512.00     50229.96
  144.65        2971.50           1509        9862.00     43017.12
  144.68        2971.75           1513        7932.00     34584.25
  144.71        2972.00           1516        6388.00     27841.03
  144.74        2972.25           1519        5119.00     22300.88
  144.78        2972.50           1523        3107.00     13520.74
  144.81        2972.75           1526        1770.00      7688.78
  144.84        2973.00           1529         787.00      3402.27
  144.87        2973.25           1533         384.00      1645.24
  144.90        2973.50           1536         309.00      1318.27
  144.93        2973.75           1539         266.00      1130.81
  144.96        2974.00           1543         226.00       956.44
  144.99        2974.25           1546         166.00       694.87
  145.02        2974.50           1549         123.00       507.42
  145.05        2974.75           1553          88.00       354.84
  145.08        2975.00           1556          69.00       272.02
  145.12        2975.25           1559          57.00       219.71
  145.15        2975.50           1563          55.00       210.99
  145.18        2975.75           1566          53.00       202.27
  145.21        2976.00           1569          51.00       193.55
  145.24        2976.25           1573          47.00       176.11
  145.27        2976.50           1576          60.00       232.78
  145.30        2976.75           1579          50.00       189.19
  145.33        2977.00           1583          52.00       197.91
  145.36        2977.25           1586          59.00       228.42
  145.39        2977.50           1590          52.00       197.91
  145.43        2977.75           1593          50.00       189.19
  145.46        2978.00           1596          54.00       206.63
  145.49        2978.25           1600          49.00       184.83
  145.52        2978.50           1603          49.00       184.83
  145.55        2978.75           1606          46.00       171.75
  145.58        2979.00           1610          40.00       145.60
  145.61        2979.25           1613          46.00       171.75
  145.64        2979.50           1616          49.00       184.83
  145.67        2979.75           1620          47.00       176.11
  145.71        2980.00           1623          54.00       206.63
  145.74        2980.25           1626          47.00       176.11
  145.77        2980.50           1630          42.00       154.32
  145.80        2980.75           1633          46.00       171.75
  145.83        2981.00           1637          48.00       180.47
  145.86        2981.25           1640          49.00       184.83
  145.89        2981.50           1643          47.00       176.11
  145.92        2981.75           1647          49.00       184.83
  145.95        2982.00           1650          46.00       171.75
  145.98        2982.25           1653          47.00       176.11
  146.01        2982.50           1657          51.00       193.55
  146.05        2982.75           1660          42.00       154.32
  146.08        2983.00           1663          44.00       163.03
  146.11        2983.25           1667          42.00       154.32
  146.14        2983.50           1670          38.00       136.88
  146.17        2983.75           1673          49.00       184.83
  146.20        2984.00           1677          45.00       167.39
HS scan finished at 02:26:25
end
************************************************************
  HS Scan of (1) Internal mercury lamp
************************************************************
Integration time is 0.2294 seconds per sample
dh020818Manchester 53.47 2.23 3.179721pr1000
************************************************************
Dead Time -------------------------  3E-08 
Number of Cycles Used -------------  4 
Starting Wavelength (Angstroms) ---  2950 
Final Wavelength (Angstoms) -------  2984 
Wavelength Increment (Angstroms) --  .25 
Filter Wheel #1 Position ---------- (1) Ground quartz diffuser (ND=2.32)
Filter Wheel #2 Position ---------- (1) Neutral Density 0.494



************************************************************
HS scan start time = 21:13:20
Dark Count =  4.9 


Time (GMT)  Wavelength (Ang)  Step Number  Raw Counts  Counts/Second

 1273.70        2950.00           1222          53.00       209.68
 1273.77        2950.25           1226          53.00       209.68
 1273.80        2950.50           1229          51.00       200.96
 1273.83        2950.75           1232          52.00       205.32
 1273.86        2951.00           1236          46.00       179.16
 1273.89        2951.25           1239          48.00       187.88
 1273.92        2951.50           1242          52.00       205.32
 1273.96        2951.75           1246          63.00       253.27
 1273.99        2952.00           1249          52.00       205.32
 1274.02        2952.25           1252          46.00       179.16
 1274.05        2952.50           1256          57.00       227.12
 1274.08        2952.75           1259          48.00       187.88
 1274.11        2953.00           1262          53.00       209.68
 1274.14        2953.25           1266          53.00       209.68
 1274.17        2953.50           1269          51.00       200.96
 1274.20        2953.75           1272          48.00       187.88
 1274.23        2954.00           1276          53.00       209.68
 1274.26        2954.25           1279          55.00       218.40
 1274.30        2954.50           1282          50.00       196.60
 1274.33        2954.75           1286          52.00       205.32
 1274.36        2955.00           1289          51.00       200.96
 1274.39        2955.25           1292          50.00       196.60
 1274.42        2955.50           1296          47.00       183.52
 1274.45        2955.75           1299          50.00       196.60
 1274.48        2956.00           1302          50.00       196.60
 1274.51        2956.25           1306          57.00       227.12
 1274.54        2956.50           1309          52.00       205.32
 1274.58        2956.75           1312          47.00       183.52
 1274.61        2957.00           1316          53.00       209.68
 1274.64        2957.25           1319          57.00       227.12
 1274.67        2957.50           1322          49.00       192.24
 1274.70        2957.75           1326          56.00       222.76
 1274.73        2958.00           1329          48.00       187.88
 1274.76        2958.25           1332          51.00       200.96
 1274.79        2958.50           1336          60.00       240.19
 1274.82        2958.75           1339          51.00       200.96
 1274.85        2959.00           1342          52.00       205.32
 1274.89        2959.25           1346          51.00       200.96
 1274.92        2959.50           1349          67.00       270.71
 1274.95        2959.75           1352          78.00       318.66
 1274.98        2960.00           1356         112.00       466.88
 1275.01        2960.25           1359         134.00       562.78
 1275.04        2960.50           1362         167.00       706.64
 1275.07        2960.75           1366         238.00      1016.16
 1275.10        2961.00           1369         282.00      1207.98
 1275.13        2961.25           1372         314.00      1347.48
 1275.17        2961.50           1376         371.00      1595.98
 1275.20        2961.75           1379         476.00      2053.74
 1275.23        2962.00           1382         890.00      3858.77
 1275.26        2962.25           1386        2452.00     10670.81
 1275.29        2962.50           1389        3906.00     17014.35
 1275.32        2962.75           1392        5350.00     23316.66
 1275.35        2963.00           1396        7308.00     31866.11
 1275.38        2963.25           1399        8736.00     38104.13
 1275.41        2963.50           1402       10227.00     44619.84
 1275.45        2963.75           1406       12197.00     53232.72
 1275.48        2964.00           1409       14002.00     61128.13
 1275.51        2964.25           1412       15717.00     68633.33
 1275.54        2964.50           1416       17692.00     77280.53
 1275.57        2964.75           1419       18922.00     82668.15
 1275.60        2965.00           1422       20600.00     90020.90
 1275.63        2965.25           1426       22736.00     99385.24
 1275.66        2965.50           1429       24285.00    106179.50
 1275.70        2965.75           1432       25787.00    112770.20
 1275.73        2966.00           1436       28056.00    122731.40
 1275.76        2966.25           1439       29710.00    129996.40
 1275.79        2966.50           1442       30778.00    134689.20
 1275.82        2966.75           1446       32408.00    141853.90
 1275.85        2967.00           1449       32856.00    143823.70
 1275.88        2967.25           1452       32876.00    143911.60
 1275.91        2967.50           1456       32910.00    144061.10
 1275.94        2967.75           1459       33116.00    144966.90
 1275.97        2968.00           1462       32876.00    143911.60
 1276.01        2968.25           1466       31938.00    139787.70
 1276.04        2968.50           1469       31080.00    136016.40
 1276.07        2968.75           1472       29534.00    129223.20
 1276.10        2969.00           1476       27637.00    120891.50
 1276.13        2969.25           1479       26037.00    113867.40
 1276.16        2969.50           1482       24530.00    107254.30
 1276.19        2969.75           1486       22236.00     97192.74
 1276.22        2970.00           1489       20843.00     91085.97
 1276.25        2970.25           1492       19392.00     84727.29
 1276.29        2970.50           1496       17183.00     75051.53
 1276.32        2970.75           1499       15841.00     69176.11
 1276.35        2971.00           1502       14384.00     62799.55
 1276.38        2971.25           1506       12449.00     54334.79
 1276.41        2971.50           1509       10955.00     47802.15
 1276.44        2971.75           1513        9154.00     39930.54
 1276.47        2972.00           1516        7612.00     33193.90
 1276.50        2972.25           1519        6159.00     26848.56
 1276.54        2972.50           1523        4098.00     17852.19
 1276.58        2972.75           1526        2517.00     10954.34
 1276.61        2973.00           1529        1194.00      5184.33
 1276.64        2973.25           1533         452.00      1949.11
 1276.68        2973.50           1536         321.00      1378.00
 1276.71        2973.75           1539         275.00      1177.46
 1276.74        2974.00           1543         233.00       994.36
 1276.77        2974.25           1546         169.00       715.36
 1276.80        2974.50           1549         122.00       510.47
 1276.83        2974.75           1553          78.00       318.66
 1276.86        2975.00           1556          57.00       227.12
 1276.89        2975.25           1559          62.00       248.91
 1276.92        2975.50           1563          56.00       222.76
 1276.96        2975.75           1566          53.00       209.68
 1276.99        2976.00           1569          52.00       205.32
 1277.02        2976.25           1573          56.00       222.76
 1277.05        2976.50           1576          50.00       196.60
 1277.08        2976.75           1579          51.00       200.96
 1277.11        2977.00           1583          49.00       192.24
 1277.14        2977.25           1586          55.00       218.40
 1277.17        2977.50           1590          56.00       222.76
 1277.20        2977.75           1593          54.00       214.04
 1277.23        2978.00           1596          51.00       200.96
 1277.26        2978.25           1600          46.00       179.16
 1277.30        2978.50           1603          51.00       200.96
 1277.33        2978.75           1606          47.00       183.52
 1277.36        2979.00           1610          41.00       157.37
 1277.39        2979.25           1613          51.00       200.96
 1277.42        2979.50           1616          55.00       218.40
 1277.45        2979.75           1620          47.00       183.52
 1277.48        2980.00           1623          50.00       196.60
 1277.51        2980.25           1626          47.00       183.52
 1277.54        2980.50           1630          48.00       187.88
 1277.58        2980.75           1633          53.00       209.68
 1277.61        2981.00           1637          46.00       179.16
 1277.64        2981.25           1640          52.00       205.32
 1277.67        2981.50           1643          49.00       192.24
 1277.70        2981.75           1647          49.00       192.24
 1277.73        2982.00           1650          55.00       218.40
 1277.76        2982.25           1653          55.00       218.40
 1277.79        2982.50           1657          41.00       157.37
 1277.83        2982.75           1660          50.00       196.60
 1277.86        2983.00           1663          48.00       187.88
 1277.89        2983.25           1667          48.00       187.88
 1277.92        2983.50           1670          45.00       174.80
 1277.95        2983.75           1673          48.00       187.88
 1277.98        2984.00           1677          53.00       209.68
HS scan finished at 21:18:12
end
