************************************************************
  HS Scan of (1) Internal mercury lamp
************************************************************
Integration time is 0.2294 seconds per sample
dh310717Manchester 53.47 2.23 2.804185pr1000
************************************************************
Dead Time -------------------------  3E-08 
Number of Cycles Used -------------  4 
Starting Wavelength (Angstroms) ---  2950 
Final Wavelength (Angstoms) -------  2984 
Wavelength Increment (Angstroms) --  .25 
Filter Wheel #1 Position ---------- (1) Ground quartz diffuser (ND=2.32)
Filter Wheel #2 Position ---------- (1) Neutral Density 0.494



************************************************************
HS scan start time = 01:43:51
Dark Count =  4.6 


Time (GMT)  Wavelength (Ang)  Step Number  Raw Counts  Counts/Second

  104.22        2950.00           1222          89.00       367.92
  104.29        2950.25           1226         105.00       437.67
  104.32        2950.50           1229          84.00       346.12
  104.35        2950.75           1232          90.00       372.28
  104.38        2951.00           1236          99.00       411.51
  104.41        2951.25           1239          94.00       389.72
  104.44        2951.50           1242          98.00       407.15
  104.47        2951.75           1246         105.00       437.67
  104.51        2952.00           1249          94.00       389.72
  104.54        2952.25           1252          99.00       411.51
  104.57        2952.50           1256          91.00       376.64
  104.60        2952.75           1259         101.00       420.23
  104.63        2953.00           1262          89.00       367.92
  104.66        2953.25           1266          97.00       402.79
  104.69        2953.50           1269          92.00       381.00
  104.72        2953.75           1272          96.00       398.44
  104.75        2954.00           1276          93.00       385.36
  104.78        2954.25           1279          87.00       359.20
  104.81        2954.50           1282          98.00       407.15
  104.84        2954.75           1286          94.00       389.72
  104.87        2955.00           1289          82.00       337.41
  104.91        2955.25           1292          93.00       385.36
  104.94        2955.50           1296          93.00       385.36
  104.97        2955.75           1299          81.00       333.05
  105.00        2956.00           1302          88.00       363.56
  105.03        2956.25           1306          99.00       411.51
  105.06        2956.50           1309          92.00       381.00
  105.09        2956.75           1312          95.00       394.08
  105.12        2957.00           1316          92.00       381.00
  105.15        2957.25           1319          99.00       411.51
  105.18        2957.50           1322          85.00       350.48
  105.21        2957.75           1326          97.00       402.79
  105.25        2958.00           1329          88.00       363.56
  105.28        2958.25           1332          93.00       385.36
  105.31        2958.50           1336          90.00       372.28
  105.34        2958.75           1339          93.00       385.36
  105.37        2959.00           1342          84.00       346.12
  105.40        2959.25           1346         106.00       442.03
  105.43        2959.50           1349         133.00       559.73
  105.46        2959.75           1352         126.00       529.22
  105.49        2960.00           1356         146.00       616.40
  105.52        2960.25           1359         193.00       821.29
  105.56        2960.50           1362         237.00      1013.11
  105.59        2960.75           1366         307.00      1318.27
  105.62        2961.00           1369         342.00      1470.86
  105.65        2961.25           1372         391.00      1684.48
  105.68        2961.50           1376         510.00      2203.28
  105.71        2961.75           1379         917.00      3977.81
  105.74        2962.00           1382        1898.00      8255.75
  105.77        2962.25           1386        4061.00     17692.04
  105.80        2962.50           1389        5616.00     24479.18
  105.84        2962.75           1392        7172.00     31273.44
  105.87        2963.00           1396        9269.00     40434.38
  105.90        2963.25           1399       10916.00     47632.98
  105.93        2963.50           1402       12606.00     55022.75
  105.96        2963.75           1406       14855.00     64861.93
  105.99        2964.00           1409       16629.00     72627.13
  106.02        2964.25           1412       18389.00     80334.62
  106.05        2964.50           1416       20593.00     89991.55
  106.08        2964.75           1419       22248.00     97246.69
  106.11        2965.00           1422       23855.00    104294.40
  106.14        2965.25           1426       25901.00    113271.80
  106.18        2965.50           1429       27755.00    121410.90
  106.21        2965.75           1432       29322.00    128293.20
  106.24        2966.00           1436       31197.00    136531.90
  106.27        2966.25           1439       33133.00    145043.00
  106.30        2966.50           1442       34427.00    150734.10
  106.33        2966.75           1446       35924.00    157320.50
  106.36        2967.00           1449       35968.00    157514.20
  106.39        2967.25           1452       36139.00    158266.70
  106.42        2967.50           1456       35923.00    157316.10
  106.46        2967.75           1459       35966.00    157505.40
  106.49        2968.00           1462       35540.00    155630.80
  106.52        2968.25           1466       34410.00    150659.40
  106.55        2968.50           1469       32662.00    142972.00
  106.58        2968.75           1472       31106.00    136132.00
  106.61        2969.00           1476       29131.00    127454.20
  106.64        2969.25           1479       27416.00    119922.40
  106.67        2969.50           1482       25624.00    112056.10
  106.70        2969.75           1486       23564.00    103018.00
  106.74        2970.00           1489       21859.00     95541.10
  106.77        2970.25           1492       20292.00     88672.37
  106.80        2970.50           1496       18053.00     78862.91
  106.83        2970.75           1499       16446.00     71825.93
  106.86        2971.00           1502       14693.00     64152.99
  106.89        2971.25           1506       12262.00     53518.29
  106.92        2971.50           1509       10782.00     47047.18
  106.95        2971.75           1513        8767.00     38240.88
  106.98        2972.00           1516        7027.00     30640.18
  107.01        2972.25           1519        5356.00     23344.16
  107.04        2972.50           1523        3186.00     13874.13
  107.08        2972.75           1526        1693.00      7361.70
  107.11        2973.00           1529         742.00      3214.78
  107.14        2973.25           1533         414.00      1784.75
  107.17        2973.50           1536         349.00      1501.38
  107.20        2973.75           1539         291.00      1248.52
  107.23        2974.00           1543         248.00      1061.06
  107.26        2974.25           1546         190.00       808.21
  107.29        2974.50           1549         146.00       616.40
  107.32        2974.75           1553         106.00       442.03
  107.36        2975.00           1556         105.00       437.67
  107.39        2975.25           1559          84.00       346.12
  107.42        2975.50           1563          93.00       385.36
  107.45        2975.75           1566          99.00       411.51
  107.48        2976.00           1569          94.00       389.72
  107.51        2976.25           1573          88.00       363.56
  107.54        2976.50           1576          84.00       346.12
  107.57        2976.75           1579          90.00       372.28
  107.60        2977.00           1583          92.00       381.00
  107.63        2977.25           1586          82.00       337.41
  107.66        2977.50           1590          73.00       298.17
  107.70        2977.75           1593          89.00       367.92
  107.73        2978.00           1596          85.00       350.48
  107.76        2978.25           1600          79.00       324.33
  107.79        2978.50           1603          79.00       324.33
  107.82        2978.75           1606          96.00       398.44
  107.85        2979.00           1610          84.00       346.12
  107.88        2979.25           1613          90.00       372.28
  107.91        2979.50           1616          85.00       350.48
  107.94        2979.75           1620          87.00       359.20
  107.97        2980.00           1623          85.00       350.48
  108.01        2980.25           1626          83.00       341.76
  108.04        2980.50           1630          80.00       328.69
  108.07        2980.75           1633          79.00       324.33
  108.10        2981.00           1637          78.00       319.97
  108.13        2981.25           1640          83.00       341.76
  108.16        2981.50           1643          87.00       359.20
  108.19        2981.75           1647          76.00       311.25
  108.22        2982.00           1650          78.00       319.97
  108.25        2982.25           1653          93.00       385.36
  108.28        2982.50           1657          79.00       324.33
  108.31        2982.75           1660          84.00       346.12
  108.34        2983.00           1663          88.00       363.56
  108.37        2983.25           1667          80.00       328.69
  108.40        2983.50           1670          78.00       319.97
  108.43        2983.75           1673          86.00       354.84
  108.46        2984.00           1677          70.00       285.09
HS scan finished at 01:48:41
end
************************************************************
  HS Scan of (1) Internal mercury lamp
************************************************************
Integration time is 0.2294 seconds per sample
dh310717Manchester 53.47 2.23 2.857833pr1000
************************************************************
Dead Time -------------------------  3E-08 
Number of Cycles Used -------------  4 
Starting Wavelength (Angstroms) ---  2950 
Final Wavelength (Angstoms) -------  2984 
Wavelength Increment (Angstroms) --  .25 
Filter Wheel #1 Position ---------- (1) Ground quartz diffuser (ND=2.32)
Filter Wheel #2 Position ---------- (1) Neutral Density 0.494



************************************************************
HS scan start time = 21:13:14
Dark Count =  5.9 


Time (GMT)  Wavelength (Ang)  Step Number  Raw Counts  Counts/Second

 1273.61        2950.00           1222          96.00       392.77
 1273.67        2950.25           1226          93.00       379.69
 1273.71        2950.50           1229          92.00       375.33
 1273.74        2950.75           1232          94.00       384.05
 1273.77        2951.00           1236         100.00       410.21
 1273.80        2951.25           1239          93.00       379.69
 1273.83        2951.50           1242          95.00       388.41
 1273.86        2951.75           1246          94.00       384.05
 1273.89        2952.00           1249          92.00       375.33
 1273.92        2952.25           1252         104.00       427.64
 1273.95        2952.50           1256          98.00       401.49
 1273.98        2952.75           1259         103.00       423.28
 1274.01        2953.00           1262          90.00       366.61
 1274.04        2953.25           1266          93.00       379.69
 1274.07        2953.50           1269         103.00       423.28
 1274.10        2953.75           1272          89.00       362.25
 1274.13        2954.00           1276          93.00       379.69
 1274.17        2954.25           1279         103.00       423.28
 1274.20        2954.50           1282          86.00       349.18
 1274.23        2954.75           1286          88.00       357.89
 1274.26        2955.00           1289          93.00       379.69
 1274.29        2955.25           1292          99.00       405.85
 1274.32        2955.50           1296          91.00       370.97
 1274.35        2955.75           1299          85.00       344.82
 1274.38        2956.00           1302          86.00       349.18
 1274.41        2956.25           1306         101.00       414.56
 1274.44        2956.50           1309         109.00       449.44
 1274.47        2956.75           1312          99.00       405.85
 1274.50        2957.00           1316          99.00       405.85
 1274.53        2957.25           1319          90.00       366.61
 1274.56        2957.50           1322          93.00       379.69
 1274.59        2957.75           1326          96.00       392.77
 1274.62        2958.00           1329         103.00       423.28
 1274.65        2958.25           1332          90.00       366.61
 1274.69        2958.50           1336         106.00       436.36
 1274.72        2958.75           1339          88.00       357.89
 1274.75        2959.00           1342          97.00       397.13
 1274.78        2959.25           1346          91.00       370.97
 1274.81        2959.50           1349         112.00       462.52
 1274.84        2959.75           1352         114.00       471.24
 1274.87        2960.00           1356         154.00       645.61
 1274.90        2960.25           1359         179.00       754.59
 1274.93        2960.50           1362         230.00       976.92
 1274.96        2960.75           1366         286.00      1221.06
 1274.99        2961.00           1369         311.00      1330.04
 1275.02        2961.25           1372         374.00      1604.70
 1275.05        2961.50           1376         445.00      1914.23
 1275.08        2961.75           1379         518.00      2232.49
 1275.11        2962.00           1382         813.00      3518.68
 1275.14        2962.25           1386        2086.00      9070.04
 1275.18        2962.50           1389        3650.00     15892.93
 1275.21        2962.75           1392        5129.00     22347.59
 1275.24        2963.00           1396        7249.00     31604.06
 1275.27        2963.25           1399        8964.00     39095.96
 1275.30        2963.50           1402       10475.00     45699.49
 1275.33        2963.75           1406       12747.00     55633.75
 1275.36        2964.00           1409       14688.00     64125.42
 1275.39        2964.25           1412       16236.00     70900.87
 1275.42        2964.50           1416       18665.00     81537.93
 1275.46        2964.75           1419       20290.00     88657.90
 1275.49        2965.00           1422       21913.00     95772.16
 1275.52        2965.25           1426       24263.00    106078.50
 1275.55        2965.50           1429       26045.00    113898.10
 1275.58        2965.75           1432       27801.00    121607.20
 1275.61        2966.00           1436       29877.00    130725.70
 1275.64        2966.25           1439       31495.00    137836.00
 1275.67        2966.50           1442       33271.00    145644.20
 1275.70        2966.75           1446       34866.00    152659.60
 1275.73        2967.00           1449       35779.00    156676.70
 1275.76        2967.25           1452       35833.00    156914.40
 1275.79        2967.50           1456       35901.00    157213.60
 1275.83        2967.75           1459       36002.00    157658.10
 1275.86        2968.00           1462       35864.00    157050.80
 1275.89        2968.25           1466       35062.00    153521.90
 1275.92        2968.50           1469       34352.00    150398.50
 1275.95        2968.75           1472       32700.00    143133.40
 1275.98        2969.00           1476       30476.00    133357.70
 1276.01        2969.25           1479       28940.00    126609.50
 1276.04        2969.50           1482       27589.00    120676.30
 1276.07        2969.75           1486       25030.00    109443.80
 1276.10        2970.00           1489       23417.00    102367.50
 1276.14        2970.25           1492       21671.00     94711.19
 1276.17        2970.50           1496       19605.00     85656.19
 1276.20        2970.75           1499       17967.00     78480.56
 1276.23        2971.00           1502       16455.00     71859.63
 1276.26        2971.25           1506       14329.00     62554.51
 1276.29        2971.50           1509       12529.00     54680.30
 1276.32        2971.75           1513       10404.00     45389.14
 1276.35        2972.00           1516        8830.00     38510.46
 1276.38        2972.25           1519        7022.00     30612.67
 1276.41        2972.50           1523        4963.00     21623.00
 1276.44        2972.75           1526        3461.00     15068.28
 1276.47        2973.00           1529        1860.00      8084.35
 1276.50        2973.25           1533         655.00      2829.80
 1276.54        2973.50           1536         414.00      1779.08
 1276.57        2973.75           1539         328.00      1404.16
 1276.60        2974.00           1543         291.00      1242.85
 1276.63        2974.25           1546         221.00       937.69
 1276.66        2974.50           1549         182.00       767.67
 1276.69        2974.75           1553         138.00       575.86
 1276.72        2975.00           1556         113.00       466.88
 1276.75        2975.25           1559          95.00       388.41
 1276.78        2975.50           1563          91.00       370.97
 1276.81        2975.75           1566          91.00       370.97
 1276.84        2976.00           1569          87.00       353.53
 1276.88        2976.25           1573          85.00       344.82
 1276.91        2976.50           1576          89.00       362.25
 1276.94        2976.75           1579          81.00       327.38
 1276.97        2977.00           1583          90.00       366.61
 1277.00        2977.25           1586          92.00       375.33
 1277.03        2977.50           1590          88.00       357.89
 1277.06        2977.75           1593          86.00       349.18
 1277.09        2978.00           1596          83.00       336.10
 1277.12        2978.25           1600          80.00       323.02
 1277.15        2978.50           1603          80.00       323.02
 1277.18        2978.75           1606          88.00       357.89
 1277.21        2979.00           1610          88.00       357.89
 1277.24        2979.25           1613          79.00       318.66
 1277.27        2979.50           1616          97.00       397.13
 1277.30        2979.75           1620          75.00       301.22
 1277.33        2980.00           1623          86.00       349.18
 1277.37        2980.25           1626          85.00       344.82
 1277.40        2980.50           1630          79.00       318.66
 1277.43        2980.75           1633          85.00       344.82
 1277.46        2981.00           1637          78.00       314.30
 1277.49        2981.25           1640          76.00       305.58
 1277.52        2981.50           1643          74.00       296.86
 1277.55        2981.75           1647          76.00       305.58
 1277.58        2982.00           1650          87.00       353.53
 1277.61        2982.25           1653          78.00       314.30
 1277.64        2982.50           1657          79.00       318.66
 1277.67        2982.75           1660          82.00       331.74
 1277.71        2983.00           1663          85.00       344.82
 1277.74        2983.25           1667          79.00       318.66
 1277.77        2983.50           1670          91.00       370.97
 1277.80        2983.75           1673          75.00       301.22
 1277.83        2984.00           1677          69.00       275.07
HS scan finished at 21:18:03
end
