************************************************************
  HS Scan of (1) Internal mercury lamp
************************************************************
Integration time is 0.2294 seconds per sample
dh290718Manchester 53.47 2.23 2.857833pr1000
************************************************************
Dead Time -------------------------  3E-08 
Number of Cycles Used -------------  4 
Starting Wavelength (Angstroms) ---  2950 
Final Wavelength (Angstoms) -------  2984 
Wavelength Increment (Angstroms) --  .25 
Filter Wheel #1 Position ---------- (1) Ground quartz diffuser (ND=2.32)
Filter Wheel #2 Position ---------- (1) Neutral Density 0.494



************************************************************
HS scan start time = 01:32:35
Dark Count =  5.5 


Time (GMT)  Wavelength (Ang)  Step Number  Raw Counts  Counts/Second

   92.95        2950.00           1222          60.00       237.58
   93.02        2950.25           1226          58.00       228.86
   93.05        2950.50           1229          56.00       220.14
   93.08        2950.75           1232          59.00       233.22
   93.12        2951.00           1236          56.00       220.14
   93.15        2951.25           1239          54.00       211.42
   93.18        2951.50           1242          56.00       220.14
   93.21        2951.75           1246          62.00       246.30
   93.24        2952.00           1249          54.00       211.42
   93.27        2952.25           1252          50.00       193.99
   93.30        2952.50           1256          55.00       215.78
   93.33        2952.75           1259          50.00       193.99
   93.36        2953.00           1262          55.00       215.78
   93.40        2953.25           1266          57.00       224.50
   93.43        2953.50           1269          52.00       202.70
   93.46        2953.75           1272          57.00       224.50
   93.49        2954.00           1276          52.00       202.70
   93.52        2954.25           1279          58.00       228.86
   93.55        2954.50           1282          51.00       198.34
   93.58        2954.75           1286          69.00       276.81
   93.61        2955.00           1289          53.00       207.06
   93.64        2955.25           1292          54.00       211.42
   93.67        2955.50           1296          56.00       220.14
   93.70        2955.75           1299          60.00       237.58
   93.73        2956.00           1302          50.00       193.99
   93.77        2956.25           1306          59.00       233.22
   93.80        2956.50           1309          61.00       241.94
   93.83        2956.75           1312          54.00       211.42
   93.86        2957.00           1316          49.00       189.63
   93.89        2957.25           1319          47.00       180.91
   93.92        2957.50           1322          57.00       224.50
   93.95        2957.75           1326          48.00       185.27
   93.98        2958.00           1329          63.00       250.66
   94.01        2958.25           1332          56.00       220.14
   94.04        2958.50           1336          60.00       237.58
   94.07        2958.75           1339          59.00       233.22
   94.10        2959.00           1342          56.00       220.14
   94.13        2959.25           1346          57.00       224.50
   94.16        2959.50           1349          64.00       255.02
   94.19        2959.75           1352          69.00       276.81
   94.23        2960.00           1356          96.00       394.51
   94.26        2960.25           1359         125.00       520.93
   94.29        2960.50           1362         157.00       660.43
   94.32        2960.75           1366         214.00       908.92
   94.35        2961.00           1369         254.00      1083.30
   94.38        2961.25           1372         278.00      1187.92
   94.41        2961.50           1376         345.00      1480.01
   94.44        2961.75           1379         435.00      1872.38
   94.47        2962.00           1382         785.00      3398.34
   94.50        2962.25           1386        2050.00      8914.76
   94.53        2962.50           1389        3368.00     14664.25
   94.57        2962.75           1392        4645.00     20236.78
   94.60        2963.00           1396        6549.00     28548.85
   94.63        2963.25           1399        7795.00     33990.61
   94.66        2963.50           1402        9315.00     40631.45
   94.69        2963.75           1406       11413.00     49801.90
   94.72        2964.00           1409       12832.00     56007.28
   94.75        2964.25           1412       14499.00     63300.13
   94.78        2964.50           1416       16270.00     71051.47
   94.81        2964.75           1419       17490.00     76393.28
   94.84        2965.00           1422       19054.00     83243.81
   94.87        2965.25           1426       20993.00     91740.81
   94.91        2965.50           1429       22394.00     97882.91
   94.94        2965.75           1432       23885.00    104422.10
   94.97        2966.00           1436       25747.00    112592.00
   95.00        2966.25           1439       27075.00    118421.30
   95.03        2966.50           1442       28418.00    124318.50
   95.06        2966.75           1446       29988.00    131215.20
   95.09        2967.00           1449       30440.00    133201.20
   95.12        2967.25           1452       30324.00    132691.50
   95.15        2967.50           1456       30455.00    133267.10
   95.18        2967.75           1459       30602.00    133913.10
   95.21        2968.00           1462       30301.00    132590.40
   95.24        2968.25           1466       29790.00    130345.20
   95.28        2968.50           1469       28817.00    126071.00
   95.31        2968.75           1472       27426.00    119962.40
   95.34        2969.00           1476       25652.00    112175.00
   95.37        2969.25           1479       24355.00    106483.90
   95.40        2969.50           1482       22799.00     99658.90
   95.43        2969.75           1486       20600.00     90018.27
   95.46        2970.00           1489       19299.00     84317.21
   95.49        2970.25           1492       18020.00     78714.44
   95.52        2970.50           1496       16208.00     70780.04
   95.56        2970.75           1499       14805.00     64639.18
   95.59        2971.00           1502       13476.00     58824.30
   95.62        2971.25           1506       11639.00     50790.06
   95.65        2971.50           1509       10243.00     44687.16
   95.68        2971.75           1513        8393.00     36602.94
   95.71        2972.00           1516        7025.00     30627.52
   95.74        2972.25           1519        5731.00     24977.30
   95.77        2972.50           1523        3835.00     16701.91
   95.80        2972.75           1526        2466.00     10729.26
   95.83        2973.00           1529        1272.00      5521.84
   95.87        2973.25           1533         452.00      1946.50
   95.90        2973.50           1536         296.00      1266.40
   95.93        2973.75           1539         229.00       974.31
   95.96        2974.00           1543         176.00       743.26
   95.99        2974.25           1546         141.00       590.68
   96.02        2974.50           1549         106.00       438.11
   96.05        2974.75           1553          82.00       333.48
   96.08        2975.00           1556          76.00       307.33
   96.11        2975.25           1559          66.00       263.73
   96.14        2975.50           1563          50.00       193.99
   96.17        2975.75           1566          57.00       224.50
   96.20        2976.00           1569          52.00       202.70
   96.23        2976.25           1573          53.00       207.06
   96.26        2976.50           1576          52.00       202.70
   96.30        2976.75           1579          54.00       211.42
   96.33        2977.00           1583          51.00       198.34
   96.36        2977.25           1586          50.00       193.99
   96.39        2977.50           1590          60.00       237.58
   96.42        2977.75           1593          47.00       180.91
   96.45        2978.00           1596          51.00       198.34
   96.48        2978.25           1600          45.00       172.19
   96.51        2978.50           1603          56.00       220.14
   96.54        2978.75           1606          48.00       185.27
   96.57        2979.00           1610          52.00       202.70
   96.60        2979.25           1613          46.00       176.55
   96.63        2979.50           1616          59.00       233.22
   96.66        2979.75           1620          49.00       189.63
   96.69        2980.00           1623          51.00       198.34
   96.73        2980.25           1626          55.00       215.78
   96.76        2980.50           1630          45.00       172.19
   96.79        2980.75           1633          45.00       172.19
   96.82        2981.00           1637          48.00       185.27
   96.85        2981.25           1640          53.00       207.06
   96.88        2981.50           1643          47.00       180.91
   96.91        2981.75           1647          47.00       180.91
   96.94        2982.00           1650          51.00       198.34
   96.97        2982.25           1653          44.00       167.83
   97.00        2982.50           1657          43.00       163.47
   97.04        2982.75           1660          54.00       211.42
   97.07        2983.00           1663          54.00       211.42
   97.10        2983.25           1667          44.00       167.83
   97.13        2983.50           1670          48.00       185.27
   97.16        2983.75           1673          48.00       185.27
   97.19        2984.00           1677          45.00       172.19
HS scan finished at 01:37:24
end
************************************************************
  HS Scan of (1) Internal mercury lamp
************************************************************
Integration time is 0.2294 seconds per sample
dh290718Manchester 53.47 2.23 2.857833pr1000
************************************************************
Dead Time -------------------------  3E-08 
Number of Cycles Used -------------  4 
Starting Wavelength (Angstroms) ---  2950 
Final Wavelength (Angstoms) -------  2984 
Wavelength Increment (Angstroms) --  .25 
Filter Wheel #1 Position ---------- (1) Ground quartz diffuser (ND=2.32)
Filter Wheel #2 Position ---------- (1) Neutral Density 0.494



************************************************************
HS scan start time = 21:12:04
Dark Count =  5.7 


Time (GMT)  Wavelength (Ang)  Step Number  Raw Counts  Counts/Second

 1272.44        2950.00           1222          61.00       241.07
 1272.51        2950.25           1226          55.00       214.91
 1272.54        2950.50           1229          52.00       201.83
 1272.57        2950.75           1232          51.00       197.47
 1272.60        2951.00           1236          62.00       245.42
 1272.63        2951.25           1239          53.00       206.19
 1272.66        2951.50           1242          54.00       210.55
 1272.69        2951.75           1246          49.00       188.75
 1272.72        2952.00           1249          52.00       201.83
 1272.76        2952.25           1252          43.00       162.60
 1272.79        2952.50           1256          49.00       188.75
 1272.82        2952.75           1259          55.00       214.91
 1272.85        2953.00           1262          54.00       210.55
 1272.88        2953.25           1266          65.00       258.50
 1272.91        2953.50           1269          57.00       223.63
 1272.94        2953.75           1272          45.00       171.32
 1272.97        2954.00           1276          52.00       201.83
 1273.00        2954.25           1279          52.00       201.83
 1273.03        2954.50           1282          53.00       206.19
 1273.06        2954.75           1286          51.00       197.47
 1273.10        2955.00           1289          51.00       197.47
 1273.13        2955.25           1292          51.00       197.47
 1273.16        2955.50           1296          59.00       232.35
 1273.19        2955.75           1299          55.00       214.91
 1273.22        2956.00           1302          56.00       219.27
 1273.25        2956.25           1306          57.00       223.63
 1273.28        2956.50           1309          59.00       232.35
 1273.31        2956.75           1312          57.00       223.63
 1273.34        2957.00           1316          55.00       214.91
 1273.37        2957.25           1319          59.00       232.35
 1273.40        2957.50           1322          56.00       219.27
 1273.43        2957.75           1326          50.00       193.11
 1273.46        2958.00           1329          53.00       206.19
 1273.50        2958.25           1332          58.00       227.99
 1273.53        2958.50           1336          65.00       258.50
 1273.56        2958.75           1339          54.00       210.55
 1273.59        2959.00           1342          52.00       201.83
 1273.62        2959.25           1346          59.00       232.35
 1273.65        2959.50           1349          68.00       271.58
 1273.68        2959.75           1352          76.00       306.45
 1273.71        2960.00           1356         109.00       450.31
 1273.74        2960.25           1359         146.00       611.61
 1273.77        2960.50           1362         168.00       707.51
 1273.80        2960.75           1366         236.00      1003.95
 1273.83        2961.00           1369         252.00      1073.71
 1273.86        2961.25           1372         311.00      1330.92
 1273.89        2961.50           1376         391.00      1679.68
 1273.92        2961.75           1379         729.00      3153.31
 1273.96        2962.00           1382        1565.00      6798.68
 1273.99        2962.25           1386        3274.00     14253.26
 1274.02        2962.50           1389        4627.00     20157.35
 1274.05        2962.75           1392        5939.00     25884.52
 1274.08        2963.00           1396        7780.00     33924.22
 1274.11        2963.25           1399        9117.00     39765.37
 1274.14        2963.50           1402       10532.00     45949.53
 1274.17        2963.75           1406       12434.00     54265.69
 1274.20        2964.00           1409       13934.00     60827.12
 1274.23        2964.25           1412       15454.00     67478.66
 1274.26        2964.50           1416       17331.00     75696.12
 1274.30        2964.75           1419       18806.00     82156.48
 1274.33        2965.00           1422       20323.00     88803.41
 1274.36        2965.25           1426       21968.00     96014.19
 1274.39        2965.50           1429       23574.00    103057.00
 1274.42        2965.75           1432       24893.00    108843.50
 1274.45        2966.00           1436       26939.00    117823.30
 1274.48        2966.25           1439       28073.00    122802.50
 1274.51        2966.50           1442       29343.00    128380.60
 1274.54        2966.75           1446       30388.00    132971.90
 1274.58        2967.00           1449       30641.00    134083.60
 1274.61        2967.25           1452       30466.00    133314.60
 1274.64        2967.50           1456       30492.00    133428.90
 1274.67        2967.75           1459       30525.00    133573.90
 1274.70        2968.00           1462       30181.00    132062.30
 1274.73        2968.25           1466       28804.00    126013.00
 1274.76        2968.50           1469       27539.00    120457.60
 1274.79        2968.75           1472       26188.00    114526.70
 1274.82        2969.00           1476       24514.00    107180.60
 1274.86        2969.25           1479       22924.00    100206.20
 1274.89        2969.50           1482       21772.00     95154.87
 1274.92        2969.75           1486       19895.00     86927.80
 1274.95        2970.00           1489       18487.00     80759.07
 1274.98        2970.25           1492       17138.00     74850.99
 1275.01        2970.50           1496       15176.00     66261.93
 1275.04        2970.75           1499       13826.00     60354.60
 1275.07        2971.00           1502       12423.00     54217.58
 1275.11        2971.25           1506       10486.00     45748.45
 1275.14        2971.50           1509        9005.00     39275.98
 1275.17        2971.75           1513        7117.00     31028.43
 1275.20        2972.00           1516        5748.00     25050.64
 1275.23        2972.25           1519        4429.00     19293.20
 1275.26        2972.50           1523        2629.00     11439.41
 1275.29        2972.75           1526        1483.00      6441.09
 1275.32        2973.00           1529         615.00      2656.27
 1275.35        2973.25           1533         347.00      1487.86
 1275.38        2973.50           1536         292.00      1248.09
 1275.41        2973.75           1539         234.00       995.23
 1275.45        2974.00           1543         204.00       864.45
 1275.48        2974.25           1546         165.00       694.43
 1275.51        2974.50           1549         120.00       498.26
 1275.54        2974.75           1553          83.00       336.97
 1275.57        2975.00           1556          65.00       258.50
 1275.60        2975.25           1559          54.00       210.55
 1275.63        2975.50           1563          50.00       193.11
 1275.66        2975.75           1566          50.00       193.11
 1275.69        2976.00           1569          64.00       254.14
 1275.72        2976.25           1573          51.00       197.47
 1275.75        2976.50           1576          55.00       214.91
 1275.78        2976.75           1579          52.00       201.83
 1275.82        2977.00           1583          53.00       206.19
 1275.85        2977.25           1586          53.00       206.19
 1275.88        2977.50           1590          50.00       193.11
 1275.91        2977.75           1593          52.00       201.83
 1275.94        2978.00           1596          46.00       175.68
 1275.97        2978.25           1600          56.00       219.27
 1276.00        2978.50           1603          53.00       206.19
 1276.03        2978.75           1606          56.00       219.27
 1276.06        2979.00           1610          55.00       214.91
 1276.09        2979.25           1613          40.00       149.52
 1276.12        2979.50           1616          48.00       184.40
 1276.16        2979.75           1620          48.00       184.40
 1276.19        2980.00           1623          56.00       219.27
 1276.22        2980.25           1626          52.00       201.83
 1276.25        2980.50           1630          55.00       214.91
 1276.28        2980.75           1633          49.00       188.75
 1276.31        2981.00           1637          48.00       184.40
 1276.34        2981.25           1640          48.00       184.40
 1276.37        2981.50           1643          54.00       210.55
 1276.40        2981.75           1647          47.00       180.04
 1276.44        2982.00           1650          52.00       201.83
 1276.47        2982.25           1653          51.00       197.47
 1276.50        2982.50           1657          50.00       193.11
 1276.53        2982.75           1660          50.00       193.11
 1276.56        2983.00           1663          53.00       206.19
 1276.59        2983.25           1667          57.00       223.63
 1276.62        2983.50           1670          48.00       184.40
 1276.65        2983.75           1673          52.00       201.83
 1276.68        2984.00           1677          55.00       214.91
HS scan finished at 21:16:54
end
