************************************************************
  HS Scan of (1) Internal mercury lamp
************************************************************
Integration time is 0.2294 seconds per sample
dh300717Manchester 53.47 2.23 2.857833pr1000
************************************************************
Dead Time -------------------------  3E-08 
Number of Cycles Used -------------  4 
Starting Wavelength (Angstroms) ---  2950 
Final Wavelength (Angstoms) -------  2984 
Wavelength Increment (Angstroms) --  .25 
Filter Wheel #1 Position ---------- (1) Ground quartz diffuser (ND=2.32)
Filter Wheel #2 Position ---------- (1) Neutral Density 0.494



************************************************************
HS scan start time = 01:43:48
Dark Count =  5.4 


Time (GMT)  Wavelength (Ang)  Step Number  Raw Counts  Counts/Second

  104.18        2950.00           1222          87.00       355.71
  104.24        2950.25           1226         100.00       412.39
  104.28        2950.50           1229          93.00       381.87
  104.31        2950.75           1232          99.00       408.03
  104.34        2951.00           1236          97.00       399.31
  104.37        2951.25           1239          95.00       390.59
  104.40        2951.50           1242         101.00       416.74
  104.43        2951.75           1246          91.00       373.15
  104.46        2952.00           1249          97.00       399.31
  104.49        2952.25           1252          92.00       377.51
  104.52        2952.50           1256          94.00       386.23
  104.55        2952.75           1259          97.00       399.31
  104.58        2953.00           1262          93.00       381.87
  104.62        2953.25           1266          94.00       386.23
  104.65        2953.50           1269         106.00       438.54
  104.68        2953.75           1272          87.00       355.71
  104.71        2954.00           1276          92.00       377.51
  104.74        2954.25           1279          88.00       360.07
  104.77        2954.50           1282         103.00       425.46
  104.80        2954.75           1286         115.00       477.77
  104.83        2955.00           1289          95.00       390.59
  104.86        2955.25           1292          88.00       360.07
  104.89        2955.50           1296          89.00       364.43
  104.92        2955.75           1299         115.00       477.77
  104.95        2956.00           1302          87.00       355.71
  104.98        2956.25           1306         100.00       412.39
  105.01        2956.50           1309          98.00       403.67
  105.05        2956.75           1312          95.00       390.59
  105.08        2957.00           1316          98.00       403.67
  105.11        2957.25           1319          99.00       408.03
  105.14        2957.50           1322          95.00       390.59
  105.17        2957.75           1326          96.00       394.95
  105.20        2958.00           1329          96.00       394.95
  105.23        2958.25           1332          85.00       347.00
  105.26        2958.50           1336          99.00       408.03
  105.29        2958.75           1339          93.00       381.87
  105.32        2959.00           1342          86.00       351.36
  105.35        2959.25           1346          94.00       386.23
  105.38        2959.50           1349          96.00       394.95
  105.41        2959.75           1352         115.00       477.77
  105.44        2960.00           1356         131.00       547.52
  105.48        2960.25           1359         161.00       678.31
  105.51        2960.50           1362         204.00       865.76
  105.54        2960.75           1366         251.00      1070.65
  105.57        2961.00           1369         300.00      1284.27
  105.60        2961.25           1372         353.00      1515.33
  105.63        2961.50           1376         406.00      1746.39
  105.66        2961.75           1379         507.00      2186.72
  105.69        2962.00           1382         926.00      4013.56
  105.72        2962.25           1386        2366.00     10293.50
  105.75        2962.50           1389        3947.00     17191.08
  105.78        2962.75           1392        5531.00     24104.61
  105.82        2963.00           1396        7875.00     34340.51
  105.85        2963.25           1399        9576.00     41772.46
  105.88        2963.50           1402       11084.00     48363.93
  105.91        2963.75           1406       13302.00     58063.57
  105.94        2964.00           1409       15086.00     65869.35
  105.97        2964.25           1412       16811.00     73420.48
  106.00        2964.50           1416       19121.00     83537.78
  106.03        2964.75           1419       20709.00     90496.44
  106.06        2965.00           1422       22379.00     97817.59
  106.09        2965.25           1426       24607.00    107590.00
  106.12        2965.50           1429       26235.00    114734.30
  106.16        2965.75           1432       28090.00    122878.50
  106.19        2966.00           1436       30333.00    132731.50
  106.22        2966.25           1439       31910.00    139662.40
  106.25        2966.50           1442       33441.00    146393.90
  106.28        2966.75           1446       35381.00    154927.70
  106.31        2967.00           1449       36005.00    157673.50
  106.34        2967.25           1452       36264.00    158813.30
  106.37        2967.50           1456       36086.00    158029.90
  106.40        2967.75           1459       36033.00    157796.70
  106.44        2968.00           1462       35925.00    157321.40
  106.47        2968.25           1466       35566.00    155741.70
  106.50        2968.50           1469       34401.00    150616.30
  106.53        2968.75           1472       32677.00    143034.40
  106.56        2969.00           1476       30634.00    134054.20
  106.59        2969.25           1479       29000.00    126875.20
  106.62        2969.50           1482       27361.00    119677.40
  106.65        2969.75           1486       24950.00    109094.90
  106.68        2970.00           1489       23274.00    101742.50
  106.71        2970.25           1492       21749.00     95055.34
  106.74        2970.50           1496       19655.00     85877.46
  106.77        2970.75           1499       17918.00     78268.13
  106.81        2971.00           1502       16392.00     71586.01
  106.84        2971.25           1506       14238.00     62158.52
  106.87        2971.50           1509       12519.00     54638.75
  106.90        2971.75           1513       10241.00     44678.85
  106.93        2972.00           1516        8480.00     36983.47
  106.96        2972.25           1519        6891.00     30042.76
  106.99        2972.50           1523        4780.00     20826.44
  107.02        2972.75           1526        3157.00     13744.12
  107.05        2973.00           1529        1757.00      7637.32
  107.09        2973.25           1533         635.00      2744.78
  107.12        2973.50           1536         423.00      1820.50
  107.15        2973.75           1539         366.00      1572.00
  107.18        2974.00           1543         318.00      1362.74
  107.21        2974.25           1546         248.00      1057.58
  107.24        2974.50           1549         199.00       843.96
  107.27        2974.75           1553         141.00       591.12
  107.30        2975.00           1556         127.00       530.09
  107.33        2975.25           1559          97.00       399.31
  107.37        2975.50           1563          96.00       394.95
  107.40        2975.75           1566          94.00       386.23
  107.43        2976.00           1569          91.00       373.15
  107.46        2976.25           1573          91.00       373.15
  107.49        2976.50           1576          93.00       381.87
  107.52        2976.75           1579          81.00       329.56
  107.55        2977.00           1583          93.00       381.87
  107.58        2977.25           1586          85.00       347.00
  107.61        2977.50           1590          87.00       355.71
  107.64        2977.75           1593          87.00       355.71
  107.67        2978.00           1596          91.00       373.15
  107.70        2978.25           1600          80.00       325.20
  107.74        2978.50           1603          83.00       338.28
  107.77        2978.75           1606          87.00       355.71
  107.80        2979.00           1610          87.00       355.71
  107.83        2979.25           1613          87.00       355.71
  107.86        2979.50           1616          81.00       329.56
  107.89        2979.75           1620          75.00       303.40
  107.92        2980.00           1623          77.00       312.12
  107.95        2980.25           1626          80.00       325.20
  107.98        2980.50           1630          96.00       394.95
  108.01        2980.75           1633          76.00       307.76
  108.04        2981.00           1637          83.00       338.28
  108.07        2981.25           1640          87.00       355.71
  108.10        2981.50           1643          86.00       351.36
  108.14        2981.75           1647          89.00       364.43
  108.17        2982.00           1650          79.00       320.84
  108.20        2982.25           1653          73.00       294.68
  108.23        2982.50           1657          75.00       303.40
  108.26        2982.75           1660          80.00       325.20
  108.29        2983.00           1663          80.00       325.20
  108.32        2983.25           1667          75.00       303.40
  108.35        2983.50           1670          77.00       312.12
  108.38        2983.75           1673          74.00       299.04
  108.41        2984.00           1677          85.00       347.00
HS scan finished at 01:48:38
end
************************************************************
  HS Scan of (1) Internal mercury lamp
************************************************************
Integration time is 0.2294 seconds per sample
dh300717Manchester 53.47 2.23 2.857833pr1000
************************************************************
Dead Time -------------------------  3E-08 
Number of Cycles Used -------------  4 
Starting Wavelength (Angstroms) ---  2950 
Final Wavelength (Angstoms) -------  2984 
Wavelength Increment (Angstroms) --  .25 
Filter Wheel #1 Position ---------- (1) Ground quartz diffuser (ND=2.32)
Filter Wheel #2 Position ---------- (1) Neutral Density 0.494



************************************************************
HS scan start time = 21:12:07
Dark Count =  6.2 


Time (GMT)  Wavelength (Ang)  Step Number  Raw Counts  Counts/Second

 1272.49        2950.00           1222          91.00       369.66
 1272.55        2950.25           1226          93.00       378.38
 1272.58        2950.50           1229         106.00       435.05
 1272.61        2950.75           1232          91.00       369.66
 1272.65        2951.00           1236          88.00       356.59
 1272.68        2951.25           1239          96.00       391.46
 1272.71        2951.50           1242          94.00       382.74
 1272.74        2951.75           1246          91.00       369.66
 1272.77        2952.00           1249         101.00       413.26
 1272.80        2952.25           1252          93.00       378.38
 1272.83        2952.50           1256          96.00       391.46
 1272.86        2952.75           1259          92.00       374.02
 1272.89        2953.00           1262         102.00       417.62
 1272.92        2953.25           1266          88.00       356.59
 1272.95        2953.50           1269          91.00       369.66
 1272.98        2953.75           1272          97.00       395.82
 1273.01        2954.00           1276         101.00       413.26
 1273.05        2954.25           1279          93.00       378.38
 1273.08        2954.50           1282          86.00       347.87
 1273.11        2954.75           1286          89.00       360.95
 1273.14        2955.00           1289         101.00       413.26
 1273.17        2955.25           1292          91.00       369.66
 1273.20        2955.50           1296          93.00       378.38
 1273.23        2955.75           1299         108.00       443.77
 1273.26        2956.00           1302         101.00       413.26
 1273.29        2956.25           1306          95.00       387.10
 1273.32        2956.50           1309          94.00       382.74
 1273.35        2956.75           1312          96.00       391.46
 1273.38        2957.00           1316          92.00       374.02
 1273.42        2957.25           1319          86.00       347.87
 1273.45        2957.50           1322         101.00       413.26
 1273.48        2957.75           1326         100.00       408.90
 1273.51        2958.00           1329          93.00       378.38
 1273.54        2958.25           1332          87.00       352.23
 1273.57        2958.50           1336         107.00       439.41
 1273.60        2958.75           1339          87.00       352.23
 1273.63        2959.00           1342         103.00       421.98
 1273.66        2959.25           1346          94.00       382.74
 1273.69        2959.50           1349          98.00       400.18
 1273.72        2959.75           1352         107.00       439.41
 1273.75        2960.00           1356         133.00       552.76
 1273.78        2960.25           1359         160.00       670.46
 1273.82        2960.50           1362         218.00       923.30
 1273.85        2960.75           1366         284.00      1211.03
 1273.88        2961.00           1369         318.00      1359.25
 1273.91        2961.25           1372         363.00      1555.43
 1273.94        2961.50           1376         438.00      1882.41
 1273.97        2961.75           1379         611.00      2636.65
 1274.00        2962.00           1382        1246.00      5405.41
 1274.03        2962.25           1386        3033.00     13199.65
 1274.06        2962.50           1389        4595.00     20015.50
 1274.09        2962.75           1392        6073.00     26467.39
 1274.12        2963.00           1396        8157.00     35568.88
 1274.15        2963.25           1399        9765.00     42594.94
 1274.18        2963.50           1402       11538.00     50345.38
 1274.22        2963.75           1406       13946.00     60877.43
 1274.25        2964.00           1409       15825.00     69100.38
 1274.28        2964.25           1412       17620.00     76959.53
 1274.31        2964.50           1416       20026.00     87499.66
 1274.34        2964.75           1419       21660.00     94661.64
 1274.37        2965.00           1422       23332.00    101993.40
 1274.40        2965.25           1426       25522.00    111601.50
 1274.43        2965.50           1429       27074.00    118413.80
 1274.46        2965.75           1432       28697.00    125540.80
 1274.49        2966.00           1436       31229.00    136665.60
 1274.53        2966.25           1439       33010.00    144495.10
 1274.56        2966.50           1442       34357.00    150419.20
 1274.59        2966.75           1446       35867.00    157062.60
 1274.62        2967.00           1449       36297.00    158955.00
 1274.65        2967.25           1452       36437.00    159571.10
 1274.68        2967.50           1456       36455.00    159650.40
 1274.71        2967.75           1459       36498.00    159839.60
 1274.74        2968.00           1462       36340.00    159144.20
 1274.77        2968.25           1466       35104.00    153705.40
 1274.80        2968.50           1469       33707.00    147560.30
 1274.84        2968.75           1472       32265.00    141219.50
 1274.87        2969.00           1476       30065.00    131550.40
 1274.90        2969.25           1479       28396.00    124218.80
 1274.93        2969.50           1482       26877.00    117548.90
 1274.96        2969.75           1486       24647.00    107762.00
 1274.99        2970.00           1489       22907.00    100129.40
 1275.02        2970.25           1492       21376.00     93416.62
 1275.05        2970.50           1496       18971.00     82877.13
 1275.08        2970.75           1499       17375.00     75886.60
 1275.11        2971.00           1502       15583.00     68041.10
 1275.14        2971.25           1506       13367.00     58344.41
 1275.18        2971.50           1509       11807.00     51521.60
 1275.21        2971.75           1513        9672.00     42188.50
 1275.24        2972.00           1516        7937.00     34607.84
 1275.27        2972.25           1519        6183.00     26947.67
 1275.30        2972.50           1523        4149.00     18069.08
 1275.33        2972.75           1526        2632.00     11450.32
 1275.36        2973.00           1529        1219.00      5287.67
 1275.39        2973.25           1533         522.00      2248.63
 1275.42        2973.50           1536         388.00      1664.42
 1275.45        2973.75           1539         340.00      1455.16
 1275.48        2974.00           1543         270.00      1150.00
 1275.52        2974.25           1546         212.00       897.15
 1275.55        2974.50           1549         166.00       696.61
 1275.58        2974.75           1553         132.00       548.40
 1275.61        2975.00           1556          96.00       391.46
 1275.64        2975.25           1559          96.00       391.46
 1275.67        2975.50           1563          98.00       400.18
 1275.70        2975.75           1566          94.00       382.74
 1275.73        2976.00           1569          89.00       360.95
 1275.76        2976.25           1573          81.00       326.07
 1275.79        2976.50           1576          92.00       374.02
 1275.82        2976.75           1579          86.00       347.87
 1275.85        2977.00           1583          80.00       321.71
 1275.89        2977.25           1586          83.00       334.79
 1275.92        2977.50           1590          90.00       365.30
 1275.95        2977.75           1593          84.00       339.15
 1275.98        2978.00           1596          86.00       347.87
 1276.01        2978.25           1600          87.00       352.23
 1276.04        2978.50           1603          89.00       360.95
 1276.07        2978.75           1606          83.00       334.79
 1276.10        2979.00           1610          90.00       365.30
 1276.13        2979.25           1613          83.00       334.79
 1276.16        2979.50           1616          92.00       374.02
 1276.19        2979.75           1620          93.00       378.38
 1276.22        2980.00           1623          82.00       330.43
 1276.25        2980.25           1626          80.00       321.71
 1276.29        2980.50           1630          90.00       365.30
 1276.32        2980.75           1633          90.00       365.30
 1276.35        2981.00           1637          77.00       308.63
 1276.38        2981.25           1640          89.00       360.95
 1276.41        2981.50           1643          86.00       347.87
 1276.44        2981.75           1647          77.00       308.63
 1276.47        2982.00           1650          83.00       334.79
 1276.50        2982.25           1653          82.00       330.43
 1276.53        2982.50           1657          80.00       321.71
 1276.57        2982.75           1660          84.00       339.15
 1276.60        2983.00           1663          80.00       321.71
 1276.63        2983.25           1667          86.00       347.87
 1276.66        2983.50           1670          77.00       308.63
 1276.69        2983.75           1673          82.00       330.43
 1276.72        2984.00           1677          78.00       312.99
HS scan finished at 21:16:56
end
