************************************************************
  HS Scan of (1) Internal mercury lamp
************************************************************
Integration time is 0.2294 seconds per sample
dh070817Manchester 53.47 2.23 2.804185pr1000
************************************************************
Dead Time -------------------------  3E-08 
Number of Cycles Used -------------  4 
Starting Wavelength (Angstroms) ---  2950 
Final Wavelength (Angstoms) -------  2984 
Wavelength Increment (Angstroms) --  .25 
Filter Wheel #1 Position ---------- (1) Ground quartz diffuser (ND=2.32)
Filter Wheel #2 Position ---------- (1) Neutral Density 0.494



************************************************************
HS scan start time = 01:42:44
Dark Count =  7.1 


Time (GMT)  Wavelength (Ang)  Step Number  Raw Counts  Counts/Second

  103.11        2950.00           1222          84.00       335.23
  103.18        2950.25           1226         105.00       426.77
  103.21        2950.50           1229          94.00       378.82
  103.24        2950.75           1232          87.00       348.30
  103.27        2951.00           1236          92.00       370.10
  103.30        2951.25           1239          73.00       287.27
  103.33        2951.50           1242          90.00       361.38
  103.36        2951.75           1246          86.00       343.94
  103.39        2952.00           1249          87.00       348.30
  103.42        2952.25           1252          86.00       343.94
  103.45        2952.50           1256          90.00       361.38
  103.49        2952.75           1259          89.00       357.02
  103.52        2953.00           1262          90.00       361.38
  103.55        2953.25           1266          83.00       330.87
  103.58        2953.50           1269          96.00       387.54
  103.61        2953.75           1272          88.00       352.66
  103.64        2954.00           1276          88.00       352.66
  103.67        2954.25           1279          91.00       365.74
  103.70        2954.50           1282          89.00       357.02
  103.73        2954.75           1286          79.00       313.43
  103.76        2955.00           1289          88.00       352.66
  103.79        2955.25           1292          90.00       361.38
  103.82        2955.50           1296         106.00       431.13
  103.85        2955.75           1299          90.00       361.38
  103.88        2956.00           1302          90.00       361.38
  103.92        2956.25           1306          88.00       352.66
  103.95        2956.50           1309          85.00       339.59
  103.98        2956.75           1312          83.00       330.87
  104.01        2957.00           1316          93.00       374.46
  104.04        2957.25           1319          94.00       378.82
  104.07        2957.50           1322          81.00       322.15
  104.10        2957.75           1326          88.00       352.66
  104.13        2958.00           1329          87.00       348.30
  104.16        2958.25           1332          90.00       361.38
  104.19        2958.50           1336          78.00       309.07
  104.22        2958.75           1339          98.00       396.26
  104.26        2959.00           1342          84.00       335.23
  104.29        2959.25           1346          93.00       374.46
  104.32        2959.50           1349          97.00       391.90
  104.35        2959.75           1352         101.00       409.33
  104.38        2960.00           1356         114.00       466.00
  104.41        2960.25           1359         145.00       601.14
  104.44        2960.50           1362         172.00       718.85
  104.47        2960.75           1366         239.00      1010.93
  104.50        2961.00           1369         289.00      1228.90
  104.53        2961.25           1372         325.00      1385.85
  104.56        2961.50           1376         420.00      1800.01
  104.60        2961.75           1379         529.00      2275.22
  104.63        2962.00           1382        1060.00      4590.43
  104.66        2962.25           1386        2735.00     11895.70
  104.69        2962.50           1389        4399.00     19156.17
  104.72        2962.75           1392        5910.00     25751.80
  104.75        2963.00           1396        8081.00     35232.95
  104.78        2963.25           1399        9822.00     42840.12
  104.81        2963.50           1402       11395.00     49716.21
  104.84        2963.75           1406       13711.00     59845.37
  104.87        2964.00           1409       15548.00     67883.97
  104.91        2964.25           1412       17143.00     74866.75
  104.94        2964.50           1416       19488.00     85138.28
  104.97        2964.75           1419       21049.00     91979.27
  105.00        2965.00           1422       22899.00    100090.40
  105.03        2965.25           1426       24892.00    108833.00
  105.06        2965.50           1429       26641.00    116509.00
  105.09        2965.75           1432       28345.00    123990.90
  105.12        2966.00           1436       30291.00    132539.50
  105.16        2966.25           1439       31985.00    139984.60
  105.19        2966.50           1442       33388.00    146153.40
  105.22        2966.75           1446       34985.00    153177.90
  105.25        2967.00           1449       35578.00    155787.00
  105.28        2967.25           1452       35646.00    156086.20
  105.31        2967.50           1456       35751.00    156548.20
  105.34        2967.75           1459       35603.00    155897.00
  105.37        2968.00           1462       35718.00    156403.00
  105.40        2968.25           1466       34830.00    152496.00
  105.43        2968.50           1469       33443.00    146395.30
  105.46        2968.75           1472       32066.00    140340.70
  105.50        2969.00           1476       29696.00    129925.20
  105.53        2969.25           1479       28105.00    122936.90
  105.56        2969.50           1482       26625.00    116438.70
  105.59        2969.75           1486       24462.00    106946.30
  105.62        2970.00           1489       22766.00     99507.16
  105.65        2970.25           1492       21272.00     92956.78
  105.68        2970.50           1496       19006.00     83026.51
  105.71        2970.75           1499       17399.00     75987.77
  105.74        2971.00           1502       15818.00     69065.80
  105.77        2971.25           1506       13647.00     59565.38
  105.81        2971.50           1509       11824.00     51592.00
  105.84        2971.75           1513        9802.00     42752.71
  105.87        2972.00           1516        8136.00     35473.22
  105.90        2972.25           1519        6448.00     28100.84
  105.93        2972.50           1523        4386.00     19099.43
  105.96        2972.75           1526        2777.00     12078.92
  105.99        2973.00           1529        1373.00      5955.29
  106.02        2973.25           1533         564.00      2427.81
  106.05        2973.50           1536         394.00      1686.66
  106.08        2973.75           1539         343.00      1464.32
  106.11        2974.00           1543         316.00      1346.61
  106.15        2974.25           1546         238.00      1006.57
  106.18        2974.50           1549         197.00       827.83
  106.21        2974.75           1553         145.00       601.14
  106.24        2975.00           1556         113.00       461.65
  106.27        2975.25           1559          96.00       387.54
  106.30        2975.50           1563          90.00       361.38
  106.33        2975.75           1566          86.00       343.94
  106.36        2976.00           1569          89.00       357.02
  106.39        2976.25           1573          78.00       309.07
  106.42        2976.50           1576          77.00       304.71
  106.45        2976.75           1579          86.00       343.94
  106.49        2977.00           1583          84.00       335.23
  106.52        2977.25           1586          88.00       352.66
  106.55        2977.50           1590          80.00       317.79
  106.58        2977.75           1593          80.00       317.79
  106.61        2978.00           1596          69.00       269.84
  106.64        2978.25           1600          88.00       352.66
  106.67        2978.50           1603          78.00       309.07
  106.70        2978.75           1606          86.00       343.94
  106.73        2979.00           1610          91.00       365.74
  106.76        2979.25           1613          88.00       352.66
  106.79        2979.50           1616          86.00       343.94
  106.83        2979.75           1620          80.00       317.79
  106.86        2980.00           1623          80.00       317.79
  106.89        2980.25           1626          86.00       343.94
  106.92        2980.50           1630          82.00       326.51
  106.95        2980.75           1633          76.00       300.35
  106.98        2981.00           1637          79.00       313.43
  107.01        2981.25           1640          78.00       309.07
  107.04        2981.50           1643          86.00       343.94
  107.07        2981.75           1647          79.00       313.43
  107.10        2982.00           1650          82.00       326.51
  107.13        2982.25           1653          74.00       291.63
  107.16        2982.50           1657          84.00       335.23
  107.19        2982.75           1660          82.00       326.51
  107.22        2983.00           1663          77.00       304.71
  107.25        2983.25           1667          79.00       313.43
  107.29        2983.50           1670          80.00       317.79
  107.32        2983.75           1673          83.00       330.87
  107.35        2984.00           1677          73.00       287.27
HS scan finished at 01:47:34
end
************************************************************
  HS Scan of (1) Internal mercury lamp
************************************************************
Integration time is 0.2294 seconds per sample
dh070817Manchester 53.47 2.23 2.857833pr1000
************************************************************
Dead Time -------------------------  3E-08 
Number of Cycles Used -------------  4 
Starting Wavelength (Angstroms) ---  2950 
Final Wavelength (Angstoms) -------  2984 
Wavelength Increment (Angstroms) --  .25 
Filter Wheel #1 Position ---------- (1) Ground quartz diffuser (ND=2.32)
Filter Wheel #2 Position ---------- (1) Neutral Density 0.494



************************************************************
HS scan start time = 20:42:01
Dark Count =  6.1 


Time (GMT)  Wavelength (Ang)  Step Number  Raw Counts  Counts/Second

 1242.38        2950.00           1222          92.00       374.46
 1242.45        2950.25           1226          88.00       357.02
 1242.48        2950.50           1229          97.00       396.26
 1242.51        2950.75           1232          85.00       343.94
 1242.54        2951.00           1236          89.00       361.38
 1242.57        2951.25           1239         100.00       409.33
 1242.60        2951.50           1242          84.00       339.59
 1242.63        2951.75           1246          94.00       383.18
 1242.66        2952.00           1249          93.00       378.82
 1242.69        2952.25           1252          91.00       370.10
 1242.72        2952.50           1256          92.00       374.46
 1242.75        2952.75           1259          82.00       330.87
 1242.78        2953.00           1262          98.00       400.62
 1242.82        2953.25           1266          81.00       326.51
 1242.85        2953.50           1269          95.00       387.54
 1242.88        2953.75           1272          86.00       348.30
 1242.91        2954.00           1276          96.00       391.90
 1242.94        2954.25           1279          91.00       370.10
 1242.97        2954.50           1282          89.00       361.38
 1243.00        2954.75           1286          90.00       365.74
 1243.03        2955.00           1289          90.00       365.74
 1243.06        2955.25           1292          88.00       357.02
 1243.09        2955.50           1296          91.00       370.10
 1243.12        2955.75           1299          82.00       330.87
 1243.15        2956.00           1302          84.00       339.59
 1243.19        2956.25           1306          90.00       365.74
 1243.22        2956.50           1309          93.00       378.82
 1243.25        2956.75           1312          90.00       365.74
 1243.28        2957.00           1316          89.00       361.38
 1243.31        2957.25           1319          90.00       365.74
 1243.34        2957.50           1322          86.00       348.30
 1243.37        2957.75           1326          82.00       330.87
 1243.40        2958.00           1329          88.00       357.02
 1243.43        2958.25           1332          99.00       404.97
 1243.46        2958.50           1336          78.00       313.43
 1243.49        2958.75           1339          96.00       391.90
 1243.52        2959.00           1342          91.00       370.10
 1243.55        2959.25           1346          95.00       387.54
 1243.59        2959.50           1349         100.00       409.33
 1243.62        2959.75           1352         126.00       522.68
 1243.65        2960.00           1356         153.00       640.38
 1243.68        2960.25           1359         194.00       819.11
 1243.71        2960.50           1362         234.00       993.49
 1243.74        2960.75           1366         284.00      1211.47
 1243.77        2961.00           1369         329.00      1407.64
 1243.80        2961.25           1372         372.00      1595.11
 1243.83        2961.50           1376         472.00      2031.07
 1243.86        2961.75           1379         612.00      2641.45
 1243.89        2962.00           1382        1305.00      5663.12
 1243.93        2962.25           1386        3187.00     13871.95
 1243.96        2962.50           1389        4748.00     20683.71
 1243.99        2962.75           1392        6407.00     27926.18
 1244.02        2963.00           1396        8699.00     37937.23
 1244.05        2963.25           1399       10353.00     45165.35
 1244.08        2963.50           1402       12045.00     52562.77
 1244.11        2963.75           1406       14266.00     62277.98
 1244.14        2964.00           1409       16136.00     70462.22
 1244.17        2964.25           1412       17775.00     77638.78
 1244.21        2964.50           1416       19992.00     87351.10
 1244.24        2964.75           1419       21640.00     94574.40
 1244.27        2965.00           1422       23379.00    102200.00
 1244.30        2965.25           1426       25545.00    111702.80
 1244.33        2965.50           1429       27221.00    119059.60
 1244.36        2965.75           1432       29115.00    127377.30
 1244.39        2966.00           1436       31190.00    136494.60
 1244.42        2966.25           1439       32865.00    143858.00
 1244.45        2966.50           1442       34485.00    150982.70
 1244.48        2966.75           1446       36138.00    158255.70
 1244.52        2967.00           1449       36401.00    159413.10
 1244.55        2967.25           1452       36304.00    158986.20
 1244.58        2967.50           1456       36764.00    161010.80
 1244.61        2967.75           1459       36491.00    159809.20
 1244.64        2968.00           1462       36326.00    159083.00
 1244.67        2968.25           1466       35420.00    155096.20
 1244.70        2968.50           1469       33787.00    147912.50
 1244.73        2968.75           1472       32206.00    140960.60
 1244.76        2969.00           1476       29910.00    130869.80
 1244.79        2969.25           1479       28337.00    123960.10
 1244.82        2969.50           1482       26534.00    116043.60
 1244.85        2969.75           1486       24454.00    106915.60
 1244.88        2970.00           1489       22663.00     99059.86
 1244.92        2970.25           1492       21122.00     92303.63
 1244.95        2970.50           1496       18975.00     82895.09
 1244.98        2970.75           1499       17122.00     74779.18
 1245.01        2971.00           1502       15718.00     68632.46
 1245.04        2971.25           1506       13378.00     58392.97
 1245.07        2971.50           1509       11617.00     50691.25
 1245.10        2971.75           1513        9436.00     41157.59
 1245.13        2972.00           1516        7714.00     33634.18
 1245.16        2972.25           1519        6081.00     26502.76
 1245.19        2972.50           1523        3766.00     16398.22
 1245.22        2972.75           1526        2193.00      9535.86
 1245.25        2973.00           1529         986.00      4272.13
 1245.28        2973.25           1533         458.00      1970.04
 1245.32        2973.50           1536         365.00      1564.59
 1245.35        2973.75           1539         311.00      1329.17
 1245.38        2974.00           1543         267.00      1137.35
 1245.41        2974.25           1546         202.00       853.99
 1245.44        2974.50           1549         164.00       688.33
 1245.47        2974.75           1553         122.00       505.24
 1245.50        2975.00           1556          98.00       400.62
 1245.53        2975.25           1559          93.00       378.82
 1245.56        2975.50           1563          87.00       352.66
 1245.59        2975.75           1566          87.00       352.66
 1245.62        2976.00           1569          83.00       335.23
 1245.65        2976.25           1573          91.00       370.10
 1245.68        2976.50           1576          78.00       313.43
 1245.72        2976.75           1579          79.00       317.79
 1245.75        2977.00           1583          84.00       339.59
 1245.78        2977.25           1586          96.00       391.90
 1245.81        2977.50           1590          83.00       335.23
 1245.84        2977.75           1593          78.00       313.43
 1245.87        2978.00           1596          76.00       304.71
 1245.90        2978.25           1600          75.00       300.35
 1245.93        2978.50           1603          82.00       330.87
 1245.96        2978.75           1606          76.00       304.71
 1245.99        2979.00           1610          80.00       322.15
 1246.02        2979.25           1613          81.00       326.51
 1246.06        2979.50           1616          72.00       287.27
 1246.09        2979.75           1620          82.00       330.87
 1246.12        2980.00           1623          79.00       317.79
 1246.15        2980.25           1626          81.00       326.51
 1246.18        2980.50           1630          76.00       304.71
 1246.21        2980.75           1633          77.00       309.07
 1246.24        2981.00           1637          72.00       287.27
 1246.27        2981.25           1640          83.00       335.23
 1246.30        2981.50           1643          78.00       313.43
 1246.33        2981.75           1647          73.00       291.63
 1246.36        2982.00           1650          85.00       343.94
 1246.39        2982.25           1653          72.00       287.27
 1246.42        2982.50           1657          76.00       304.71
 1246.46        2982.75           1660          75.00       300.35
 1246.49        2983.00           1663          84.00       339.59
 1246.52        2983.25           1667          83.00       335.23
 1246.55        2983.50           1670          77.00       309.07
 1246.58        2983.75           1673          69.00       274.20
 1246.61        2984.00           1677          76.00       304.71
HS scan finished at 20:46:50
end
