************************************************************
  HS Scan of (1) Internal mercury lamp
************************************************************
Integration time is 0.2294 seconds per sample
dh040818Manchester 53.47 2.23 2.965129pr1000
************************************************************
Dead Time -------------------------  3E-08 
Number of Cycles Used -------------  4 
Starting Wavelength (Angstroms) ---  2950 
Final Wavelength (Angstoms) -------  2984 
Wavelength Increment (Angstroms) --  .25 
Filter Wheel #1 Position ---------- (1) Ground quartz diffuser (ND=2.32)
Filter Wheel #2 Position ---------- (1) Neutral Density 0.494



************************************************************
HS scan start time = 01:29:37
Dark Count =  6.5 


Time (GMT)  Wavelength (Ang)  Step Number  Raw Counts  Counts/Second

   89.99        2950.00           1222          57.00       220.14
   90.05        2950.25           1226          55.00       211.42
   90.08        2950.50           1229          54.00       207.06
   90.11        2950.75           1232          53.00       202.70
   90.15        2951.00           1236          50.00       189.63
   90.18        2951.25           1239          51.00       193.99
   90.21        2951.50           1242          53.00       202.70
   90.24        2951.75           1246          53.00       202.70
   90.27        2952.00           1249          48.00       180.91
   90.30        2952.25           1252          52.00       198.34
   90.33        2952.50           1256          54.00       207.06
   90.36        2952.75           1259          51.00       193.99
   90.39        2953.00           1262          56.00       215.78
   90.43        2953.25           1266          55.00       211.42
   90.46        2953.50           1269          54.00       207.06
   90.49        2953.75           1272          58.00       224.50
   90.52        2954.00           1276          50.00       189.63
   90.55        2954.25           1279          50.00       189.63
   90.58        2954.50           1282          56.00       215.78
   90.61        2954.75           1286          53.00       202.70
   90.64        2955.00           1289          49.00       185.27
   90.67        2955.25           1292          45.00       167.83
   90.70        2955.50           1296          53.00       202.70
   90.74        2955.75           1299          50.00       189.63
   90.77        2956.00           1302          52.00       198.34
   90.80        2956.25           1306          42.00       154.75
   90.83        2956.50           1309          53.00       202.70
   90.86        2956.75           1312          47.00       176.55
   90.89        2957.00           1316          48.00       180.91
   90.92        2957.25           1319          53.00       202.70
   90.95        2957.50           1322          58.00       224.50
   90.98        2957.75           1326          60.00       233.22
   91.01        2958.00           1329          52.00       198.34
   91.04        2958.25           1332          54.00       207.06
   91.07        2958.50           1336          43.00       159.11
   91.10        2958.75           1339          53.00       202.70
   91.13        2959.00           1342          58.00       224.50
   91.16        2959.25           1346          65.00       255.02
   91.20        2959.50           1349          66.00       259.37
   91.23        2959.75           1352          84.00       337.84
   91.26        2960.00           1356         120.00       494.78
   91.29        2960.25           1359         140.00       581.96
   91.32        2960.50           1362         175.00       734.54
   91.35        2960.75           1366         229.00       969.95
   91.38        2961.00           1369         266.00      1131.25
   91.41        2961.25           1372         306.00      1305.63
   91.44        2961.50           1376         417.00      1789.55
   91.47        2961.75           1379         745.00      3219.58
   91.51        2962.00           1382        1721.00      7475.52
   91.54        2962.25           1386        3462.00     15070.02
   91.57        2962.50           1389        4789.00     20860.92
   91.60        2962.75           1392        6297.00     27444.12
   91.63        2963.00           1396        8155.00     35558.84
   91.66        2963.25           1399        9540.00     41610.33
   91.69        2963.50           1402       11108.00     48464.05
   91.72        2963.75           1406       12952.00     56527.78
   91.76        2964.00           1409       14411.00     62910.69
   91.79        2964.25           1412       15892.00     69392.35
   91.82        2964.50           1416       17921.00     78276.46
   91.85        2964.75           1419       19212.00     83931.65
   91.88        2965.00           1422       20578.00     89917.47
   91.91        2965.25           1426       22665.00     99066.88
   91.94        2965.50           1429       24176.00    105694.20
   91.97        2965.75           1432       25803.00    112833.40
   92.01        2966.00           1436       27440.00    120019.40
   92.04        2966.25           1439       28943.00    126620.00
   92.07        2966.50           1442       30151.00    131927.00
   92.10        2966.75           1446       30858.00    135033.70
   92.13        2967.00           1449       30908.00    135253.40
   92.16        2967.25           1452       30868.00    135077.70
   92.19        2967.50           1456       31062.00    135930.30
   92.22        2967.75           1459       30905.00    135240.30
   92.25        2968.00           1462       30731.00    134475.60
   92.29        2968.25           1466       29277.00    128087.20
   92.32        2968.50           1469       27825.00    121709.90
   92.35        2968.75           1472       26294.00    114988.40
   92.38        2969.00           1476       24623.00    107655.30
   92.41        2969.25           1479       23102.00    100983.30
   92.44        2969.50           1482       21685.00     94769.94
   92.47        2969.75           1486       19698.00     86061.06
   92.50        2970.00           1489       18407.00     80405.15
   92.53        2970.25           1492       16938.00     73971.73
   92.57        2970.50           1496       15061.00     65755.13
   92.60        2970.75           1499       13927.00     60792.99
   92.63        2971.00           1502       12364.00     53956.06
   92.66        2971.25           1506       10509.00     45845.49
   92.69        2971.50           1509        9137.00     39849.27
   92.72        2971.75           1513        7068.00     30810.94
   92.75        2972.00           1516        5552.00     24191.49
   92.78        2972.25           1519        4176.00     18185.60
   92.81        2972.50           1523        2441.00     10615.85
   92.85        2972.75           1526        1216.00      5273.28
   92.88        2973.00           1529         566.00      2439.15
   92.91        2973.25           1533         337.00      1440.78
   92.94        2973.50           1536         262.00      1113.81
   92.97        2973.75           1539         234.00       991.75
   93.00        2974.00           1543         186.00       782.49
   93.03        2974.25           1546         143.00       595.04
   93.06        2974.50           1549         118.00       486.06
   93.09        2974.75           1553          68.00       268.09
   93.12        2975.00           1556          61.00       237.58
   93.15        2975.25           1559          50.00       189.63
   93.19        2975.50           1563          50.00       189.63
   93.22        2975.75           1566          55.00       211.42
   93.25        2976.00           1569          50.00       189.63
   93.28        2976.25           1573          63.00       246.30
   93.31        2976.50           1576          48.00       180.91
   93.34        2976.75           1579          57.00       220.14
   93.37        2977.00           1583          48.00       180.91
   93.40        2977.25           1586          51.00       193.99
   93.43        2977.50           1590          51.00       193.99
   93.46        2977.75           1593          56.00       215.78
   93.50        2978.00           1596          53.00       202.70
   93.53        2978.25           1600          53.00       202.70
   93.56        2978.50           1603          54.00       207.06
   93.59        2978.75           1606          55.00       211.42
   93.62        2979.00           1610          57.00       220.14
   93.65        2979.25           1613          52.00       198.34
   93.68        2979.50           1616          49.00       185.27
   93.71        2979.75           1620          47.00       176.55
   93.74        2980.00           1623          52.00       198.34
   93.77        2980.25           1626          44.00       163.47
   93.81        2980.50           1630          49.00       185.27
   93.84        2980.75           1633          46.00       172.19
   93.87        2981.00           1637          47.00       176.55
   93.90        2981.25           1640          58.00       224.50
   93.93        2981.50           1643          53.00       202.70
   93.96        2981.75           1647          47.00       176.55
   93.99        2982.00           1650          50.00       189.63
   94.02        2982.25           1653          42.00       154.75
   94.05        2982.50           1657          56.00       215.78
   94.08        2982.75           1660          54.00       207.06
   94.11        2983.00           1663          58.00       224.50
   94.14        2983.25           1667          55.00       211.42
   94.17        2983.50           1670          46.00       172.19
   94.20        2983.75           1673          49.00       185.27
   94.24        2984.00           1677          49.00       185.27
HS scan finished at 01:34:27
end
************************************************************
  HS Scan of (1) Internal mercury lamp
************************************************************
Integration time is 0.2294 seconds per sample
dh040818Manchester 53.47 2.23 2.965129pr1000
************************************************************
Dead Time -------------------------  3E-08 
Number of Cycles Used -------------  4 
Starting Wavelength (Angstroms) ---  2950 
Final Wavelength (Angstoms) -------  2984 
Wavelength Increment (Angstroms) --  .25 
Filter Wheel #1 Position ---------- (1) Ground quartz diffuser (ND=2.32)
Filter Wheel #2 Position ---------- (1) Neutral Density 0.494



************************************************************
HS scan start time = 21:12:07
Dark Count =  6.5 


Time (GMT)  Wavelength (Ang)  Step Number  Raw Counts  Counts/Second

 1272.48        2950.00           1222          62.00       241.94
 1272.55        2950.25           1226          57.00       220.14
 1272.58        2950.50           1229          54.00       207.06
 1272.61        2950.75           1232          57.00       220.14
 1272.64        2951.00           1236          53.00       202.70
 1272.67        2951.25           1239          49.00       185.27
 1272.70        2951.50           1242          54.00       207.06
 1272.73        2951.75           1246          51.00       193.99
 1272.76        2952.00           1249          59.00       228.86
 1272.79        2952.25           1252          58.00       224.50
 1272.82        2952.50           1256          50.00       189.63
 1272.85        2952.75           1259          54.00       207.06
 1272.89        2953.00           1262          62.00       241.94
 1272.92        2953.25           1266          47.00       176.55
 1272.95        2953.50           1269          58.00       224.50
 1272.98        2953.75           1272          61.00       237.58
 1273.01        2954.00           1276          51.00       193.99
 1273.04        2954.25           1279          64.00       250.66
 1273.07        2954.50           1282          58.00       224.50
 1273.10        2954.75           1286          58.00       224.50
 1273.13        2955.00           1289          54.00       207.06
 1273.16        2955.25           1292          50.00       189.63
 1273.19        2955.50           1296          59.00       228.86
 1273.22        2955.75           1299          55.00       211.42
 1273.26        2956.00           1302          55.00       211.42
 1273.29        2956.25           1306          53.00       202.70
 1273.32        2956.50           1309          55.00       211.42
 1273.35        2956.75           1312          48.00       180.91
 1273.38        2957.00           1316          48.00       180.91
 1273.41        2957.25           1319          51.00       193.99
 1273.44        2957.50           1322          57.00       220.14
 1273.47        2957.75           1326          49.00       185.27
 1273.50        2958.00           1329          49.00       185.27
 1273.53        2958.25           1332          49.00       185.27
 1273.57        2958.50           1336          55.00       211.42
 1273.60        2958.75           1339          50.00       189.63
 1273.63        2959.00           1342          57.00       220.14
 1273.66        2959.25           1346          51.00       193.99
 1273.69        2959.50           1349          63.00       246.30
 1273.72        2959.75           1352          73.00       289.89
 1273.75        2960.00           1356          89.00       359.64
 1273.78        2960.25           1359         109.00       446.82
 1273.81        2960.50           1362         146.00       608.12
 1273.85        2960.75           1366         192.00       808.65
 1273.88        2961.00           1369         238.00      1009.18
 1273.91        2961.25           1372         261.00      1109.45
 1273.94        2961.50           1376         320.00      1366.66
 1273.97        2961.75           1379         415.00      1780.83
 1274.00        2962.00           1382         836.00      3616.35
 1274.03        2962.25           1386        2228.00      9686.77
 1274.06        2962.50           1389        3562.00     15506.34
 1274.09        2962.75           1392        4949.00     21559.28
 1274.12        2963.00           1396        6792.00     29605.62
 1274.16        2963.25           1399        8258.00     36008.80
 1274.19        2963.50           1402        9563.00     41710.84
 1274.22        2963.75           1406       11387.00     49683.85
 1274.25        2964.00           1409       12909.00     56339.69
 1274.28        2964.25           1412       14312.00     62477.51
 1274.31        2964.50           1416       16195.00     70718.75
 1274.34        2964.75           1419       17598.00     76861.85
 1274.37        2965.00           1422       19067.00     83296.38
 1274.41        2965.25           1426       20840.00     91065.81
 1274.44        2965.50           1429       22201.00     97032.28
 1274.47        2965.75           1432       23589.00    103119.30
 1274.50        2966.00           1436       25464.00    111345.60
 1274.53        2966.25           1439       26689.00    116722.30
 1274.56        2966.50           1442       27801.00    121604.60
 1274.59        2966.75           1446       29532.00    129207.40
 1274.62        2967.00           1449       30228.00    132265.30
 1274.65        2967.25           1452       30212.00    132195.00
 1274.69        2967.50           1456       30271.00    132454.20
 1274.72        2967.75           1459       30204.00    132159.80
 1274.75        2968.00           1462       30198.00    132133.50
 1274.78        2968.25           1466       29496.00    129049.20
 1274.81        2968.50           1469       28303.00    123809.10
 1274.84        2968.75           1472       26927.00    117767.10
 1274.87        2969.00           1476       25239.00    110358.20
 1274.90        2969.25           1479       23970.00    104790.60
 1274.94        2969.50           1482       22594.00     98755.52
 1274.97        2969.75           1486       20680.00     90364.52
 1275.00        2970.00           1489       19366.00     84606.37
 1275.03        2970.25           1492       17925.00     78293.97
 1275.06        2970.50           1496       16149.00     70517.38
 1275.09        2970.75           1499       14715.00     64240.95
 1275.12        2971.00           1502       13329.00     58176.86
 1275.15        2971.25           1506       11502.00     50186.66
 1275.18        2971.50           1509        9899.00     43179.26
 1275.21        2971.75           1513        8071.00     35191.89
 1275.25        2972.00           1516        6820.00     29727.90
 1275.28        2972.25           1519        5465.00     23811.69
 1275.31        2972.50           1523        3650.00     15890.31
 1275.34        2972.75           1526        2336.00     10157.85
 1275.37        2973.00           1529        1109.00      4806.71
 1275.40        2973.25           1533         417.00      1789.55
 1275.43        2973.50           1536         316.00      1349.23
 1275.46        2973.75           1539         270.00      1148.69
 1275.49        2974.00           1543         230.00       974.31
 1275.53        2974.25           1546         193.00       813.01
 1275.56        2974.50           1549         155.00       647.35
 1275.59        2974.75           1553          98.00       398.87
 1275.62        2975.00           1556          74.00       294.25
 1275.65        2975.25           1559          62.00       241.94
 1275.68        2975.50           1563          60.00       233.22
 1275.71        2975.75           1566          52.00       198.34
 1275.74        2976.00           1569          48.00       180.91
 1275.77        2976.25           1573          60.00       233.22
 1275.81        2976.50           1576          73.00       289.89
 1275.84        2976.75           1579          58.00       224.50
 1275.87        2977.00           1583          54.00       207.06
 1275.90        2977.25           1586          50.00       189.63
 1275.93        2977.50           1590          53.00       202.70
 1275.96        2977.75           1593          45.00       167.83
 1275.99        2978.00           1596          51.00       193.99
 1276.02        2978.25           1600          49.00       185.27
 1276.05        2978.50           1603          52.00       198.34
 1276.08        2978.75           1606          44.00       163.47
 1276.11        2979.00           1610          56.00       215.78
 1276.14        2979.25           1613          51.00       193.99
 1276.17        2979.50           1616          54.00       207.06
 1276.21        2979.75           1620          51.00       193.99
 1276.24        2980.00           1623          58.00       224.50
 1276.27        2980.25           1626          47.00       176.55
 1276.30        2980.50           1630          52.00       198.34
 1276.33        2980.75           1633          48.00       180.91
 1276.36        2981.00           1637          51.00       193.99
 1276.39        2981.25           1640          45.00       167.83
 1276.42        2981.50           1643          46.00       172.19
 1276.45        2981.75           1647          46.00       172.19
 1276.48        2982.00           1650          51.00       193.99
 1276.51        2982.25           1653          47.00       176.55
 1276.54        2982.50           1657          62.00       241.94
 1276.57        2982.75           1660          50.00       189.63
 1276.60        2983.00           1663          45.00       167.83
 1276.63        2983.25           1667          38.00       137.32
 1276.66        2983.50           1670          51.00       193.99
 1276.70        2983.75           1673          43.00       159.11
 1276.73        2984.00           1677          46.00       172.19
HS scan finished at 21:16:57
end
