************************************************************
  HS Scan of (1) Internal mercury lamp
************************************************************
Integration time is 0.2294 seconds per sample
dh310718Manchester 53.47 2.23 2.857833pr1000
************************************************************
Dead Time -------------------------  3E-08 
Number of Cycles Used -------------  4 
Starting Wavelength (Angstroms) ---  2950 
Final Wavelength (Angstoms) -------  2984 
Wavelength Increment (Angstroms) --  .25 
Filter Wheel #1 Position ---------- (1) Ground quartz diffuser (ND=2.32)
Filter Wheel #2 Position ---------- (1) Neutral Density 0.494



************************************************************
HS scan start time = 01:42:37
Dark Count =  5.3 


Time (GMT)  Wavelength (Ang)  Step Number  Raw Counts  Counts/Second

  102.99        2950.00           1222          55.00       216.65
  103.06        2950.25           1226          52.00       203.58
  103.09        2950.50           1229          57.00       225.37
  103.12        2950.75           1232          57.00       225.37
  103.15        2951.00           1236          58.00       229.73
  103.18        2951.25           1239          49.00       190.50
  103.21        2951.50           1242          52.00       203.58
  103.24        2951.75           1246          55.00       216.65
  103.27        2952.00           1249          58.00       229.73
  103.31        2952.25           1252          51.00       199.22
  103.34        2952.50           1256          53.00       207.94
  103.37        2952.75           1259          52.00       203.58
  103.40        2953.00           1262          52.00       203.58
  103.43        2953.25           1266          53.00       207.94
  103.46        2953.50           1269          51.00       199.22
  103.49        2953.75           1272          48.00       186.14
  103.52        2954.00           1276          58.00       229.73
  103.55        2954.25           1279          49.00       190.50
  103.58        2954.50           1282          59.00       234.09
  103.62        2954.75           1286          53.00       207.94
  103.65        2955.00           1289          55.00       216.65
  103.68        2955.25           1292          54.00       212.29
  103.71        2955.50           1296          58.00       229.73
  103.74        2955.75           1299          56.00       221.01
  103.77        2956.00           1302          57.00       225.37
  103.80        2956.25           1306          58.00       229.73
  103.83        2956.50           1309          50.00       194.86
  103.86        2956.75           1312          55.00       216.65
  103.89        2957.00           1316          51.00       199.22
  103.92        2957.25           1319          51.00       199.22
  103.95        2957.50           1322          50.00       194.86
  103.99        2957.75           1326          55.00       216.65
  104.02        2958.00           1329          51.00       199.22
  104.05        2958.25           1332          56.00       221.01
  104.08        2958.50           1336          63.00       251.53
  104.11        2958.75           1339          60.00       238.45
  104.14        2959.00           1342          48.00       186.14
  104.17        2959.25           1346          55.00       216.65
  104.20        2959.50           1349          68.00       273.32
  104.23        2959.75           1352          69.00       277.68
  104.26        2960.00           1356          92.00       377.95
  104.29        2960.25           1359         123.00       513.09
  104.32        2960.50           1362         154.00       648.23
  104.35        2960.75           1366         193.00       818.24
  104.39        2961.00           1369         235.00      1001.34
  104.42        2961.25           1372         274.00      1171.36
  104.45        2961.50           1376         351.00      1507.04
  104.48        2961.75           1379         611.00      2640.58
  104.51        2962.00           1382        1388.00      6028.55
  104.54        2962.25           1386        3114.00     13556.95
  104.57        2962.50           1389        4413.00     19225.12
  104.60        2962.75           1392        5721.00     24934.51
  104.63        2963.00           1396        7315.00     31894.93
  104.67        2963.25           1399        8750.00     38163.55
  104.70        2963.50           1402       10066.00     43914.40
  104.73        2963.75           1406       11942.00     52115.87
  104.76        2964.00           1409       13357.00     58304.60
  104.79        2964.25           1412       14999.00     65489.05
  104.82        2964.50           1416       16616.00     72567.13
  104.85        2964.75           1419       17919.00     78272.94
  104.88        2965.00           1422       19269.00     84186.63
  104.91        2965.25           1426       21075.00     92101.12
  104.95        2965.50           1429       22491.00     98309.13
  104.98        2965.75           1432       23602.00    103181.60
  105.01        2966.00           1436       25478.00    111412.30
  105.04        2966.25           1439       26823.00    117315.80
  105.07        2966.50           1442       28055.00    122725.20
  105.10        2966.75           1446       29232.00    127894.80
  105.13        2967.00           1449       29386.00    128571.20
  105.16        2967.25           1452       29536.00    129230.20
  105.19        2967.50           1456       29467.00    128927.10
  105.23        2967.75           1459       29450.00    128852.40
  105.26        2968.00           1462       29138.00    127481.80
  105.29        2968.25           1466       28024.00    122589.10
  105.32        2968.50           1469       26965.00    117939.20
  105.35        2968.75           1472       25838.00    112992.20
  105.38        2969.00           1476       23721.00    103703.60
  105.41        2969.25           1479       22573.00     98668.71
  105.44        2969.50           1482       21385.00     93460.02
  105.47        2969.75           1486       19483.00     85124.26
  105.51        2970.00           1489       18061.00     78894.88
  105.54        2970.25           1492       16716.00     73004.96
  105.57        2970.50           1496       14832.00     64758.21
  105.60        2970.75           1499       13460.00     58755.18
  105.63        2971.00           1502       12296.00     53663.92
  105.66        2971.25           1506       10348.00     45146.99
  105.69        2971.50           1509        9044.00     39448.14
  105.72        2971.75           1513        7253.00     31624.15
  105.75        2972.00           1516        5927.00     25833.88
  105.79        2972.25           1519        4538.00     19770.66
  105.82        2972.50           1523        2796.00     12169.66
  105.85        2972.75           1526        1545.00      6713.21
  105.88        2973.00           1529         719.00      3111.45
  105.91        2973.25           1533         368.00      1581.16
  105.94        2973.50           1536         323.00      1384.97
  105.97        2973.75           1539         262.00      1119.04
  106.00        2974.00           1543         229.00       975.18
  106.04        2974.25           1546         171.00       722.33
  106.07        2974.50           1549         130.00       543.60
  106.10        2974.75           1553          92.00       377.95
  106.13        2975.00           1556          75.00       303.84
  106.16        2975.25           1559          62.00       247.17
  106.19        2975.50           1563          58.00       229.73
  106.22        2975.75           1566          53.00       207.94
  106.25        2976.00           1569          52.00       203.58
  106.28        2976.25           1573          55.00       216.65
  106.32        2976.50           1576          47.00       181.78
  106.35        2976.75           1579          44.00       168.70
  106.38        2977.00           1583          47.00       181.78
  106.41        2977.25           1586          54.00       212.29
  106.44        2977.50           1590          58.00       229.73
  106.47        2977.75           1593          53.00       207.94
  106.50        2978.00           1596          47.00       181.78
  106.53        2978.25           1600          49.00       190.50
  106.56        2978.50           1603          48.00       186.14
  106.59        2978.75           1606          55.00       216.65
  106.63        2979.00           1610          55.00       216.65
  106.66        2979.25           1613          48.00       186.14
  106.69        2979.50           1616          54.00       212.29
  106.72        2979.75           1620          50.00       194.86
  106.75        2980.00           1623          49.00       190.50
  106.78        2980.25           1626          47.00       181.78
  106.81        2980.50           1630          48.00       186.14
  106.84        2980.75           1633          47.00       181.78
  106.87        2981.00           1637          48.00       186.14
  106.90        2981.25           1640          51.00       199.22
  106.93        2981.50           1643          45.00       173.06
  106.97        2981.75           1647          42.00       159.98
  107.00        2982.00           1650          49.00       190.50
  107.03        2982.25           1653          44.00       168.70
  107.06        2982.50           1657          49.00       190.50
  107.09        2982.75           1660          45.00       173.06
  107.12        2983.00           1663          53.00       207.94
  107.15        2983.25           1667          56.00       221.01
  107.18        2983.50           1670          47.00       181.78
  107.21        2983.75           1673          47.00       181.78
  107.25        2984.00           1677          53.00       207.94
HS scan finished at 01:47:28
end
************************************************************
  HS Scan of (1) Internal mercury lamp
************************************************************
Integration time is 0.2294 seconds per sample
dh310718Manchester 53.47 2.23 2.911481pr1000
************************************************************
Dead Time -------------------------  3E-08 
Number of Cycles Used -------------  4 
Starting Wavelength (Angstroms) ---  2950 
Final Wavelength (Angstoms) -------  2984 
Wavelength Increment (Angstroms) --  .25 
Filter Wheel #1 Position ---------- (1) Ground quartz diffuser (ND=2.32)
Filter Wheel #2 Position ---------- (1) Neutral Density 0.494



************************************************************
HS scan start time = 21:12:06
Dark Count =  5.8 


Time (GMT)  Wavelength (Ang)  Step Number  Raw Counts  Counts/Second

 1272.46        2950.00           1222          60.00       236.27
 1272.53        2950.25           1226          56.00       218.83
 1272.56        2950.50           1229          54.00       210.11
 1272.59        2950.75           1232          58.00       227.55
 1272.62        2951.00           1236          56.00       218.83
 1272.65        2951.25           1239          53.00       205.76
 1272.68        2951.50           1242          50.00       192.68
 1272.71        2951.75           1246          51.00       197.04
 1272.74        2952.00           1249          53.00       205.76
 1272.77        2952.25           1252          54.00       210.11
 1272.80        2952.50           1256          55.00       214.47
 1272.84        2952.75           1259          55.00       214.47
 1272.87        2953.00           1262          55.00       214.47
 1272.90        2953.25           1266          61.00       240.63
 1272.93        2953.50           1269          55.00       214.47
 1272.96        2953.75           1272          50.00       192.68
 1272.99        2954.00           1276          58.00       227.55
 1273.02        2954.25           1279          60.00       236.27
 1273.05        2954.50           1282          59.00       231.91
 1273.08        2954.75           1286          53.00       205.76
 1273.11        2955.00           1289          49.00       188.32
 1273.14        2955.25           1292          60.00       236.27
 1273.17        2955.50           1296          59.00       231.91
 1273.21        2955.75           1299          48.00       183.96
 1273.24        2956.00           1302          59.00       231.91
 1273.27        2956.25           1306          51.00       197.04
 1273.30        2956.50           1309          47.00       179.60
 1273.33        2956.75           1312          50.00       192.68
 1273.36        2957.00           1316          60.00       236.27
 1273.39        2957.25           1319          52.00       201.40
 1273.42        2957.50           1322          57.00       223.19
 1273.45        2957.75           1326          59.00       231.91
 1273.48        2958.00           1329          51.00       197.04
 1273.51        2958.25           1332          52.00       201.40
 1273.54        2958.50           1336          53.00       205.76
 1273.57        2958.75           1339          58.00       227.55
 1273.61        2959.00           1342          64.00       253.71
 1273.64        2959.25           1346          61.00       240.63
 1273.67        2959.50           1349          71.00       284.22
 1273.70        2959.75           1352          73.00       292.94
 1273.73        2960.00           1356          97.00       397.56
 1273.76        2960.25           1359         142.00       593.73
 1273.79        2960.50           1362         161.00       676.56
 1273.82        2960.75           1366         210.00       890.17
 1273.85        2961.00           1369         239.00      1016.60
 1273.88        2961.25           1372         274.00      1169.18
 1273.91        2961.50           1376         346.00      1483.07
 1273.95        2961.75           1379         446.00      1919.03
 1273.98        2962.00           1382         966.00      4186.23
 1274.01        2962.25           1386        2437.00     10601.45
 1274.04        2962.50           1389        3953.00     17215.52
 1274.07        2962.75           1392        5238.00     22823.82
 1274.10        2963.00           1396        6883.00     30006.08
 1274.13        2963.25           1399        8315.00     36260.87
 1274.16        2963.50           1402        9844.00     42941.95
 1274.19        2963.75           1406       11852.00     51720.12
 1274.22        2964.00           1409       13042.00     56924.51
 1274.25        2964.25           1412       14640.00     63915.82
 1274.29        2964.50           1416       16558.00     72311.01
 1274.32        2964.75           1419       17857.00     77999.22
 1274.35        2965.00           1422       19280.00     84232.64
 1274.38        2965.25           1426       21282.00     93006.31
 1274.41        2965.50           1429       22721.00     99315.52
 1274.44        2965.75           1432       24223.00    105903.50
 1274.47        2966.00           1436       25937.00    113424.50
 1274.50        2966.25           1439       27193.00    118938.00
 1274.53        2966.50           1442       28415.00    124304.00
 1274.56        2966.75           1446       29937.00    130989.80
 1274.60        2967.00           1449       30399.00    133019.70
 1274.63        2967.25           1452       30432.00    133164.80
 1274.66        2967.50           1456       30387.00    132967.00
 1274.69        2967.75           1459       30424.00    133129.60
 1274.72        2968.00           1462       30332.00    132725.30
 1274.75        2968.25           1466       29451.00    128854.60
 1274.78        2968.50           1469       28457.00    124488.50
 1274.81        2968.75           1472       26870.00    117520.00
 1274.84        2969.00           1476       25001.00    109317.00
 1274.88        2969.25           1479       23692.00    103574.20
 1274.91        2969.50           1482       22232.00     97171.27
 1274.94        2969.75           1486       20503.00     89591.83
 1274.97        2970.00           1489       19168.00     83741.94
 1275.00        2970.25           1492       17877.00     78086.81
 1275.03        2970.50           1496       15969.00     69732.48
 1275.06        2970.75           1499       14648.00     63950.82
 1275.09        2971.00           1502       13322.00     58149.31
 1275.12        2971.25           1506       11190.00     48825.61
 1275.15        2971.50           1509        9825.00     42858.92
 1275.18        2971.75           1513        8005.00     34906.63
 1275.21        2972.00           1516        6551.00     28556.28
 1275.24        2972.25           1519        5176.00     22553.18
 1275.28        2972.50           1523        3377.00     14702.21
 1275.31        2972.75           1526        2142.00      9314.72
 1275.34        2973.00           1529        1046.00      4535.05
 1275.37        2973.25           1533         367.00      1574.62
 1275.40        2973.50           1536         288.00      1230.21
 1275.43        2973.75           1539         230.00       977.36
 1275.46        2974.00           1543         200.00       846.58
 1275.49        2974.25           1546         133.00       554.50
 1275.52        2974.50           1549         110.00       454.23
 1275.55        2974.75           1553          87.00       353.97
 1275.58        2975.00           1556          69.00       275.50
 1275.61        2975.25           1559          65.00       258.07
 1275.64        2975.50           1563          55.00       214.47
 1275.68        2975.75           1566          60.00       236.27
 1275.71        2976.00           1569          45.00       170.88
 1275.74        2976.25           1573          56.00       218.83
 1275.77        2976.50           1576          49.00       188.32
 1275.80        2976.75           1579          57.00       223.19
 1275.83        2977.00           1583          55.00       214.47
 1275.86        2977.25           1586          56.00       218.83
 1275.89        2977.50           1590          50.00       192.68
 1275.92        2977.75           1593          46.00       175.24
 1275.95        2978.00           1596          49.00       188.32
 1275.99        2978.25           1600          54.00       210.11
 1276.02        2978.50           1603          51.00       197.04
 1276.05        2978.75           1606          57.00       223.19
 1276.08        2979.00           1610          51.00       197.04
 1276.11        2979.25           1613          61.00       240.63
 1276.14        2979.50           1616          66.00       262.43
 1276.17        2979.75           1620          52.00       201.40
 1276.20        2980.00           1623          56.00       218.83
 1276.23        2980.25           1626          57.00       223.19
 1276.26        2980.50           1630          47.00       179.60
 1276.29        2980.75           1633          49.00       188.32
 1276.33        2981.00           1637          50.00       192.68
 1276.36        2981.25           1640          54.00       210.11
 1276.39        2981.50           1643          50.00       192.68
 1276.42        2981.75           1647          52.00       201.40
 1276.45        2982.00           1650          48.00       183.96
 1276.48        2982.25           1653          49.00       188.32
 1276.51        2982.50           1657          49.00       188.32
 1276.54        2982.75           1660          51.00       197.04
 1276.57        2983.00           1663          51.00       197.04
 1276.60        2983.25           1667          39.00       144.73
 1276.63        2983.50           1670          45.00       170.88
 1276.66        2983.75           1673          46.00       175.24
 1276.69        2984.00           1677          52.00       201.40
HS scan finished at 21:16:55
end
