************************************************************
  HS Scan of (1) Internal mercury lamp
************************************************************
Integration time is 0.2294 seconds per sample
dh010817Manchester 53.47 2.23 2.804185pr1000
************************************************************
Dead Time -------------------------  3E-08 
Number of Cycles Used -------------  4 
Starting Wavelength (Angstroms) ---  2950 
Final Wavelength (Angstoms) -------  2984 
Wavelength Increment (Angstroms) --  .25 
Filter Wheel #1 Position ---------- (1) Ground quartz diffuser (ND=2.32)
Filter Wheel #2 Position ---------- (1) Neutral Density 0.494



************************************************************
HS scan start time = 01:43:41
Dark Count =  7.3 


Time (GMT)  Wavelength (Ang)  Step Number  Raw Counts  Counts/Second

  104.05        2950.00           1222          88.00       351.79
  104.11        2950.25           1226          93.00       373.59
  104.14        2950.50           1229          88.00       351.79
  104.17        2950.75           1232         102.00       412.82
  104.20        2951.00           1236          88.00       351.79
  104.24        2951.25           1239          87.00       347.43
  104.27        2951.50           1242          95.00       382.31
  104.30        2951.75           1246          93.00       373.59
  104.33        2952.00           1249          98.00       395.38
  104.36        2952.25           1252         104.00       421.54
  104.39        2952.50           1256         104.00       421.54
  104.42        2952.75           1259          95.00       382.31
  104.45        2953.00           1262          92.00       369.23
  104.48        2953.25           1266          97.00       391.02
  104.51        2953.50           1269          84.00       334.35
  104.54        2953.75           1272          82.00       325.64
  104.57        2954.00           1276          91.00       364.87
  104.61        2954.25           1279          92.00       369.23
  104.64        2954.50           1282         100.00       404.10
  104.67        2954.75           1286          91.00       364.87
  104.70        2955.00           1289          93.00       373.59
  104.73        2955.25           1292          95.00       382.31
  104.76        2955.50           1296          98.00       395.38
  104.79        2955.75           1299          91.00       364.87
  104.82        2956.00           1302          88.00       351.79
  104.85        2956.25           1306          99.00       399.74
  104.88        2956.50           1309          91.00       364.87
  104.92        2956.75           1312          84.00       334.35
  104.95        2957.00           1316          87.00       347.43
  104.98        2957.25           1319          95.00       382.31
  105.01        2957.50           1322          95.00       382.31
  105.04        2957.75           1326          89.00       356.15
  105.07        2958.00           1329          94.00       377.95
  105.10        2958.25           1332          87.00       347.43
  105.13        2958.50           1336         102.00       412.82
  105.16        2958.75           1339          89.00       356.15
  105.19        2959.00           1342          92.00       369.23
  105.22        2959.25           1346          88.00       351.79
  105.25        2959.50           1349         109.00       443.34
  105.29        2959.75           1352         106.00       430.26
  105.32        2960.00           1356         149.00       617.71
  105.35        2960.25           1359         173.00       722.33
  105.38        2960.50           1362         214.00       901.07
  105.41        2960.75           1366         266.00      1127.76
  105.44        2961.00           1369         315.00      1341.38
  105.47        2961.25           1372         358.00      1528.84
  105.50        2961.50           1376         400.00      1711.95
  105.53        2961.75           1379         530.00      2278.71
  105.56        2962.00           1382        1006.00      4354.10
  105.59        2962.25           1386        2565.00     11153.25
  105.63        2962.50           1389        4237.00     18448.31
  105.66        2962.75           1392        5794.00     25244.48
  105.69        2963.00           1396        7862.00     34275.42
  105.72        2963.25           1399        9475.00     41322.77
  105.75        2963.50           1402       11050.00     48206.98
  105.78        2963.75           1406       13208.00     57644.07
  105.81        2964.00           1409       14949.00     65261.48
  105.84        2964.25           1412       16732.00     73066.26
  105.87        2964.50           1416       19040.00     83174.59
  105.90        2964.75           1419       20684.00     90378.54
  105.93        2965.00           1422       22435.00     98054.81
  105.97        2965.25           1426       24768.00    108288.00
  106.00        2965.50           1429       26374.00    115336.10
  106.03        2965.75           1432       28367.00    124086.60
  106.06        2966.00           1436       30304.00    132595.70
  106.09        2966.25           1439       31797.00    139157.30
  106.12        2966.50           1442       33141.00    145066.30
  106.15        2966.75           1446       35121.00    153775.30
  106.18        2967.00           1449       35997.00    157629.90
  106.21        2967.25           1452       35884.00    157132.60
  106.24        2967.50           1456       35816.00    156833.40
  106.28        2967.75           1459       35812.00    156815.80
  106.31        2968.00           1462       35859.00    157022.60
  106.34        2968.25           1466       34878.00    152706.30
  106.37        2968.50           1469       33425.00    146315.20
  106.40        2968.75           1472       31947.00    139816.70
  106.43        2969.00           1476       29772.00    130258.30
  106.46        2969.25           1479       28093.00    122883.30
  106.49        2969.50           1482       26428.00    115573.10
  106.52        2969.75           1486       24270.00    106103.10
  106.55        2970.00           1489       22549.00     98554.69
  106.58        2970.25           1492       21032.00     91903.87
  106.61        2970.50           1496       18909.00     82600.68
  106.65        2970.75           1499       17394.00     75964.99
  106.68        2971.00           1502       15871.00     69296.91
  106.71        2971.25           1506       13457.00     58733.31
  106.74        2971.50           1509       11798.00     51477.44
  106.77        2971.75           1513        9701.00     42310.43
  106.80        2972.00           1516        7994.00     34852.03
  106.83        2972.25           1519        6411.00     27938.41
  106.86        2972.50           1523        4430.00     19290.59
  106.89        2972.75           1526        2842.00     12361.60
  106.92        2973.00           1529        1506.00      6534.41
  106.95        2973.25           1533         554.00      2383.34
  106.98        2973.50           1536         394.00      1685.79
  107.02        2973.75           1539         345.00      1472.17
  107.05        2974.00           1543         270.00      1145.20
  107.08        2974.25           1546         212.00       892.35
  107.11        2974.50           1549         165.00       687.46
  107.14        2974.75           1553         119.00       486.93
  107.17        2975.00           1556         102.00       412.82
  107.20        2975.25           1559          82.00       325.64
  107.23        2975.50           1563          91.00       364.87
  107.26        2975.75           1566          87.00       347.43
  107.29        2976.00           1569          81.00       321.28
  107.32        2976.25           1573          81.00       321.28
  107.35        2976.50           1576          83.00       329.99
  107.38        2976.75           1579          83.00       329.99
  107.42        2977.00           1583          96.00       386.67
  107.45        2977.25           1586          80.00       316.92
  107.48        2977.50           1590          90.00       360.51
  107.51        2977.75           1593          86.00       343.07
  107.54        2978.00           1596          79.00       312.56
  107.57        2978.25           1600          90.00       360.51
  107.60        2978.50           1603          87.00       347.43
  107.63        2978.75           1606          86.00       343.07
  107.66        2979.00           1610          76.00       299.48
  107.69        2979.25           1613          75.00       295.12
  107.72        2979.50           1616          82.00       325.64
  107.76        2979.75           1620          85.00       338.71
  107.79        2980.00           1623          70.00       273.32
  107.82        2980.25           1626          77.00       303.84
  107.85        2980.50           1630          82.00       325.64
  107.88        2980.75           1633          80.00       316.92
  107.91        2981.00           1637          77.00       303.84
  107.94        2981.25           1640          79.00       312.56
  107.97        2981.50           1643          78.00       308.20
  108.00        2981.75           1647          81.00       321.28
  108.03        2982.00           1650          84.00       334.35
  108.06        2982.25           1653          73.00       286.40
  108.09        2982.50           1657          90.00       360.51
  108.12        2982.75           1660          87.00       347.43
  108.16        2983.00           1663          86.00       343.07
  108.19        2983.25           1667          79.00       312.56
  108.22        2983.50           1670          83.00       329.99
  108.25        2983.75           1673          83.00       329.99
  108.28        2984.00           1677          80.00       316.92
HS scan finished at 01:48:30
end
************************************************************
  HS Scan of (1) Internal mercury lamp
************************************************************
Integration time is 0.2294 seconds per sample
dh010817Manchester 53.47 2.23 2.911481pr1000
************************************************************
Dead Time -------------------------  3E-08 
Number of Cycles Used -------------  4 
Starting Wavelength (Angstroms) ---  2950 
Final Wavelength (Angstoms) -------  2984 
Wavelength Increment (Angstroms) --  .25 
Filter Wheel #1 Position ---------- (1) Ground quartz diffuser (ND=2.32)
Filter Wheel #2 Position ---------- (1) Neutral Density 0.494



************************************************************
HS scan start time = 21:12:00
Dark Count =  7.7 


Time (GMT)  Wavelength (Ang)  Step Number  Raw Counts  Counts/Second

 1272.37        2950.00           1222         101.00       406.72
 1272.44        2950.25           1226          94.00       376.20
 1272.47        2950.50           1229          94.00       376.20
 1272.50        2950.75           1232         100.00       402.36
 1272.53        2951.00           1236         101.00       406.72
 1272.56        2951.25           1239          99.00       398.00
 1272.59        2951.50           1242         100.00       402.36
 1272.63        2951.75           1246          96.00       384.92
 1272.66        2952.00           1249          92.00       367.48
 1272.69        2952.25           1252          96.00       384.92
 1272.72        2952.50           1256          90.00       358.77
 1272.75        2952.75           1259          93.00       371.84
 1272.78        2953.00           1262          89.00       354.41
 1272.81        2953.25           1266          90.00       358.77
 1272.84        2953.50           1269          94.00       376.20
 1272.87        2953.75           1272         101.00       406.72
 1272.90        2954.00           1276          89.00       354.41
 1272.93        2954.25           1279          98.00       393.64
 1272.96        2954.50           1282          94.00       376.20
 1273.00        2954.75           1286          94.00       376.20
 1273.03        2955.00           1289          91.00       363.13
 1273.06        2955.25           1292          93.00       371.84
 1273.09        2955.50           1296          91.00       363.13
 1273.12        2955.75           1299          87.00       345.69
 1273.15        2956.00           1302          90.00       358.77
 1273.18        2956.25           1306          93.00       371.84
 1273.21        2956.50           1309         101.00       406.72
 1273.24        2956.75           1312          95.00       380.56
 1273.27        2957.00           1316         102.00       411.08
 1273.30        2957.25           1319          87.00       345.69
 1273.33        2957.50           1322         105.00       424.16
 1273.36        2957.75           1326          99.00       398.00
 1273.39        2958.00           1329          89.00       354.41
 1273.42        2958.25           1332          94.00       376.20
 1273.46        2958.50           1336          96.00       384.92
 1273.49        2958.75           1339          99.00       398.00
 1273.52        2959.00           1342          92.00       367.48
 1273.55        2959.25           1346          89.00       354.41
 1273.58        2959.50           1349          95.00       380.56
 1273.61        2959.75           1352         109.00       441.59
 1273.64        2960.00           1356         138.00       568.01
 1273.67        2960.25           1359         161.00       668.28
 1273.70        2960.50           1362         199.00       833.94
 1273.73        2960.75           1366         280.00      1187.05
 1273.76        2961.00           1369         302.00      1282.96
 1273.80        2961.25           1372         351.00      1496.58
 1273.83        2961.50           1376         433.00      1854.07
 1273.86        2961.75           1379         596.00      2564.71
 1273.89        2962.00           1382        1231.00      5333.46
 1273.92        2962.25           1386        3196.00     13904.23
 1273.95        2962.50           1389        4789.00     20855.68
 1273.98        2962.75           1392        6259.00     27272.96
 1274.01        2963.00           1396        8437.00     36785.56
 1274.04        2963.25           1399       10138.00     44218.60
 1274.08        2963.50           1402       11838.00     51650.59
 1274.11        2963.75           1406       14155.00     61785.30
 1274.14        2964.00           1409       15806.00     69010.65
 1274.17        2964.25           1412       17702.00     77312.07
 1274.20        2964.50           1416       19935.00     87094.31
 1274.23        2964.75           1419       21539.00     94124.62
 1274.26        2965.00           1422       23310.00    101890.30
 1274.29        2965.25           1426       25567.00    111792.40
 1274.32        2965.50           1429       27157.00    118771.60
 1274.36        2965.75           1432       28957.00    126676.20
 1274.39        2966.00           1436       31358.00    137225.90
 1274.42        2966.25           1439       32933.00    144149.90
 1274.45        2966.50           1442       34524.00    151147.20
 1274.48        2966.75           1446       36310.00    159005.60
 1274.51        2967.00           1449       36781.00    161078.60
 1274.54        2967.25           1452       37168.00    162782.10
 1274.57        2967.50           1456       37200.00    162923.00
 1274.60        2967.75           1459       36916.00    161672.80
 1274.63        2968.00           1462       36952.00    161831.30
 1274.67        2968.25           1466       35984.00    157570.90
 1274.70        2968.50           1469       34718.00    152000.60
 1274.73        2968.75           1472       33251.00    145548.30
 1274.76        2969.00           1476       30942.00    135397.60
 1274.79        2969.25           1479       29406.00    128648.60
 1274.82        2969.50           1482       27477.00    120176.60
 1274.85        2969.75           1486       25292.00    110585.50
 1274.88        2970.00           1489       23498.00    102714.90
 1274.91        2970.25           1492       22149.00     96799.01
 1274.94        2970.50           1496       19807.00     86533.42
 1274.97        2970.75           1499       18042.00     78801.15
 1275.01        2971.00           1502       16284.00     71103.13
 1275.04        2971.25           1506       14203.00     61995.32
 1275.07        2971.50           1509       12338.00     53837.10
 1275.10        2971.75           1513       10127.00     44170.53
 1275.13        2972.00           1516        8500.00     37060.80
 1275.16        2972.25           1519        6680.00     29111.29
 1275.19        2972.50           1523        4495.00     19572.52
 1275.22        2972.75           1526        2863.00     12451.47
 1275.26        2973.00           1529        1404.00      6087.86
 1275.29        2973.25           1533         549.00      2359.80
 1275.32        2973.50           1536         422.00      1806.11
 1275.35        2973.75           1539         366.00      1561.97
 1275.38        2974.00           1543         297.00      1261.16
 1275.41        2974.25           1546         231.00       973.44
 1275.44        2974.50           1549         175.00       729.31
 1275.47        2974.75           1553         133.00       546.22
 1275.50        2975.00           1556         107.00       432.87
 1275.53        2975.25           1559          96.00       384.92
 1275.56        2975.50           1563          92.00       367.48
 1275.59        2975.75           1566          87.00       345.69
 1275.62        2976.00           1569          87.00       345.69
 1275.65        2976.25           1573          93.00       371.84
 1275.69        2976.50           1576          76.00       297.74
 1275.72        2976.75           1579          81.00       319.53
 1275.75        2977.00           1583          91.00       363.13
 1275.78        2977.25           1586          80.00       315.17
 1275.81        2977.50           1590          89.00       354.41
 1275.84        2977.75           1593          88.00       350.05
 1275.87        2978.00           1596          80.00       315.17
 1275.90        2978.25           1600          84.00       332.61
 1275.93        2978.50           1603          83.00       328.25
 1275.96        2978.75           1606          82.00       323.89
 1275.99        2979.00           1610          74.00       289.02
 1276.02        2979.25           1613          80.00       315.17
 1276.06        2979.50           1616          79.00       310.81
 1276.09        2979.75           1620          76.00       297.74
 1276.12        2980.00           1623          75.00       293.38
 1276.15        2980.25           1626          85.00       336.97
 1276.18        2980.50           1630          90.00       358.77
 1276.21        2980.75           1633          87.00       345.69
 1276.24        2981.00           1637          82.00       323.89
 1276.27        2981.25           1640          81.00       319.53
 1276.30        2981.50           1643          88.00       350.05
 1276.33        2981.75           1647          78.00       306.45
 1276.36        2982.00           1650          77.00       302.10
 1276.40        2982.25           1653          87.00       345.69
 1276.43        2982.50           1657          85.00       336.97
 1276.46        2982.75           1660          86.00       341.33
 1276.49        2983.00           1663          79.00       310.81
 1276.52        2983.25           1667          83.00       328.25
 1276.55        2983.50           1670          81.00       319.53
 1276.58        2983.75           1673          79.00       310.81
 1276.61        2984.00           1677          79.00       310.81
HS scan finished at 21:16:49
end
