************************************************************
  HS Scan of (1) Internal mercury lamp
************************************************************
Integration time is 0.2294 seconds per sample
dh060817Manchester 53.47 2.23 2.804185pr1000
************************************************************
Dead Time -------------------------  3E-08 
Number of Cycles Used -------------  4 
Starting Wavelength (Angstroms) ---  2950 
Final Wavelength (Angstoms) -------  2984 
Wavelength Increment (Angstroms) --  .25 
Filter Wheel #1 Position ---------- (1) Ground quartz diffuser (ND=2.32)
Filter Wheel #2 Position ---------- (1) Neutral Density 0.494



************************************************************
HS scan start time = 01:42:49
Dark Count =  5.7 


Time (GMT)  Wavelength (Ang)  Step Number  Raw Counts  Counts/Second

  103.19        2950.00           1222          90.00       367.48
  103.26        2950.25           1226          87.00       354.41
  103.29        2950.50           1229          89.00       363.13
  103.32        2950.75           1232          87.00       354.41
  103.35        2951.00           1236         101.00       415.44
  103.38        2951.25           1239          82.00       332.61
  103.41        2951.50           1242          84.00       341.33
  103.44        2951.75           1246          95.00       389.28
  103.47        2952.00           1249          84.00       341.33
  103.51        2952.25           1252          92.00       376.20
  103.54        2952.50           1256          93.00       380.56
  103.57        2952.75           1259          87.00       354.41
  103.60        2953.00           1262          90.00       367.48
  103.63        2953.25           1266          89.00       363.13
  103.66        2953.50           1269          79.00       319.53
  103.69        2953.75           1272          90.00       367.48
  103.72        2954.00           1276          88.00       358.77
  103.75        2954.25           1279          93.00       380.56
  103.78        2954.50           1282          95.00       389.28
  103.81        2954.75           1286          94.00       384.92
  103.84        2955.00           1289          82.00       332.61
  103.88        2955.25           1292          83.00       336.97
  103.91        2955.50           1296          83.00       336.97
  103.94        2955.75           1299          87.00       354.41
  103.97        2956.00           1302          91.00       371.84
  104.00        2956.25           1306          93.00       380.56
  104.03        2956.50           1309          87.00       354.41
  104.06        2956.75           1312          86.00       350.05
  104.09        2957.00           1316          86.00       350.05
  104.12        2957.25           1319          86.00       350.05
  104.15        2957.50           1322          80.00       323.89
  104.18        2957.75           1326          83.00       336.97
  104.21        2958.00           1329          99.00       406.72
  104.24        2958.25           1332          83.00       336.97
  104.28        2958.50           1336          87.00       354.41
  104.31        2958.75           1339          86.00       350.05
  104.34        2959.00           1342         102.00       419.80
  104.37        2959.25           1346          87.00       354.41
  104.40        2959.50           1349          87.00       354.41
  104.43        2959.75           1352          94.00       384.92
  104.46        2960.00           1356         115.00       476.47
  104.49        2960.25           1359         142.00       594.17
  104.52        2960.50           1362         170.00       716.23
  104.55        2960.75           1366         234.00       995.23
  104.58        2961.00           1369         281.00      1200.13
  104.61        2961.25           1372         324.00      1387.59
  104.65        2961.50           1376         406.00      1745.08
  104.68        2961.75           1379         708.00      3061.75
  104.71        2962.00           1382        1562.00      6785.60
  104.74        2962.25           1386        3631.00     15810.90
  104.77        2962.50           1389        5349.00     23308.80
  104.80        2962.75           1392        6936.00     30237.97
  104.83        2963.00           1396        8914.00     38878.36
  104.86        2963.25           1399       10550.00     46028.21
  104.89        2963.50           1402       12173.00     53124.27
  104.93        2963.75           1406       14434.00     63014.83
  104.96        2964.00           1409       16125.00     70415.81
  104.99        2964.25           1412       17943.00     78376.31
  105.02        2964.50           1416       20045.00     87585.11
  105.05        2964.75           1419       21800.00     95277.62
  105.08        2965.00           1422       23436.00    102451.70
  105.11        2965.25           1426       25698.00    112376.00
  105.14        2965.50           1429       27485.00    120220.50
  105.17        2965.75           1432       29075.00    127203.30
  105.21        2966.00           1436       31213.00    136597.40
  105.24        2966.25           1439       32949.00    144229.10
  105.27        2966.50           1442       33990.00    148807.10
  105.30        2966.75           1446       35538.00    155617.10
  105.33        2967.00           1449       35516.00    155520.40
  105.36        2967.25           1452       35509.00    155489.60
  105.39        2967.50           1456       35563.00    155727.20
  105.42        2967.75           1459       35566.00    155740.40
  105.45        2968.00           1462       35202.00    154138.80
  105.49        2968.25           1466       33532.00    146792.80
  105.52        2968.50           1469       32011.00    140105.10
  105.55        2968.75           1472       30666.00    134193.50
  105.58        2969.00           1476       28723.00    125657.20
  105.61        2969.25           1479       26998.00    118082.40
  105.64        2969.50           1482       25533.00    111651.90
  105.67        2969.75           1486       23172.00    101293.80
  105.70        2970.00           1489       21667.00     94694.53
  105.73        2970.25           1492       20107.00     87856.81
  105.76        2970.50           1496       18044.00     78818.68
  105.79        2970.75           1499       16247.00     70949.90
  105.83        2971.00           1502       14615.00     63806.86
  105.86        2971.25           1506       12251.00     53465.38
  105.89        2971.50           1509       10583.00     46172.46
  105.92        2971.75           1513        8324.00     36300.63
  105.95        2972.00           1516        6862.00     29914.81
  105.98        2972.25           1519        5288.00     23042.52
  106.01        2972.50           1523        3195.00     13908.59
  106.04        2972.75           1526        1795.00      7801.74
  106.07        2973.00           1529         863.00      3737.56
  106.10        2973.25           1533         476.00      2050.26
  106.14        2973.50           1536         392.00      1684.04
  106.17        2973.75           1539         353.00      1514.02
  106.20        2974.00           1543         289.00      1235.01
  106.23        2974.25           1546         231.00       982.16
  106.26        2974.50           1549         176.00       742.39
  106.29        2974.75           1553         126.00       524.42
  106.32        2975.00           1556         102.00       419.80
  106.35        2975.25           1559          96.00       393.64
  106.38        2975.50           1563          88.00       358.77
  106.41        2975.75           1566          77.00       310.81
  106.44        2976.00           1569          82.00       332.61
  106.48        2976.25           1573          80.00       323.89
  106.51        2976.50           1576          83.00       336.97
  106.54        2976.75           1579          86.00       350.05
  106.57        2977.00           1583          75.00       302.10
  106.60        2977.25           1586          83.00       336.97
  106.63        2977.50           1590          83.00       336.97
  106.66        2977.75           1593          77.00       310.81
  106.69        2978.00           1596          79.00       319.53
  106.72        2978.25           1600          74.00       297.74
  106.75        2978.50           1603          82.00       332.61
  106.78        2978.75           1606          71.00       284.66
  106.81        2979.00           1610          77.00       310.81
  106.85        2979.25           1613          71.00       284.66
  106.88        2979.50           1616          78.00       315.17
  106.91        2979.75           1620          78.00       315.17
  106.94        2980.00           1623          82.00       332.61
  106.97        2980.25           1626          86.00       350.05
  107.00        2980.50           1630          72.00       289.02
  107.03        2980.75           1633          83.00       336.97
  107.06        2981.00           1637          80.00       323.89
  107.09        2981.25           1640          81.00       328.25
  107.12        2981.50           1643          85.00       345.69
  107.15        2981.75           1647          78.00       315.17
  107.19        2982.00           1650          76.00       306.45
  107.22        2982.25           1653          76.00       306.45
  107.25        2982.50           1657          76.00       306.45
  107.28        2982.75           1660          78.00       315.17
  107.31        2983.00           1663          74.00       297.74
  107.34        2983.25           1667          83.00       336.97
  107.37        2983.50           1670          92.00       376.20
  107.40        2983.75           1673          73.00       293.38
  107.43        2984.00           1677          76.00       306.45
HS scan finished at 01:47:39
end
************************************************************
  HS Scan of (1) Internal mercury lamp
************************************************************
Integration time is 0.2294 seconds per sample
dh060817Manchester 53.47 2.23 2.804185pr1000
************************************************************
Dead Time -------------------------  3E-08 
Number of Cycles Used -------------  4 
Starting Wavelength (Angstroms) ---  2950 
Final Wavelength (Angstoms) -------  2984 
Wavelength Increment (Angstroms) --  .25 
Filter Wheel #1 Position ---------- (1) Ground quartz diffuser (ND=2.32)
Filter Wheel #2 Position ---------- (1) Neutral Density 0.494



************************************************************
HS scan start time = 20:42:02
Dark Count =  3.6 


Time (GMT)  Wavelength (Ang)  Step Number  Raw Counts  Counts/Second

 1242.40        2950.00           1222          97.00       407.15
 1242.47        2950.25           1226          98.00       411.51
 1242.50        2950.50           1229          91.00       381.00
 1242.53        2950.75           1232          91.00       381.00
 1242.56        2951.00           1236          91.00       381.00
 1242.59        2951.25           1239          87.00       363.56
 1242.62        2951.50           1242          93.00       389.72
 1242.66        2951.75           1246          85.00       354.84
 1242.69        2952.00           1249          82.00       341.76
 1242.72        2952.25           1252          93.00       389.72
 1242.75        2952.50           1256          89.00       372.28
 1242.78        2952.75           1259          90.00       376.64
 1242.81        2953.00           1262          94.00       394.08
 1242.84        2953.25           1266          92.00       385.36
 1242.87        2953.50           1269          79.00       328.69
 1242.90        2953.75           1272          93.00       389.72
 1242.93        2954.00           1276          95.00       398.44
 1242.96        2954.25           1279          90.00       376.64
 1243.00        2954.50           1282          89.00       372.28
 1243.03        2954.75           1286          92.00       385.36
 1243.06        2955.00           1289          92.00       385.36
 1243.09        2955.25           1292          89.00       372.28
 1243.12        2955.50           1296         103.00       433.31
 1243.15        2955.75           1299          89.00       372.28
 1243.18        2956.00           1302          89.00       372.28
 1243.21        2956.25           1306          86.00       359.20
 1243.24        2956.50           1309          82.00       341.76
 1243.27        2956.75           1312          93.00       389.72
 1243.30        2957.00           1316          89.00       372.28
 1243.33        2957.25           1319          85.00       354.84
 1243.36        2957.50           1322          87.00       363.56
 1243.39        2957.75           1326          84.00       350.48
 1243.42        2958.00           1329          88.00       367.92
 1243.46        2958.25           1332          91.00       381.00
 1243.49        2958.50           1336          84.00       350.48
 1243.52        2958.75           1339          83.00       346.12
 1243.55        2959.00           1342          97.00       407.15
 1243.58        2959.25           1346          97.00       407.15
 1243.61        2959.50           1349         111.00       468.18
 1243.64        2959.75           1352         123.00       520.50
 1243.67        2960.00           1356         153.00       651.28
 1243.71        2960.25           1359         194.00       830.01
 1243.74        2960.50           1362         239.00      1026.19
 1243.77        2960.75           1366         298.00      1283.40
 1243.80        2961.00           1369         342.00      1475.22
 1243.83        2961.25           1372         372.00      1606.01
 1243.86        2961.50           1376         486.00      2103.01
 1243.89        2961.75           1379         810.00      3515.63
 1243.92        2962.00           1382        1738.00      7562.31
 1243.95        2962.25           1386        3669.00     15985.87
 1243.98        2962.50           1389        5250.00     22885.80
 1244.01        2962.75           1392        6777.00     29552.78
 1244.04        2963.00           1396        8915.00     38891.91
 1244.08        2963.25           1399       10536.00     45976.19
 1244.11        2963.50           1402       12180.00     53164.07
 1244.14        2963.75           1406       14301.00     62442.07
 1244.17        2964.00           1409       16113.00     70372.48
 1244.20        2964.25           1412       17896.00     78179.66
 1244.23        2964.50           1416       20070.00     87703.87
 1244.26        2964.75           1419       21663.00     94686.19
 1244.29        2965.00           1422       23375.00    102193.40
 1244.32        2965.25           1426       25603.00    111968.30
 1244.36        2965.50           1429       27337.00    119579.90
 1244.39        2965.75           1432       29038.00    127050.00
 1244.42        2966.00           1436       31044.00    135863.90
 1244.45        2966.25           1439       32629.00    142831.30
 1244.48        2966.50           1442       33906.00    148446.90
 1244.51        2966.75           1446       35454.00    155256.80
 1244.54        2967.00           1449       35361.00    154847.60
 1244.57        2967.25           1452       35517.00    155534.00
 1244.60        2967.50           1456       35565.00    155745.20
 1244.64        2967.75           1459       35434.00    155168.80
 1244.67        2968.00           1462       35117.00    153774.00
 1244.70        2968.25           1466       33917.00    148495.30
 1244.73        2968.50           1469       32353.00    141617.80
 1244.76        2968.75           1472       30822.00    134888.30
 1244.79        2969.00           1476       28776.00    125899.20
 1244.82        2969.25           1479       27020.00    118188.20
 1244.85        2969.50           1482       25765.00    112679.30
 1244.88        2969.75           1486       23421.00    102395.10
 1244.92        2970.00           1489       21743.00     95036.92
 1244.95        2970.25           1492       20253.00     88505.84
 1244.98        2970.50           1496       18013.00     78692.10
 1245.01        2970.75           1499       16293.00     71160.47
 1245.04        2971.00           1502       14777.00     64524.96
 1245.07        2971.25           1506       12418.00     54204.90
 1245.10        2971.50           1509       10623.00     46356.49
 1245.13        2971.75           1513        8575.00     37406.38
 1245.16        2972.00           1516        6999.00     30522.27
 1245.19        2972.25           1519        5397.00     23527.50
 1245.23        2972.50           1523        3260.00     14201.34
 1245.26        2972.75           1526        1802.00      7841.43
 1245.29        2973.00           1529         772.00      3349.94
 1245.32        2973.25           1533         421.00      1819.63
 1245.35        2973.50           1536         344.00      1483.94
 1245.38        2973.75           1539         287.00      1235.44
 1245.41        2974.00           1543         241.00      1034.91
 1245.44        2974.25           1546         179.00       764.62
 1245.47        2974.50           1549         135.00       572.81
 1245.50        2974.75           1553         109.00       459.47
 1245.53        2975.00           1556          87.00       363.56
 1245.57        2975.25           1559          76.00       315.61
 1245.60        2975.50           1563          83.00       346.12
 1245.63        2975.75           1566          84.00       350.48
 1245.66        2976.00           1569          81.00       337.41
 1245.69        2976.25           1573          77.00       319.97
 1245.72        2976.50           1576          79.00       328.69
 1245.75        2976.75           1579          76.00       315.61
 1245.78        2977.00           1583          82.00       341.76
 1245.82        2977.25           1586          83.00       346.12
 1245.85        2977.50           1590          84.00       350.48
 1245.88        2977.75           1593          80.00       333.05
 1245.91        2978.00           1596          88.00       367.92
 1245.94        2978.25           1600          79.00       328.69
 1245.97        2978.50           1603          73.00       302.53
 1246.00        2978.75           1606          83.00       346.12
 1246.03        2979.00           1610          80.00       333.05
 1246.06        2979.25           1613          87.00       363.56
 1246.09        2979.50           1616          77.00       319.97
 1246.12        2979.75           1620          76.00       315.61
 1246.15        2980.00           1623          92.00       385.36
 1246.18        2980.25           1626          71.00       293.81
 1246.21        2980.50           1630          86.00       359.20
 1246.24        2980.75           1633          78.00       324.33
 1246.28        2981.00           1637          73.00       302.53
 1246.31        2981.25           1640          77.00       319.97
 1246.34        2981.50           1643          82.00       341.76
 1246.37        2981.75           1647          81.00       337.41
 1246.40        2982.00           1650          76.00       315.61
 1246.43        2982.25           1653          77.00       319.97
 1246.46        2982.50           1657          79.00       328.69
 1246.49        2982.75           1660          73.00       302.53
 1246.52        2983.00           1663          68.00       280.73
 1246.55        2983.25           1667          76.00       315.61
 1246.58        2983.50           1670          79.00       328.69
 1246.62        2983.75           1673          76.00       315.61
 1246.65        2984.00           1677          79.00       328.69
HS scan finished at 20:46:52
end
