************************************************************
  HS Scan of (1) Internal mercury lamp
************************************************************
Integration time is 0.2294 seconds per sample
dh040817Manchester 53.47 2.23 2.857833pr1000
************************************************************
Dead Time -------------------------  3E-08 
Number of Cycles Used -------------  4 
Starting Wavelength (Angstroms) ---  2950 
Final Wavelength (Angstoms) -------  2984 
Wavelength Increment (Angstroms) --  .25 
Filter Wheel #1 Position ---------- (1) Ground quartz diffuser (ND=2.32)
Filter Wheel #2 Position ---------- (1) Neutral Density 0.494



************************************************************
HS scan start time = 01:29:14
Dark Count =  6.1 


Time (GMT)  Wavelength (Ang)  Step Number  Raw Counts  Counts/Second

   89.60        2950.00           1222          92.00       374.46
   89.66        2950.25           1226          96.00       391.90
   89.69        2950.50           1229          95.00       387.54
   89.72        2950.75           1232          92.00       374.46
   89.76        2951.00           1236          93.00       378.82
   89.79        2951.25           1239          90.00       365.74
   89.82        2951.50           1242          93.00       378.82
   89.85        2951.75           1246          97.00       396.26
   89.88        2952.00           1249          92.00       374.46
   89.91        2952.25           1252          90.00       365.74
   89.94        2952.50           1256          87.00       352.66
   89.97        2952.75           1259          90.00       365.74
   90.00        2953.00           1262          93.00       378.82
   90.03        2953.25           1266          87.00       352.66
   90.06        2953.50           1269          78.00       313.43
   90.09        2953.75           1272          88.00       357.02
   90.12        2954.00           1276          96.00       391.90
   90.16        2954.25           1279          95.00       387.54
   90.19        2954.50           1282          92.00       374.46
   90.22        2954.75           1286         101.00       413.69
   90.25        2955.00           1289          96.00       391.90
   90.28        2955.25           1292          89.00       361.38
   90.31        2955.50           1296          95.00       387.54
   90.34        2955.75           1299          89.00       361.38
   90.37        2956.00           1302          93.00       378.82
   90.40        2956.25           1306          93.00       378.82
   90.43        2956.50           1309          93.00       378.82
   90.46        2956.75           1312          93.00       378.82
   90.49        2957.00           1316          83.00       335.23
   90.52        2957.25           1319          86.00       348.30
   90.55        2957.50           1322          88.00       357.02
   90.58        2957.75           1326          85.00       343.94
   90.61        2958.00           1329          87.00       352.66
   90.65        2958.25           1332          92.00       374.46
   90.68        2958.50           1336          78.00       313.43
   90.71        2958.75           1339          91.00       370.10
   90.74        2959.00           1342          84.00       339.59
   90.77        2959.25           1346          87.00       352.66
   90.80        2959.50           1349         117.00       483.44
   90.83        2959.75           1352         111.00       457.29
   90.86        2960.00           1356         142.00       592.43
   90.89        2960.25           1359         173.00       727.57
   90.92        2960.50           1362         216.00       915.02
   90.95        2960.75           1366         253.00      1076.32
   90.99        2961.00           1369         333.00      1425.08
   91.02        2961.25           1372         361.00      1547.15
   91.05        2961.50           1376         457.00      1965.68
   91.08        2961.75           1379         723.00      3125.40
   91.11        2962.00           1382        1646.00      7150.18
   91.14        2962.25           1386        3668.00     15970.60
   91.17        2962.50           1389        5397.00     23516.59
   91.20        2962.75           1392        6992.00     30480.78
   91.23        2963.00           1396        9163.00     39964.63
   91.27        2963.25           1399       10896.00     47538.98
   91.30        2963.50           1402       12587.00     54933.10
   91.33        2963.75           1406       14695.00     64155.19
   91.36        2964.00           1409       16614.00     72554.88
   91.39        2964.25           1412       18320.00     80025.81
   91.42        2964.50           1416       20604.00     90033.18
   91.45        2964.75           1419       22229.00     97156.80
   91.48        2965.00           1422       23743.00    103796.60
   91.51        2965.25           1426       26273.00    114898.00
   91.54        2965.50           1429       27817.00    121676.60
   91.58        2965.75           1432       29674.00    129833.00
   91.61        2966.00           1436       32088.00    140441.80
   91.64        2966.25           1439       33535.00    146804.20
   91.67        2966.50           1442       35015.00    153314.30
   91.70        2966.75           1446       36297.00    158955.40
   91.73        2967.00           1449       36641.00    160469.40
   91.76        2967.25           1452       36578.00    160192.10
   91.79        2967.50           1456       36573.00    160170.10
   91.82        2967.75           1459       36859.00    161429.00
   91.85        2968.00           1462       36670.00    160597.10
   91.88        2968.25           1466       34922.00    152905.10
   91.92        2968.50           1469       33425.00    146320.50
   91.95        2968.75           1472       31710.00    138780.20
   91.98        2969.00           1476       29606.00    129534.20
   92.01        2969.25           1479       27762.00    121435.10
   92.04        2969.50           1482       26285.00    114950.70
   92.07        2969.75           1486       24115.00    105428.40
   92.10        2970.00           1489       22235.00     97183.11
   92.13        2970.25           1492       20720.00     90541.59
   92.16        2970.50           1496       18542.00     80998.25
   92.19        2970.75           1499       16908.00     73842.15
   92.23        2971.00           1502       15296.00     66785.38
   92.26        2971.25           1506       12771.00     55737.86
   92.29        2971.50           1509       11121.00     48522.64
   92.32        2971.75           1513        8826.00     38492.11
   92.35        2972.00           1516        7296.00     31808.46
   92.38        2972.25           1519        5414.00     23590.80
   92.41        2972.50           1523        3171.00     13802.14
   92.44        2972.75           1526        1633.00      7093.49
   92.47        2973.00           1529         726.00      3138.48
   92.51        2973.25           1533         432.00      1856.69
   92.54        2973.50           1536         363.00      1555.87
   92.57        2973.75           1539         314.00      1342.25
   92.60        2974.00           1543         254.00      1080.68
   92.63        2974.25           1546         198.00       836.55
   92.66        2974.50           1549         149.00       622.94
   92.69        2974.75           1553         113.00       466.00
   92.72        2975.00           1556          95.00       387.54
   92.75        2975.25           1559          88.00       357.02
   92.78        2975.50           1563          94.00       383.18
   92.82        2975.75           1566          87.00       352.66
   92.85        2976.00           1569          80.00       322.15
   92.88        2976.25           1573          89.00       361.38
   92.91        2976.50           1576          85.00       343.94
   92.94        2976.75           1579          83.00       335.23
   92.97        2977.00           1583          78.00       313.43
   93.00        2977.25           1586          78.00       313.43
   93.03        2977.50           1590          76.00       304.71
   93.06        2977.75           1593          88.00       357.02
   93.09        2978.00           1596          86.00       348.30
   93.12        2978.25           1600          83.00       335.23
   93.15        2978.50           1603          88.00       357.02
   93.18        2978.75           1606          85.00       343.94
   93.21        2979.00           1610          74.00       295.99
   93.25        2979.25           1613          90.00       365.74
   93.28        2979.50           1616          82.00       330.87
   93.31        2979.75           1620          79.00       317.79
   93.34        2980.00           1623          78.00       313.43
   93.37        2980.25           1626          82.00       330.87
   93.40        2980.50           1630          76.00       304.71
   93.43        2980.75           1633          89.00       361.38
   93.46        2981.00           1637          83.00       335.23
   93.49        2981.25           1640          78.00       313.43
   93.52        2981.50           1643          74.00       295.99
   93.56        2981.75           1647          82.00       330.87
   93.59        2982.00           1650          68.00       269.84
   93.62        2982.25           1653          81.00       326.51
   93.65        2982.50           1657          81.00       326.51
   93.68        2982.75           1660          74.00       295.99
   93.71        2983.00           1663          72.00       287.27
   93.74        2983.25           1667          70.00       278.56
   93.77        2983.50           1670          81.00       326.51
   93.80        2983.75           1673          87.00       352.66
   93.83        2984.00           1677          84.00       339.59
HS scan finished at 01:34:03
end
************************************************************
  HS Scan of (1) Internal mercury lamp
************************************************************
Integration time is 0.2294 seconds per sample
dh040817Manchester 53.47 2.23 2.857833pr1000
************************************************************
Dead Time -------------------------  3E-08 
Number of Cycles Used -------------  4 
Starting Wavelength (Angstroms) ---  2950 
Final Wavelength (Angstoms) -------  2984 
Wavelength Increment (Angstroms) --  .25 
Filter Wheel #1 Position ---------- (1) Ground quartz diffuser (ND=2.32)
Filter Wheel #2 Position ---------- (1) Neutral Density 0.494



************************************************************
HS scan start time = 21:11:59
Dark Count =  5.9 


Time (GMT)  Wavelength (Ang)  Step Number  Raw Counts  Counts/Second

 1272.35        2950.00           1222          93.00       379.69
 1272.41        2950.25           1226          93.00       379.69
 1272.44        2950.50           1229          87.00       353.53
 1272.47        2950.75           1232          86.00       349.18
 1272.51        2951.00           1236          85.00       344.82
 1272.54        2951.25           1239          96.00       392.77
 1272.57        2951.50           1242         102.00       418.92
 1272.60        2951.75           1246          92.00       375.33
 1272.63        2952.00           1249          89.00       362.25
 1272.66        2952.25           1252          95.00       388.41
 1272.69        2952.50           1256          93.00       379.69
 1272.72        2952.75           1259          88.00       357.89
 1272.75        2953.00           1262          90.00       366.61
 1272.78        2953.25           1266          95.00       388.41
 1272.81        2953.50           1269          93.00       379.69
 1272.84        2953.75           1272          91.00       370.97
 1272.87        2954.00           1276          90.00       366.61
 1272.91        2954.25           1279          90.00       366.61
 1272.94        2954.50           1282          90.00       366.61
 1272.97        2954.75           1286          97.00       397.13
 1273.00        2955.00           1289          84.00       340.46
 1273.03        2955.25           1292          87.00       353.53
 1273.06        2955.50           1296          90.00       366.61
 1273.09        2955.75           1299          79.00       318.66
 1273.12        2956.00           1302          82.00       331.74
 1273.15        2956.25           1306          91.00       370.97
 1273.18        2956.50           1309          99.00       405.85
 1273.22        2956.75           1312          80.00       323.02
 1273.25        2957.00           1316          83.00       336.10
 1273.28        2957.25           1319          92.00       375.33
 1273.31        2957.50           1322          86.00       349.18
 1273.34        2957.75           1326          86.00       349.18
 1273.37        2958.00           1329          87.00       353.53
 1273.40        2958.25           1332          93.00       379.69
 1273.43        2958.50           1336          83.00       336.10
 1273.46        2958.75           1339          92.00       375.33
 1273.49        2959.00           1342          90.00       366.61
 1273.52        2959.25           1346          97.00       397.13
 1273.55        2959.50           1349          91.00       370.97
 1273.58        2959.75           1352         114.00       471.24
 1273.61        2960.00           1356         157.00       658.69
 1273.64        2960.25           1359         181.00       763.31
 1273.68        2960.50           1362         237.00      1007.44
 1273.71        2960.75           1366         280.00      1194.90
 1273.74        2961.00           1369         318.00      1360.56
 1273.77        2961.25           1372         385.00      1652.65
 1273.80        2961.50           1376         438.00      1883.72
 1273.83        2961.75           1379         676.00      2921.35
 1273.86        2962.00           1382        1454.00      6313.75
 1273.89        2962.25           1386        3302.00     14374.55
 1273.92        2962.50           1389        4868.00     21208.35
 1273.95        2962.75           1392        6298.00     27451.11
 1273.98        2963.00           1396        8379.00     36540.04
 1274.02        2963.25           1399        9975.00     43514.05
 1274.05        2963.50           1402       11719.00     51138.11
 1274.08        2963.75           1406       13900.00     60677.49
 1274.11        2964.00           1409       15654.00     68353.18
 1274.14        2964.25           1412       17294.00     75533.21
 1274.17        2964.50           1416       19413.00     84814.93
 1274.20        2964.75           1419       21181.00     92563.14
 1274.23        2965.00           1422       22921.00    100192.20
 1274.26        2965.25           1426       25463.00    111343.80
 1274.30        2965.50           1429       27030.00    118222.00
 1274.33        2965.75           1432       28675.00    125445.50
 1274.36        2966.00           1436       30735.00    134495.80
 1274.39        2966.25           1439       32200.00    140935.10
 1274.42        2966.50           1442       33993.00    148819.40
 1274.45        2966.75           1446       35367.00    154863.90
 1274.48        2967.00           1449       36053.00    157882.50
 1274.51        2967.25           1452       35958.00    157464.40
 1274.54        2967.50           1456       35993.00    157618.50
 1274.57        2967.75           1459       35905.00    157231.20
 1274.61        2968.00           1462       35882.00    157130.00
 1274.64        2968.25           1466       34600.00    151489.50
 1274.67        2968.50           1469       33328.00    145894.80
 1274.70        2968.75           1472       31925.00    139726.10
 1274.73        2969.00           1476       29958.00    131081.60
 1274.76        2969.25           1479       28327.00    123917.10
 1274.79        2969.50           1482       26643.00    116523.00
 1274.82        2969.75           1486       24532.00    107258.70
 1274.86        2970.00           1489       22908.00    100135.20
 1274.89        2970.25           1492       21286.00     93023.41
 1274.92        2970.50           1496       19054.00     83242.06
 1274.95        2970.75           1499       17204.00     75139.11
 1274.98        2971.00           1502       15537.00     67841.07
 1275.01        2971.25           1506       13272.00     57930.14
 1275.04        2971.50           1509       11759.00     51313.02
 1275.07        2971.75           1513        9573.00     41757.16
 1275.10        2972.00           1516        7846.00     34211.65
 1275.13        2972.25           1519        6183.00     26948.98
 1275.16        2972.50           1523        4145.00     18052.93
 1275.20        2972.75           1526        2575.00     11202.98
 1275.23        2973.00           1529        1229.00      5332.59
 1275.26        2973.25           1533         477.00      2053.74
 1275.29        2973.50           1536         371.00      1591.62
 1275.32        2973.75           1539         322.00      1378.00
 1275.35        2974.00           1543         268.00      1142.59
 1275.38        2974.25           1546         207.00       876.66
 1275.41        2974.50           1549         166.00       697.92
 1275.44        2974.75           1553         132.00       549.70
 1275.47        2975.00           1556          97.00       397.13
 1275.50        2975.25           1559          82.00       331.74
 1275.53        2975.50           1563          85.00       344.82
 1275.57        2975.75           1566          84.00       340.46
 1275.60        2976.00           1569          81.00       327.38
 1275.63        2976.25           1573          78.00       314.30
 1275.66        2976.50           1576          83.00       336.10
 1275.69        2976.75           1579          88.00       357.89
 1275.72        2977.00           1583          89.00       362.25
 1275.75        2977.25           1586          82.00       331.74
 1275.78        2977.50           1590          75.00       301.22
 1275.81        2977.75           1593          73.00       292.50
 1275.84        2978.00           1596          81.00       327.38
 1275.87        2978.25           1600          90.00       366.61
 1275.91        2978.50           1603          84.00       340.46
 1275.94        2978.75           1606          76.00       305.58
 1275.97        2979.00           1610          83.00       336.10
 1276.00        2979.25           1613          82.00       331.74
 1276.03        2979.50           1616          78.00       314.30
 1276.06        2979.75           1620          86.00       349.18
 1276.09        2980.00           1623          79.00       318.66
 1276.12        2980.25           1626          76.00       305.58
 1276.15        2980.50           1630          85.00       344.82
 1276.18        2980.75           1633          86.00       349.18
 1276.21        2981.00           1637          82.00       331.74
 1276.24        2981.25           1640          90.00       366.61
 1276.27        2981.50           1643          81.00       327.38
 1276.30        2981.75           1647          85.00       344.82
 1276.33        2982.00           1650          78.00       314.30
 1276.37        2982.25           1653          76.00       305.58
 1276.40        2982.50           1657          85.00       344.82
 1276.43        2982.75           1660          73.00       292.50
 1276.46        2983.00           1663          76.00       305.58
 1276.49        2983.25           1667          81.00       327.38
 1276.52        2983.50           1670          81.00       327.38
 1276.55        2983.75           1673          80.00       323.02
 1276.58        2984.00           1677          78.00       314.30
HS scan finished at 21:16:48
end
