************************************************************
  HS Scan of (1) Internal mercury lamp
************************************************************
Integration time is 0.2294 seconds per sample
dh070818Manchester 53.47 2.23 3.072425pr1000
************************************************************
Dead Time -------------------------  3E-08 
Number of Cycles Used -------------  4 
Starting Wavelength (Angstroms) ---  2950 
Final Wavelength (Angstoms) -------  2984 
Wavelength Increment (Angstroms) --  .25 
Filter Wheel #1 Position ---------- (1) Ground quartz diffuser (ND=2.32)
Filter Wheel #2 Position ---------- (1) Neutral Density 0.494



************************************************************
HS scan start time = 01:42:17
Dark Count =  5.9 


Time (GMT)  Wavelength (Ang)  Step Number  Raw Counts  Counts/Second

  102.66        2950.00           1222          44.00       166.09
  102.73        2950.25           1226          52.00       200.96
  102.76        2950.50           1229          57.00       222.76
  102.79        2950.75           1232          64.00       253.27
  102.82        2951.00           1236          51.00       196.60
  102.85        2951.25           1239          59.00       231.48
  102.88        2951.50           1242          52.00       200.96
  102.91        2951.75           1246          51.00       196.60
  102.94        2952.00           1249          58.00       227.12
  102.97        2952.25           1252          49.00       187.88
  103.00        2952.50           1256          56.00       218.40
  103.04        2952.75           1259          47.00       179.16
  103.07        2953.00           1262          52.00       200.96
  103.10        2953.25           1266          49.00       187.88
  103.13        2953.50           1269          66.00       261.99
  103.16        2953.75           1272          53.00       205.32
  103.19        2954.00           1276          54.00       209.68
  103.22        2954.25           1279          42.00       157.37
  103.25        2954.50           1282          42.00       157.37
  103.28        2954.75           1286          51.00       196.60
  103.32        2955.00           1289          50.00       192.24
  103.35        2955.25           1292          48.00       183.52
  103.38        2955.50           1296          63.00       248.91
  103.41        2955.75           1299          52.00       200.96
  103.44        2956.00           1302          50.00       192.24
  103.47        2956.25           1306          49.00       187.88
  103.50        2956.50           1309          59.00       231.48
  103.53        2956.75           1312          58.00       227.12
  103.56        2957.00           1316          46.00       174.80
  103.59        2957.25           1319          45.00       170.45
  103.62        2957.50           1322          52.00       200.96
  103.65        2957.75           1326          50.00       192.24
  103.68        2958.00           1329          53.00       205.32
  103.72        2958.25           1332          53.00       205.32
  103.75        2958.50           1336          49.00       187.88
  103.78        2958.75           1339          56.00       218.40
  103.81        2959.00           1342          51.00       196.60
  103.84        2959.25           1346          56.00       218.40
  103.87        2959.50           1349          61.00       240.19
  103.90        2959.75           1352          66.00       261.99
  103.93        2960.00           1356         113.00       466.88
  103.96        2960.25           1359         124.00       514.83
  103.99        2960.50           1362         168.00       706.64
  104.03        2960.75           1366         226.00       959.49
  104.06        2961.00           1369         275.00      1173.10
  104.09        2961.25           1372         304.00      1299.53
  104.12        2961.50           1376         385.00      1652.65
  104.15        2961.75           1379         621.00      2681.56
  104.18        2962.00           1382        1402.00      6086.99
  104.21        2962.25           1386        3124.00     13597.96
  104.24        2962.50           1389        4484.00     19532.37
  104.27        2962.75           1392        5989.00     26101.95
  104.30        2963.00           1396        7795.00     33988.87
  104.34        2963.25           1399        9309.00     40603.48
  104.37        2963.50           1402       10866.00     47408.71
  104.40        2963.75           1406       12990.00     56696.62
  104.43        2964.00           1409       14452.00     63092.72
  104.46        2964.25           1412       16027.00     69985.94
  104.49        2964.50           1416       18092.00     79028.03
  104.52        2964.75           1419       19653.00     85866.51
  104.55        2965.00           1422       21201.00     92650.81
  104.58        2965.25           1426       23258.00    101670.10
  104.62        2965.50           1429       24607.00    107587.80
  104.65        2965.75           1432       26114.00    114201.00
  104.68        2966.00           1436       27937.00    122204.40
  104.71        2966.25           1439       29485.00    129003.50
  104.74        2966.50           1442       30910.00    135264.90
  104.77        2966.75           1446       32019.00    140139.40
  104.80        2967.00           1449       32379.00    141722.00
  104.83        2967.25           1452       32375.00    141704.40
  104.86        2967.50           1456       32393.00    141783.60
  104.90        2967.75           1459       32182.00    140856.00
  104.93        2968.00           1462       31848.00    139387.70
  104.96        2968.25           1466       30863.00    135058.30
  104.99        2968.50           1469       29601.00    129513.10
  105.02        2968.75           1472       28288.00    123745.80
  105.05        2969.00           1476       26283.00    114942.80
  105.08        2969.25           1479       24500.00    107118.30
  105.11        2969.50           1482       23103.00    100990.30
  105.14        2969.75           1486       21384.00     93453.00
  105.18        2970.00           1489       19854.00     86747.26
  105.21        2970.25           1492       18257.00     79750.74
  105.24        2970.50           1496       16456.00     71864.01
  105.27        2970.75           1499       14767.00     64471.13
  105.30        2971.00           1502       13430.00     58621.32
  105.33        2971.25           1506       11247.00     49074.38
  105.36        2971.50           1509        9866.00     43037.66
  105.39        2971.75           1513        8014.00     34945.51
  105.42        2972.00           1516        6543.00     28520.91
  105.46        2972.25           1519        4911.00     21396.03
  105.49        2972.50           1523        3079.00     13401.64
  105.52        2972.75           1526        1704.00      7404.00
  105.55        2973.00           1529         686.00      2964.95
  105.58        2973.25           1533         365.00      1565.46
  105.61        2973.50           1536         295.00      1260.29
  105.64        2973.75           1539         247.00      1051.04
  105.67        2974.00           1543         200.00       846.14
  105.70        2974.25           1546         152.00       636.89
  105.74        2974.50           1549         107.00       440.72
  105.77        2974.75           1553          75.00       301.22
  105.80        2975.00           1556          64.00       253.27
  105.83        2975.25           1559          59.00       231.48
  105.86        2975.50           1563          50.00       192.24
  105.89        2975.75           1566          45.00       170.45
  105.92        2976.00           1569          46.00       174.80
  105.95        2976.25           1573          52.00       200.96
  105.98        2976.50           1576          58.00       227.12
  106.01        2976.75           1579          54.00       209.68
  106.05        2977.00           1583          48.00       183.52
  106.08        2977.25           1586          53.00       205.32
  106.11        2977.50           1590          54.00       209.68
  106.14        2977.75           1593          47.00       179.16
  106.17        2978.00           1596          51.00       196.60
  106.20        2978.25           1600          51.00       196.60
  106.23        2978.50           1603          58.00       227.12
  106.26        2978.75           1606          55.00       214.04
  106.29        2979.00           1610          50.00       192.24
  106.32        2979.25           1613          47.00       179.16
  106.35        2979.50           1616          49.00       187.88
  106.39        2979.75           1620          60.00       235.83
  106.42        2980.00           1623          54.00       209.68
  106.45        2980.25           1626          52.00       200.96
  106.48        2980.50           1630          54.00       209.68
  106.51        2980.75           1633          49.00       187.88
  106.54        2981.00           1637          48.00       183.52
  106.57        2981.25           1640          52.00       200.96
  106.60        2981.50           1643          42.00       157.37
  106.63        2981.75           1647          49.00       187.88
  106.66        2982.00           1650          48.00       183.52
  106.70        2982.25           1653          41.00       153.01
  106.73        2982.50           1657          45.00       170.45
  106.76        2982.75           1660          44.00       166.09
  106.79        2983.00           1663          50.00       192.24
  106.82        2983.25           1667          55.00       214.04
  106.85        2983.50           1670          46.00       174.80
  106.88        2983.75           1673          47.00       179.16
  106.91        2984.00           1677          52.00       200.96
HS scan finished at 01:47:08
end
************************************************************
  HS Scan of (1) Internal mercury lamp
************************************************************
Integration time is 0.2294 seconds per sample
dh070818Manchester 53.47 2.23 2.911481pr1000
************************************************************
Dead Time -------------------------  3E-08 
Number of Cycles Used -------------  4 
Starting Wavelength (Angstroms) ---  2950 
Final Wavelength (Angstoms) -------  2984 
Wavelength Increment (Angstroms) --  .25 
Filter Wheel #1 Position ---------- (1) Ground quartz diffuser (ND=2.32)
Filter Wheel #2 Position ---------- (1) Neutral Density 0.494



************************************************************
HS scan start time = 20:42:03
Dark Count =  7.4 


Time (GMT)  Wavelength (Ang)  Step Number  Raw Counts  Counts/Second

 1242.42        2950.00           1222          54.00       203.14
 1242.49        2950.25           1226          59.00       224.94
 1242.52        2950.50           1229          58.00       220.58
 1242.55        2950.75           1232          53.00       198.78
 1242.58        2951.00           1236          50.00       185.70
 1242.61        2951.25           1239          47.00       172.63
 1242.64        2951.50           1242          52.00       194.42
 1242.67        2951.75           1246          62.00       238.01
 1242.70        2952.00           1249          56.00       211.86
 1242.73        2952.25           1252          53.00       198.78
 1242.76        2952.50           1256          56.00       211.86
 1242.79        2952.75           1259          56.00       211.86
 1242.83        2953.00           1262          50.00       185.70
 1242.86        2953.25           1266          64.00       246.73
 1242.89        2953.50           1269          60.00       229.30
 1242.92        2953.75           1272          57.00       216.22
 1242.95        2954.00           1276          59.00       224.94
 1242.98        2954.25           1279          55.00       207.50
 1243.01        2954.50           1282          51.00       190.06
 1243.04        2954.75           1286          47.00       172.63
 1243.07        2955.00           1289          50.00       185.70
 1243.10        2955.25           1292          60.00       229.30
 1243.13        2955.50           1296          55.00       207.50
 1243.16        2955.75           1299          53.00       198.78
 1243.20        2956.00           1302          53.00       198.78
 1243.23        2956.25           1306          57.00       216.22
 1243.26        2956.50           1309          47.00       172.63
 1243.29        2956.75           1312          55.00       207.50
 1243.32        2957.00           1316          63.00       242.37
 1243.35        2957.25           1319          51.00       190.06
 1243.38        2957.50           1322          55.00       207.50
 1243.41        2957.75           1326          53.00       198.78
 1243.44        2958.00           1329          58.00       220.58
 1243.47        2958.25           1332          49.00       181.34
 1243.50        2958.50           1336          61.00       233.65
 1243.53        2958.75           1339          49.00       181.34
 1243.56        2959.00           1342          57.00       216.22
 1243.60        2959.25           1346          55.00       207.50
 1243.63        2959.50           1349          62.00       238.01
 1243.66        2959.75           1352          74.00       290.33
 1243.69        2960.00           1356         109.00       442.90
 1243.72        2960.25           1359         153.00       634.71
 1243.75        2960.50           1362         180.00       752.41
 1243.78        2960.75           1366         222.00       935.51
 1243.81        2961.00           1369         243.00      1027.06
 1243.84        2961.25           1372         295.00      1253.75
 1243.87        2961.50           1376         367.00      1567.64
 1243.90        2961.75           1379         619.00      2666.30
 1243.94        2962.00           1382        1383.00      5997.59
 1243.97        2962.25           1386        3058.00     13303.48
 1244.00        2962.50           1389        4471.00     19469.08
 1244.03        2962.75           1392        5706.00     24859.86
 1244.06        2963.00           1396        7332.00     31960.01
 1244.09        2963.25           1399        8787.00     38316.03
 1244.12        2963.50           1402       10254.00     44726.93
 1244.15        2963.75           1406       12093.00     52766.99
 1244.18        2964.00           1409       13397.00     58470.39
 1244.21        2964.25           1412       14990.00     65440.47
 1244.25        2964.50           1416       16796.00     73346.03
 1244.28        2964.75           1419       18134.00     79205.41
 1244.31        2965.00           1422       19404.00     84768.91
 1244.34        2965.25           1426       21307.00     93108.88
 1244.37        2965.50           1429       22720.00     99304.12
 1244.40        2965.75           1432       24078.00    105260.40
 1244.43        2966.00           1436       25855.00    113057.60
 1244.46        2966.25           1439       26997.00    118070.50
 1244.49        2966.50           1442       28077.00    122812.60
 1244.52        2966.75           1446       29329.00    128311.60
 1244.56        2967.00           1449       29622.00    129598.80
 1244.59        2967.25           1452       29906.00    130846.50
 1244.62        2967.50           1456       29707.00    129972.20
 1244.65        2967.75           1459       29840.00    130556.60
 1244.68        2968.00           1462       29559.00    129322.00
 1244.71        2968.25           1466       28495.00    124648.30
 1244.74        2968.50           1469       27257.00    119212.00
 1244.77        2968.75           1472       26057.00    113944.20
 1244.80        2969.00           1476       24227.00    105914.00
 1244.83        2969.25           1479       22994.00    100505.70
 1244.86        2969.50           1482       21598.00     94384.56
 1244.89        2969.75           1486       19846.00     86705.63
 1244.92        2970.00           1489       18345.00     80129.63
 1244.96        2970.25           1492       16903.00     73814.55
 1244.99        2970.50           1496       15114.00     65983.15
 1245.02        2970.75           1499       13905.00     60692.80
 1245.05        2971.00           1502       12493.00     54516.29
 1245.08        2971.25           1506       10684.00     46606.53
 1245.11        2971.50           1509        9279.00     40465.84
 1245.14        2971.75           1513        7289.00     31772.21
 1245.17        2972.00           1516        6004.00     26160.89
 1245.20        2972.25           1519        4681.00     20385.61
 1245.23        2972.50           1523        2891.00     12574.93
 1245.26        2972.75           1526        1658.00      7196.85
 1245.29        2973.00           1529         683.00      2945.33
 1245.32        2973.25           1533         343.00      1463.01
 1245.36        2973.50           1536         273.00      1157.84
 1245.39        2973.75           1539         228.00       961.67
 1245.42        2974.00           1543         197.00       826.52
 1245.45        2974.25           1546         130.00       534.45
 1245.48        2974.50           1549         103.00       416.74
 1245.51        2974.75           1553          77.00       303.40
 1245.54        2975.00           1556          67.00       259.81
 1245.57        2975.25           1559          60.00       229.30
 1245.60        2975.50           1563          47.00       172.63
 1245.63        2975.75           1566          52.00       194.42
 1245.66        2976.00           1569          56.00       211.86
 1245.69        2976.25           1573          48.00       176.98
 1245.73        2976.50           1576          58.00       220.58
 1245.76        2976.75           1579          53.00       198.78
 1245.79        2977.00           1583          56.00       211.86
 1245.82        2977.25           1586          53.00       198.78
 1245.85        2977.50           1590          54.00       203.14
 1245.88        2977.75           1593          46.00       168.27
 1245.91        2978.00           1596          48.00       176.98
 1245.94        2978.25           1600          48.00       176.98
 1245.97        2978.50           1603          53.00       198.78
 1246.00        2978.75           1606          53.00       198.78
 1246.03        2979.00           1610          52.00       194.42
 1246.06        2979.25           1613          44.00       159.55
 1246.09        2979.50           1616          53.00       198.78
 1246.12        2979.75           1620          55.00       207.50
 1246.15        2980.00           1623          52.00       194.42
 1246.19        2980.25           1626          48.00       176.98
 1246.22        2980.50           1630          49.00       181.34
 1246.25        2980.75           1633          42.00       150.83
 1246.28        2981.00           1637          50.00       185.70
 1246.31        2981.25           1640          55.00       207.50
 1246.34        2981.50           1643          45.00       163.91
 1246.37        2981.75           1647          47.00       172.63
 1246.40        2982.00           1650          50.00       185.70
 1246.43        2982.25           1653          57.00       216.22
 1246.46        2982.50           1657          63.00       242.37
 1246.49        2982.75           1660          52.00       194.42
 1246.52        2983.00           1663          55.00       207.50
 1246.55        2983.25           1667          53.00       198.78
 1246.58        2983.50           1670          44.00       159.55
 1246.62        2983.75           1673          52.00       194.42
 1246.65        2984.00           1677          46.00       168.27
HS scan finished at 20:46:52
end
