************************************************************
  HS Scan of (1) Internal mercury lamp
************************************************************
Integration time is 0.2294 seconds per sample
dh050818Manchester 53.47 2.23 2.857833pr1000
************************************************************
Dead Time -------------------------  3E-08 
Number of Cycles Used -------------  4 
Starting Wavelength (Angstroms) ---  2950 
Final Wavelength (Angstoms) -------  2984 
Wavelength Increment (Angstroms) --  .25 
Filter Wheel #1 Position ---------- (1) Ground quartz diffuser (ND=2.32)
Filter Wheel #2 Position ---------- (1) Neutral Density 0.494



************************************************************
HS scan start time = 01:32:04
Dark Count =  5.7 


Time (GMT)  Wavelength (Ang)  Step Number  Raw Counts  Counts/Second

   92.44        2950.00           1222          52.00       201.83
   92.51        2950.25           1226          56.00       219.27
   92.54        2950.50           1229          55.00       214.91
   92.57        2950.75           1232          65.00       258.50
   92.60        2951.00           1236          56.00       219.27
   92.63        2951.25           1239          60.00       236.71
   92.66        2951.50           1242          58.00       227.99
   92.69        2951.75           1246          56.00       219.27
   92.72        2952.00           1249          52.00       201.83
   92.75        2952.25           1252          49.00       188.75
   92.78        2952.50           1256          59.00       232.35
   92.81        2952.75           1259          52.00       201.83
   92.85        2953.00           1262          51.00       197.47
   92.88        2953.25           1266          53.00       206.19
   92.91        2953.50           1269          48.00       184.40
   92.94        2953.75           1272          54.00       210.55
   92.97        2954.00           1276          51.00       197.47
   93.00        2954.25           1279          47.00       180.04
   93.03        2954.50           1282          53.00       206.19
   93.06        2954.75           1286          45.00       171.32
   93.09        2955.00           1289          54.00       210.55
   93.12        2955.25           1292          52.00       201.83
   93.15        2955.50           1296          54.00       210.55
   93.19        2955.75           1299          54.00       210.55
   93.22        2956.00           1302          52.00       201.83
   93.25        2956.25           1306          52.00       201.83
   93.28        2956.50           1309          49.00       188.75
   93.31        2956.75           1312          49.00       188.75
   93.34        2957.00           1316          51.00       197.47
   93.37        2957.25           1319          52.00       201.83
   93.40        2957.50           1322          52.00       201.83
   93.43        2957.75           1326          52.00       201.83
   93.46        2958.00           1329          54.00       210.55
   93.49        2958.25           1332          51.00       197.47
   93.53        2958.50           1336          53.00       206.19
   93.56        2958.75           1339          51.00       197.47
   93.59        2959.00           1342          60.00       236.71
   93.62        2959.25           1346          55.00       214.91
   93.65        2959.50           1349          60.00       236.71
   93.68        2959.75           1352          59.00       232.35
   93.71        2960.00           1356          93.00       380.56
   93.74        2960.25           1359         109.00       450.31
   93.77        2960.50           1362         137.00       572.37
   93.80        2960.75           1366         185.00       781.62
   93.84        2961.00           1369         232.00       986.52
   93.87        2961.25           1372         283.00      1208.85
   93.90        2961.50           1376         343.00      1470.42
   93.93        2961.75           1379         535.00      2307.48
   93.96        2962.00           1382        1259.00      5464.28
   93.99        2962.25           1386        2772.00     12063.21
   94.02        2962.50           1389        4096.00     17839.97
   94.05        2962.75           1392        5398.00     23522.70
   94.08        2963.00           1396        7135.00     31107.05
   94.11        2963.25           1399        8436.00     36789.93
   94.15        2963.50           1402        9817.00     42824.38
   94.18        2963.75           1406       11853.00     51724.93
   94.21        2964.00           1409       13180.00     57528.58
   94.24        2964.25           1412       14745.00     64375.73
   94.27        2964.50           1416       16491.00     72018.13
   94.30        2964.75           1419       17872.00     78065.36
   94.33        2965.00           1422       19374.00     84644.93
   94.36        2965.25           1426       21105.00     92230.88
   94.39        2965.50           1429       22262.00     97303.25
   94.43        2965.75           1432       23828.00    104171.20
   94.46        2966.00           1436       25579.00    111853.80
   94.49        2966.25           1439       26919.00    117735.50
   94.52        2966.50           1442       28261.00    123628.10
   94.55        2966.75           1446       29255.00    127994.00
   94.58        2967.00           1449       29539.00    129241.60
   94.61        2967.25           1452       29491.00    129030.80
   94.64        2967.50           1456       29552.00    129298.80
   94.68        2967.75           1459       29241.00    127932.50
   94.71        2968.00           1462       29036.00    127032.00
   94.74        2968.25           1466       28104.00    122938.60
   94.77        2968.50           1469       26766.00    117063.90
   94.80        2968.75           1472       25584.00    111875.70
   94.83        2969.00           1476       23910.00    104530.90
   94.86        2969.25           1479       22523.00     98447.71
   94.89        2969.50           1482       21099.00     92204.57
   94.92        2969.75           1486       19411.00     84807.05
   94.95        2970.00           1489       17987.00     78569.03
   94.99        2970.25           1492       16620.00     72582.90
   95.02        2970.50           1496       14820.00     64703.94
   95.05        2970.75           1499       13457.00     58740.31
   95.08        2971.00           1502       12234.00     53391.03
   95.11        2971.25           1506       10360.00     45197.69
   95.14        2971.50           1509        9020.00     39341.52
   95.17        2971.75           1513        7325.00     31936.86
   95.20        2972.00           1516        5953.00     25945.65
   95.23        2972.25           1519        4566.00     19891.12
   95.27        2972.50           1523        2787.00     12128.65
   95.30        2972.75           1526        1528.00      6637.33
   95.33        2973.00           1529         696.00      3009.43
   95.36        2973.25           1533         383.00      1644.81
   95.39        2973.50           1536         301.00      1287.32
   95.42        2973.75           1539         270.00      1152.18
   95.45        2974.00           1543         229.00       973.44
   95.48        2974.25           1546         171.00       720.59
   95.51        2974.50           1549         151.00       633.40
   95.54        2974.75           1553         101.00       415.44
   95.57        2975.00           1556          75.00       302.10
   95.61        2975.25           1559          62.00       245.42
   95.64        2975.50           1563          50.00       193.11
   95.67        2975.75           1566          54.00       210.55
   95.70        2976.00           1569          54.00       210.55
   95.73        2976.25           1573          49.00       188.75
   95.76        2976.50           1576          59.00       232.35
   95.79        2976.75           1579          56.00       219.27
   95.82        2977.00           1583          50.00       193.11
   95.85        2977.25           1586          44.00       166.96
   95.88        2977.50           1590          51.00       197.47
   95.91        2977.75           1593          52.00       201.83
   95.95        2978.00           1596          56.00       219.27
   95.98        2978.25           1600          46.00       175.68
   96.01        2978.50           1603          51.00       197.47
   96.04        2978.75           1606          55.00       214.91
   96.07        2979.00           1610          63.00       249.78
   96.10        2979.25           1613          49.00       188.75
   96.13        2979.50           1616          47.00       180.04
   96.16        2979.75           1620          43.00       162.60
   96.19        2980.00           1623          49.00       188.75
   96.22        2980.25           1626          51.00       197.47
   96.25        2980.50           1630          48.00       184.40
   96.29        2980.75           1633          52.00       201.83
   96.32        2981.00           1637          48.00       184.40
   96.35        2981.25           1640          49.00       188.75
   96.38        2981.50           1643          49.00       188.75
   96.41        2981.75           1647          42.00       158.24
   96.44        2982.00           1650          52.00       201.83
   96.47        2982.25           1653          49.00       188.75
   96.50        2982.50           1657          49.00       188.75
   96.53        2982.75           1660          48.00       184.40
   96.56        2983.00           1663          48.00       184.40
   96.60        2983.25           1667          49.00       188.75
   96.63        2983.50           1670          46.00       175.68
   96.66        2983.75           1673          44.00       166.96
   96.69        2984.00           1677          45.00       171.32
HS scan finished at 01:36:54
end
************************************************************
  HS Scan of (1) Internal mercury lamp
************************************************************
Integration time is 0.2294 seconds per sample
dh050818Manchester 53.47 2.23 3.179721pr1000
************************************************************
Dead Time -------------------------  3E-08 
Number of Cycles Used -------------  4 
Starting Wavelength (Angstroms) ---  2950 
Final Wavelength (Angstoms) -------  2984 
Wavelength Increment (Angstroms) --  .25 
Filter Wheel #1 Position ---------- (1) Ground quartz diffuser (ND=2.32)
Filter Wheel #2 Position ---------- (1) Neutral Density 0.494



************************************************************
HS scan start time = 21:12:10
Dark Count =  5.1 


Time (GMT)  Wavelength (Ang)  Step Number  Raw Counts  Counts/Second

 1272.54        2950.00           1222          55.00       217.53
 1272.61        2950.25           1226          57.00       226.24
 1272.64        2950.50           1229          54.00       213.17
 1272.67        2950.75           1232          57.00       226.24
 1272.70        2951.00           1236          55.00       217.53
 1272.73        2951.25           1239          67.00       269.84
 1272.76        2951.50           1242          46.00       178.29
 1272.79        2951.75           1246          52.00       204.45
 1272.82        2952.00           1249          59.00       234.96
 1272.85        2952.25           1252          46.00       178.29
 1272.89        2952.50           1256          56.00       221.88
 1272.92        2952.75           1259          56.00       221.88
 1272.95        2953.00           1262          51.00       200.09
 1272.98        2953.25           1266          54.00       213.17
 1273.01        2953.50           1269          55.00       217.53
 1273.04        2953.75           1272          60.00       239.32
 1273.07        2954.00           1276          49.00       191.37
 1273.10        2954.25           1279          48.00       187.01
 1273.13        2954.50           1282          56.00       221.88
 1273.16        2954.75           1286          52.00       204.45
 1273.19        2955.00           1289          55.00       217.53
 1273.22        2955.25           1292          63.00       252.40
 1273.26        2955.50           1296          53.00       208.81
 1273.29        2955.75           1299          50.00       195.73
 1273.32        2956.00           1302          56.00       221.88
 1273.35        2956.25           1306          52.00       204.45
 1273.38        2956.50           1309          51.00       200.09
 1273.41        2956.75           1312          53.00       208.81
 1273.44        2957.00           1316          52.00       204.45
 1273.47        2957.25           1319          52.00       204.45
 1273.50        2957.50           1322          50.00       195.73
 1273.53        2957.75           1326          56.00       221.88
 1273.57        2958.00           1329          49.00       191.37
 1273.60        2958.25           1332          53.00       208.81
 1273.63        2958.50           1336          51.00       200.09
 1273.66        2958.75           1339          47.00       182.65
 1273.69        2959.00           1342          52.00       204.45
 1273.72        2959.25           1346          65.00       261.12
 1273.75        2959.50           1349          69.00       278.56
 1273.78        2959.75           1352          92.00       378.82
 1273.81        2960.00           1356         116.00       483.44
 1273.84        2960.25           1359         161.00       679.61
 1273.87        2960.50           1362         171.00       723.21
 1273.90        2960.75           1366         231.00       984.77
 1273.93        2961.00           1369         278.00      1189.67
 1273.97        2961.25           1372         316.00      1355.33
 1274.00        2961.50           1376         375.00      1612.55
 1274.03        2961.75           1379         536.00      2314.46
 1274.06        2962.00           1382        1221.00      5301.19
 1274.09        2962.25           1386        2945.00     12820.54
 1274.12        2962.50           1389        4446.00     19370.01
 1274.15        2962.75           1392        5848.00     25489.84
 1274.18        2963.00           1396        7849.00     34228.24
 1274.22        2963.25           1399        9458.00     41258.10
 1274.25        2963.50           1402       10865.00     47407.83
 1274.28        2963.75           1406       12974.00     56630.14
 1274.31        2964.00           1409       14722.00     64277.72
 1274.34        2964.25           1412       15945.00     69630.48
 1274.37        2964.50           1416       18205.00     79526.47
 1274.40        2964.75           1419       19761.00     86343.25
 1274.43        2965.00           1422       21310.00     93132.12
 1274.47        2965.25           1426       23381.00    102213.10
 1274.50        2965.50           1429       24879.00    108784.70
 1274.53        2965.75           1432       26268.00    114880.40
 1274.56        2966.00           1436       28037.00    122647.00
 1274.59        2966.25           1439       29604.00    129529.80
 1274.62        2966.50           1442       30724.00    134451.00
 1274.65        2966.75           1446       32375.00    141708.00
 1274.68        2967.00           1449       32737.00    143299.60
 1274.71        2967.25           1452       32753.00    143369.90
 1274.75        2967.50           1456       32849.00    143792.00
 1274.78        2967.75           1459       32853.00    143809.60
 1274.81        2968.00           1462       32586.00    142635.60
 1274.84        2968.25           1466       31552.00    138090.10
 1274.87        2968.50           1469       30200.00    132148.40
 1274.90        2968.75           1472       28852.00    126226.40
 1274.93        2969.00           1476       26748.00    116987.50
 1274.96        2969.25           1479       25331.00    110768.10
 1274.99        2969.50           1482       23985.00    104862.50
 1275.03        2969.75           1486       21960.00     95981.74
 1275.06        2970.00           1489       20730.00     90589.81
 1275.09        2970.25           1492       19136.00     83604.81
 1275.12        2970.50           1496       16977.00     74148.63
 1275.15        2970.75           1499       15353.00     67039.24
 1275.18        2971.00           1502       13861.00     60510.36
 1275.21        2971.25           1506       11843.00     51683.83
 1275.24        2971.50           1509       10103.00     44076.99
 1275.27        2971.75           1513        8363.00     36473.63
 1275.30        2972.00           1516        6938.00     30249.32
 1275.34        2972.25           1519        5469.00     23835.26
 1275.37        2972.50           1523        3521.00     15333.56
 1275.40        2972.75           1526        2052.00      8925.23
 1275.43        2973.00           1529         878.00      3805.58
 1275.46        2973.25           1533         390.00      1677.94
 1275.49        2973.50           1536         302.00      1294.30
 1275.52        2973.75           1539         278.00      1189.67
 1275.55        2974.00           1543         219.00       932.46
 1275.58        2974.25           1546         166.00       701.41
 1275.61        2974.50           1549         129.00       540.11
 1275.65        2974.75           1553          80.00       326.51
 1275.68        2975.00           1556          73.00       295.99
 1275.71        2975.25           1559          55.00       217.53
 1275.74        2975.50           1563          55.00       217.53
 1275.77        2975.75           1566          54.00       213.17
 1275.80        2976.00           1569          44.00       169.57
 1275.83        2976.25           1573          65.00       261.12
 1275.86        2976.50           1576          52.00       204.45
 1275.89        2976.75           1579          48.00       187.01
 1275.93        2977.00           1583          50.00       195.73
 1275.96        2977.25           1586          55.00       217.53
 1275.99        2977.50           1590          45.00       173.93
 1276.02        2977.75           1593          49.00       191.37
 1276.05        2978.00           1596          53.00       208.81
 1276.08        2978.25           1600          54.00       213.17
 1276.11        2978.50           1603          51.00       200.09
 1276.14        2978.75           1606          52.00       204.45
 1276.17        2979.00           1610          54.00       213.17
 1276.20        2979.25           1613          45.00       173.93
 1276.23        2979.50           1616          54.00       213.17
 1276.26        2979.75           1620          51.00       200.09
 1276.29        2980.00           1623          47.00       182.65
 1276.33        2980.25           1626          46.00       178.29
 1276.36        2980.50           1630          46.00       178.29
 1276.39        2980.75           1633          45.00       173.93
 1276.42        2981.00           1637          39.00       147.78
 1276.45        2981.25           1640          48.00       187.01
 1276.48        2981.50           1643          47.00       182.65
 1276.51        2981.75           1647          45.00       173.93
 1276.54        2982.00           1650          48.00       187.01
 1276.57        2982.25           1653          50.00       195.73
 1276.61        2982.50           1657          48.00       187.01
 1276.64        2982.75           1660          50.00       195.73
 1276.67        2983.00           1663          47.00       182.65
 1276.70        2983.25           1667          46.00       178.29
 1276.73        2983.50           1670          44.00       169.57
 1276.76        2983.75           1673          48.00       187.01
 1276.79        2984.00           1677          46.00       178.29
HS scan finished at 21:17:00
end
