************************************************************
  HS Scan of (1) Internal mercury lamp
************************************************************
Integration time is 0.2294 seconds per sample
dh020817Manchester 53.47 2.23 2.857833pr1000
************************************************************
Dead Time -------------------------  3E-08 
Number of Cycles Used -------------  4 
Starting Wavelength (Angstroms) ---  2950 
Final Wavelength (Angstoms) -------  2984 
Wavelength Increment (Angstroms) --  .25 
Filter Wheel #1 Position ---------- (1) Ground quartz diffuser (ND=2.32)
Filter Wheel #2 Position ---------- (1) Neutral Density 0.494



************************************************************
HS scan start time = 02:20:56
Dark Count =  6 


Time (GMT)  Wavelength (Ang)  Step Number  Raw Counts  Counts/Second

  141.30        2950.00           1222          99.00       405.41
  141.37        2950.25           1226          89.00       361.82
  141.40        2950.50           1229         102.00       418.49
  141.43        2950.75           1232          92.00       374.90
  141.46        2951.00           1236          90.00       366.18
  141.49        2951.25           1239          86.00       348.74
  141.52        2951.50           1242          87.00       353.10
  141.55        2951.75           1246          98.00       401.05
  141.58        2952.00           1249          96.00       392.33
  141.61        2952.25           1252          92.00       374.90
  141.64        2952.50           1256          87.00       353.10
  141.67        2952.75           1259          92.00       374.90
  141.70        2953.00           1262          97.00       396.69
  141.73        2953.25           1266         100.00       409.77
  141.76        2953.50           1269          93.00       379.25
  141.79        2953.75           1272          97.00       396.69
  141.82        2954.00           1276          97.00       396.69
  141.86        2954.25           1279          93.00       379.25
  141.89        2954.50           1282          93.00       379.25
  141.92        2954.75           1286          86.00       348.74
  141.95        2955.00           1289          93.00       379.25
  141.98        2955.25           1292          91.00       370.54
  142.01        2955.50           1296          94.00       383.61
  142.04        2955.75           1299          92.00       374.90
  142.07        2956.00           1302          85.00       344.38
  142.10        2956.25           1306          89.00       361.82
  142.13        2956.50           1309          94.00       383.61
  142.16        2956.75           1312          89.00       361.82
  142.19        2957.00           1316          89.00       361.82
  142.22        2957.25           1319          98.00       401.05
  142.25        2957.50           1322          82.00       331.30
  142.28        2957.75           1326         100.00       409.77
  142.32        2958.00           1329          96.00       392.33
  142.35        2958.25           1332          91.00       370.54
  142.38        2958.50           1336          93.00       379.25
  142.41        2958.75           1339          85.00       344.38
  142.44        2959.00           1342          98.00       401.05
  142.47        2959.25           1346          93.00       379.25
  142.50        2959.50           1349          91.00       370.54
  142.53        2959.75           1352          95.00       387.97
  142.56        2960.00           1356         146.00       610.30
  142.59        2960.25           1359         183.00       771.60
  142.62        2960.50           1362         209.00       884.94
  142.65        2960.75           1366         245.00      1041.88
  142.69        2961.00           1369         300.00      1281.65
  142.72        2961.25           1372         356.00      1525.79
  142.75        2961.50           1376         448.00      1926.88
  142.78        2961.75           1379         713.00      3082.24
  142.81        2962.00           1382        1550.00      6731.96
  142.84        2962.25           1386        3564.00     15517.25
  142.87        2962.50           1389        5166.00     22508.66
  142.90        2962.75           1392        6921.00     30171.15
  142.93        2963.00           1396        9031.00     39388.28
  142.96        2963.25           1399       10831.00     47255.27
  142.99        2963.50           1402       12478.00     54456.82
  143.02        2963.75           1406       14766.00     64466.32
  143.05        2964.00           1409       16602.00     72502.78
  143.09        2964.25           1412       18472.00     80692.05
  143.12        2964.50           1416       20575.00     89906.51
  143.15        2964.75           1419       22172.00     96907.31
  143.18        2965.00           1422       23763.00    103884.70
  143.21        2965.25           1426       26396.00    115438.30
  143.24        2965.50           1429       27845.00    121800.00
  143.27        2965.75           1432       29620.00    129596.20
  143.30        2966.00           1436       31919.00    139699.40
  143.33        2966.25           1439       33601.00    147094.90
  143.37        2966.50           1442       34867.00    152663.60
  143.40        2966.75           1446       36146.00    158291.30
  143.43        2967.00           1449       36636.00    160447.90
  143.46        2967.25           1452       36534.00    159998.90
  143.49        2967.50           1456       36618.00    160368.60
  143.52        2967.75           1459       36428.00    159532.40
  143.55        2968.00           1462       36234.00    158678.60
  143.58        2968.25           1466       34953.00    153041.90
  143.61        2968.50           1469       33145.00    145089.60
  143.65        2968.75           1472       31664.00    138578.40
  143.68        2969.00           1476       29582.00    129429.20
  143.71        2969.25           1479       27767.00    121457.50
  143.74        2969.50           1482       25917.00    113335.90
  143.77        2969.75           1486       23734.00    103757.50
  143.80        2970.00           1489       21919.00     95798.03
  143.83        2970.25           1492       20532.00     89718.06
  143.86        2970.50           1496       18233.00     79645.18
  143.89        2970.75           1499       16555.00     72297.00
  143.92        2971.00           1502       14952.00     65280.29
  143.96        2971.25           1506       12826.00     55978.85
  143.99        2971.50           1509       11092.00     48396.29
  144.02        2971.75           1513        8683.00     37867.76
  144.05        2972.00           1516        7010.00     30559.83
  144.08        2972.25           1519        5336.00     23250.74
  144.11        2972.50           1523        3242.00     14112.34
  144.14        2972.75           1526        1784.00      7752.46
  144.17        2973.00           1529         823.00      3561.85
  144.20        2973.25           1533         462.00      1987.91
  144.23        2973.50           1536         361.00      1547.59
  144.26        2973.75           1539         342.00      1464.76
  144.29        2974.00           1543         255.00      1085.48
  144.32        2974.25           1546         202.00       854.42
  144.35        2974.50           1549         159.00       666.97
  144.38        2974.75           1553         120.00       496.96
  144.42        2975.00           1556         101.00       414.13
  144.45        2975.25           1559          89.00       361.82
  144.48        2975.50           1563          90.00       366.18
  144.51        2975.75           1566          90.00       366.18
  144.54        2976.00           1569          83.00       335.66
  144.57        2976.25           1573          88.00       357.46
  144.60        2976.50           1576          76.00       305.15
  144.63        2976.75           1579          81.00       326.94
  144.66        2977.00           1583          91.00       370.54
  144.69        2977.25           1586          80.00       322.58
  144.72        2977.50           1590          83.00       335.66
  144.75        2977.75           1593          90.00       366.18
  144.78        2978.00           1596          84.00       340.02
  144.81        2978.25           1600          78.00       313.87
  144.84        2978.50           1603          81.00       326.94
  144.87        2978.75           1606          84.00       340.02
  144.91        2979.00           1610          87.00       353.10
  144.94        2979.25           1613          77.00       309.51
  144.97        2979.50           1616          79.00       318.22
  145.00        2979.75           1620          78.00       313.87
  145.03        2980.00           1623          79.00       318.22
  145.06        2980.25           1626          75.00       300.79
  145.09        2980.50           1630          73.00       292.07
  145.12        2980.75           1633          82.00       331.30
  145.15        2981.00           1637          71.00       283.35
  145.18        2981.25           1640          79.00       318.22
  145.21        2981.50           1643          96.00       392.33
  145.24        2981.75           1647          78.00       313.87
  145.28        2982.00           1650          88.00       357.46
  145.31        2982.25           1653          79.00       318.22
  145.34        2982.50           1657          91.00       370.54
  145.37        2982.75           1660          76.00       305.15
  145.40        2983.00           1663          80.00       322.58
  145.43        2983.25           1667          75.00       300.79
  145.46        2983.50           1670          77.00       309.51
  145.49        2983.75           1673          75.00       300.79
  145.52        2984.00           1677          75.00       300.79
HS scan finished at 02:25:44
end
************************************************************
  HS Scan of (1) Internal mercury lamp
************************************************************
Integration time is 0.2294 seconds per sample
dh020817Manchester 53.47 2.23 2.965129pr1000
************************************************************
Dead Time -------------------------  3E-08 
Number of Cycles Used -------------  4 
Starting Wavelength (Angstroms) ---  2950 
Final Wavelength (Angstoms) -------  2984 
Wavelength Increment (Angstroms) --  .25 
Filter Wheel #1 Position ---------- (1) Ground quartz diffuser (ND=2.32)
Filter Wheel #2 Position ---------- (1) Neutral Density 0.494



************************************************************
HS scan start time = 21:13:17
Dark Count =  5.3 


Time (GMT)  Wavelength (Ang)  Step Number  Raw Counts  Counts/Second

 1273.65        2950.00           1222          94.00       386.67
 1273.71        2950.25           1226          84.00       343.07
 1273.74        2950.50           1229          82.00       334.35
 1273.78        2950.75           1232          87.00       356.15
 1273.81        2951.00           1236         106.00       438.98
 1273.84        2951.25           1239          88.00       360.51
 1273.87        2951.50           1242          90.00       369.23
 1273.90        2951.75           1246          93.00       382.31
 1273.93        2952.00           1249          89.00       364.87
 1273.96        2952.25           1252         100.00       412.82
 1273.99        2952.50           1256          87.00       356.15
 1274.02        2952.75           1259          93.00       382.31
 1274.05        2953.00           1262          91.00       373.59
 1274.08        2953.25           1266          92.00       377.95
 1274.11        2953.50           1269          89.00       364.87
 1274.14        2953.75           1272          97.00       399.74
 1274.17        2954.00           1276          92.00       377.95
 1274.21        2954.25           1279          87.00       356.15
 1274.24        2954.50           1282          86.00       351.79
 1274.27        2954.75           1286          94.00       386.67
 1274.30        2955.00           1289          95.00       391.02
 1274.33        2955.25           1292          98.00       404.10
 1274.36        2955.50           1296          86.00       351.79
 1274.39        2955.75           1299          87.00       356.15
 1274.42        2956.00           1302          97.00       399.74
 1274.45        2956.25           1306          84.00       343.07
 1274.48        2956.50           1309          88.00       360.51
 1274.51        2956.75           1312         105.00       434.62
 1274.54        2957.00           1316          94.00       386.67
 1274.58        2957.25           1319          89.00       364.87
 1274.61        2957.50           1322          95.00       391.02
 1274.64        2957.75           1326          91.00       373.59
 1274.67        2958.00           1329          80.00       325.64
 1274.70        2958.25           1332          87.00       356.15
 1274.73        2958.50           1336          83.00       338.71
 1274.76        2958.75           1339          93.00       382.31
 1274.79        2959.00           1342          81.00       329.99
 1274.82        2959.25           1346          97.00       399.74
 1274.85        2959.50           1349         105.00       434.62
 1274.88        2959.75           1352         119.00       495.65
 1274.91        2960.00           1356         180.00       761.57
 1274.95        2960.25           1359         194.00       822.60
 1274.98        2960.50           1362         236.00      1005.70
 1275.01        2960.75           1366         315.00      1350.10
 1275.04        2961.00           1369         345.00      1480.89
 1275.07        2961.25           1372         397.00      1707.59
 1275.10        2961.50           1376         464.00      1999.68
 1275.13        2961.75           1379         564.00      2435.66
 1275.16        2962.00           1382         917.00      3974.76
 1275.19        2962.25           1386        2584.00     11244.86
 1275.22        2962.50           1389        4353.00     18963.27
 1275.26        2962.75           1392        5999.00     26148.23
 1275.29        2963.00           1396        8488.00     37018.86
 1275.32        2963.25           1399       10139.00     44233.46
 1275.35        2963.50           1402       12023.00     52470.07
 1275.38        2963.75           1406       14610.00     63786.73
 1275.41        2964.00           1409       16479.00     71967.33
 1275.44        2964.25           1412       18265.00     79788.40
 1275.47        2964.50           1416       20813.00     90952.71
 1275.50        2964.75           1419       22487.00     98291.59
 1275.53        2965.00           1422       24335.00    106397.00
 1275.56        2965.25           1426       26648.00    116547.60
 1275.59        2965.50           1429       28448.00    124451.10
 1275.63        2965.75           1432       30517.00    133540.50
 1275.66        2966.00           1436       32875.00    143905.50
 1275.69        2966.25           1439       34474.00    150937.80
 1275.72        2966.50           1442       36261.00    158800.50
 1275.75        2966.75           1446       38077.00    166794.60
 1275.78        2967.00           1449       38940.00    170594.90
 1275.81        2967.25           1452       39278.00    172083.60
 1275.84        2967.50           1456       39237.00    171903.00
 1275.87        2967.75           1459       39253.00    171973.50
 1275.90        2968.00           1462       39117.00    171374.50
 1275.93        2968.25           1466       38519.00    168740.90
 1275.97        2968.50           1469       37163.00    162770.70
 1276.00        2968.75           1472       35622.00    155988.50
 1276.03        2969.00           1476       33069.00    144758.50
 1276.06        2969.25           1479       31388.00    137368.40
 1276.09        2969.50           1482       29592.00    129476.20
 1276.12        2969.75           1486       27210.00    119014.90
 1276.15        2970.00           1489       25526.00    111623.00
 1276.18        2970.25           1492       23799.00    104045.70
 1276.21        2970.50           1496       21400.00     93525.78
 1276.24        2970.75           1499       19587.00     85579.94
 1276.28        2971.00           1502       17965.00     78474.41
 1276.31        2971.25           1506       15345.00     67003.34
 1276.34        2971.50           1509       13430.00     58623.94
 1276.37        2971.75           1513       11138.00     48600.46
 1276.40        2972.00           1516        9282.00     40488.12
 1276.43        2972.25           1519        7529.00     32829.62
 1276.46        2972.50           1523        5275.00     22987.51
 1276.49        2972.75           1526        3527.00     15358.86
 1276.52        2973.00           1529        1768.00      7685.73
 1276.55        2973.25           1533         614.00      2653.66
 1276.58        2973.50           1536         398.00      1711.95
 1276.62        2973.75           1539         334.00      1432.93
 1276.65        2974.00           1543         276.00      1180.08
 1276.68        2974.25           1546         197.00       835.68
 1276.71        2974.50           1549         173.00       731.05
 1276.74        2974.75           1553         123.00       513.09
 1276.77        2975.00           1556         107.00       443.34
 1276.80        2975.25           1559          86.00       351.79
 1276.83        2975.50           1563          91.00       373.59
 1276.86        2975.75           1566          87.00       356.15
 1276.89        2976.00           1569          91.00       373.59
 1276.92        2976.25           1573          83.00       338.71
 1276.95        2976.50           1576          86.00       351.79
 1276.98        2976.75           1579          81.00       329.99
 1277.01        2977.00           1583          82.00       334.35
 1277.04        2977.25           1586          84.00       343.07
 1277.08        2977.50           1590          76.00       308.20
 1277.11        2977.75           1593          82.00       334.35
 1277.14        2978.00           1596          79.00       321.28
 1277.17        2978.25           1600          87.00       356.15
 1277.20        2978.50           1603          80.00       325.64
 1277.23        2978.75           1606          83.00       338.71
 1277.26        2979.00           1610          92.00       377.95
 1277.29        2979.25           1613          81.00       329.99
 1277.32        2979.50           1616          88.00       360.51
 1277.35        2979.75           1620          78.00       316.92
 1277.38        2980.00           1623          82.00       334.35
 1277.41        2980.25           1626          73.00       295.12
 1277.45        2980.50           1630          80.00       325.64
 1277.48        2980.75           1633          89.00       364.87
 1277.51        2981.00           1637          80.00       325.64
 1277.54        2981.25           1640          76.00       308.20
 1277.57        2981.50           1643          79.00       321.28
 1277.60        2981.75           1647          92.00       377.95
 1277.63        2982.00           1650          84.00       343.07
 1277.66        2982.25           1653          80.00       325.64
 1277.69        2982.50           1657          78.00       316.92
 1277.72        2982.75           1660          81.00       329.99
 1277.75        2983.00           1663          79.00       321.28
 1277.79        2983.25           1667          81.00       329.99
 1277.82        2983.50           1670          79.00       321.28
 1277.85        2983.75           1673          79.00       321.28
 1277.88        2984.00           1677          79.00       321.28
HS scan finished at 21:18:06
end
