************************************************************
  HS Scan of (1) Internal mercury lamp
************************************************************
Integration time is 0.2294 seconds per sample
dh300718Manchester 53.47 2.23 2.857833pr1000
************************************************************
Dead Time -------------------------  3E-08 
Number of Cycles Used -------------  4 
Starting Wavelength (Angstroms) ---  2950 
Final Wavelength (Angstoms) -------  2984 
Wavelength Increment (Angstroms) --  .25 
Filter Wheel #1 Position ---------- (1) Ground quartz diffuser (ND=2.32)
Filter Wheel #2 Position ---------- (1) Neutral Density 0.494



************************************************************
HS scan start time = 01:42:33
Dark Count =  6.2 


Time (GMT)  Wavelength (Ang)  Step Number  Raw Counts  Counts/Second

  102.92        2950.00           1222          49.00       186.57
  102.99        2950.25           1226          49.00       186.57
  103.02        2950.50           1229          59.00       230.17
  103.05        2950.75           1232          55.00       212.73
  103.08        2951.00           1236          56.00       217.09
  103.11        2951.25           1239          52.00       199.65
  103.14        2951.50           1242          53.00       204.01
  103.17        2951.75           1246          55.00       212.73
  103.20        2952.00           1249          54.00       208.37
  103.23        2952.25           1252          55.00       212.73
  103.26        2952.50           1256          56.00       217.09
  103.29        2952.75           1259          54.00       208.37
  103.33        2953.00           1262          59.00       230.17
  103.36        2953.25           1266          49.00       186.57
  103.39        2953.50           1269          58.00       225.81
  103.42        2953.75           1272          53.00       204.01
  103.45        2954.00           1276          50.00       190.93
  103.48        2954.25           1279          56.00       217.09
  103.51        2954.50           1282          50.00       190.93
  103.54        2954.75           1286          53.00       204.01
  103.57        2955.00           1289          56.00       217.09
  103.60        2955.25           1292          55.00       212.73
  103.63        2955.50           1296          63.00       247.60
  103.66        2955.75           1299          56.00       217.09
  103.70        2956.00           1302          52.00       199.65
  103.73        2956.25           1306          53.00       204.01
  103.76        2956.50           1309          57.00       221.45
  103.79        2956.75           1312          60.00       234.53
  103.82        2957.00           1316          50.00       190.93
  103.85        2957.25           1319          54.00       208.37
  103.88        2957.50           1322          56.00       217.09
  103.91        2957.75           1326          50.00       190.93
  103.94        2958.00           1329          53.00       204.01
  103.97        2958.25           1332          50.00       190.93
  104.00        2958.50           1336          56.00       217.09
  104.03        2958.75           1339          48.00       182.22
  104.06        2959.00           1342          51.00       195.29
  104.09        2959.25           1346          54.00       208.37
  104.12        2959.50           1349          69.00       273.76
  104.16        2959.75           1352          77.00       308.63
  104.19        2960.00           1356          87.00       352.23
  104.22        2960.25           1359         119.00       491.72
  104.25        2960.50           1362         162.00       679.18
  104.28        2960.75           1366         175.00       735.85
  104.31        2961.00           1369         220.00       932.02
  104.34        2961.25           1372         260.00      1106.40
  104.37        2961.50           1376         338.00      1446.44
  104.40        2961.75           1379         573.00      2470.98
  104.43        2962.00           1382        1391.00      6037.71
  104.46        2962.25           1386        3068.00     13352.34
  104.49        2962.50           1389        4313.00     18784.78
  104.53        2962.75           1392        5638.00     24568.23
  104.56        2963.00           1396        7387.00     32205.47
  104.59        2963.25           1399        8693.00     37910.57
  104.62        2963.50           1402        9931.00     43320.43
  104.65        2963.75           1406       11964.00     52208.13
  104.68        2964.00           1409       13202.00     57622.64
  104.71        2964.25           1412       14562.00     63572.74
  104.74        2964.50           1416       16566.00     72344.30
  104.77        2964.75           1419       17920.00     78273.40
  104.80        2965.00           1422       19196.00     83862.86
  104.83        2965.25           1426       21116.00     92276.90
  104.87        2965.50           1429       22416.00     97976.32
  104.90        2965.75           1432       23854.00    104283.00
  104.93        2966.00           1436       25473.00    111386.40
  104.96        2966.25           1439       26732.00    116912.40
  104.99        2966.50           1442       27950.00    122260.20
  105.02        2966.75           1446       28992.00    126836.60
  105.05        2967.00           1449       29300.00    128189.50
  105.08        2967.25           1452       29199.00    127745.80
  105.12        2967.50           1456       29277.00    128088.50
  105.15        2967.75           1459       29197.00    127737.10
  105.18        2968.00           1462       28773.00    125874.60
  105.21        2968.25           1466       27715.00    121228.20
  105.24        2968.50           1469       26517.00    115968.60
  105.27        2968.75           1472       25278.00    110530.70
  105.30        2969.00           1476       23439.00    102462.70
  105.33        2969.25           1479       22172.00     96906.44
  105.36        2969.50           1482       20753.00     90685.80
  105.39        2969.75           1486       19075.00     83332.75
  105.43        2970.00           1489       17773.00     77629.58
  105.46        2970.25           1492       16425.00     71726.99
  105.49        2970.50           1496       14564.00     63581.49
  105.52        2970.75           1499       13078.00     57080.23
  105.55        2971.00           1502       11671.00     50926.92
  105.58        2971.25           1506       10051.00     43844.90
  105.61        2971.50           1509        8660.00     37766.40
  105.64        2971.75           1513        6883.00     30004.33
  105.67        2972.00           1516        5578.00     24306.30
  105.71        2972.25           1519        4214.00     18352.74
  105.74        2972.50           1523        2580.00     11223.48
  105.77        2972.75           1526        1404.00      6094.40
  105.80        2973.00           1529         628.00      2710.77
  105.83        2973.25           1533         373.00      1599.03
  105.86        2973.50           1536         289.00      1232.83
  105.89        2973.75           1539         242.00      1027.93
  105.92        2974.00           1543         210.00       888.43
  105.95        2974.25           1546         181.00       762.01
  105.98        2974.50           1549         132.00       548.40
  106.01        2974.75           1553          91.00       369.66
  106.05        2975.00           1556          82.00       330.43
  106.08        2975.25           1559          63.00       247.60
  106.11        2975.50           1563          49.00       186.57
  106.14        2975.75           1566          54.00       208.37
  106.17        2976.00           1569          55.00       212.73
  106.20        2976.25           1573          49.00       186.57
  106.23        2976.50           1576          49.00       186.57
  106.26        2976.75           1579          54.00       208.37
  106.29        2977.00           1583          52.00       199.65
  106.32        2977.25           1586          53.00       204.01
  106.35        2977.50           1590          54.00       208.37
  106.39        2977.75           1593          53.00       204.01
  106.42        2978.00           1596          45.00       169.14
  106.45        2978.25           1600          46.00       173.50
  106.48        2978.50           1603          44.00       164.78
  106.51        2978.75           1606          52.00       199.65
  106.54        2979.00           1610          46.00       173.50
  106.57        2979.25           1613          52.00       199.65
  106.60        2979.50           1616          44.00       164.78
  106.63        2979.75           1620          46.00       173.50
  106.66        2980.00           1623          55.00       212.73
  106.70        2980.25           1626          51.00       195.29
  106.73        2980.50           1630          47.00       177.86
  106.76        2980.75           1633          45.00       169.14
  106.79        2981.00           1637          44.00       164.78
  106.82        2981.25           1640          51.00       195.29
  106.85        2981.50           1643          51.00       195.29
  106.88        2981.75           1647          47.00       177.86
  106.91        2982.00           1650          49.00       186.57
  106.94        2982.25           1653          51.00       195.29
  106.97        2982.50           1657          53.00       204.01
  107.01        2982.75           1660          49.00       186.57
  107.04        2983.00           1663          57.00       221.45
  107.07        2983.25           1667          44.00       164.78
  107.10        2983.50           1670          48.00       182.22
  107.13        2983.75           1673          53.00       204.01
  107.16        2984.00           1677          42.00       156.06
HS scan finished at 01:47:23
end
************************************************************
  HS Scan of (1) Internal mercury lamp
************************************************************
Integration time is 0.2294 seconds per sample
dh300718Manchester 53.47 2.23 2.911481pr1000
************************************************************
Dead Time -------------------------  3E-08 
Number of Cycles Used -------------  4 
Starting Wavelength (Angstroms) ---  2950 
Final Wavelength (Angstoms) -------  2984 
Wavelength Increment (Angstroms) --  .25 
Filter Wheel #1 Position ---------- (1) Ground quartz diffuser (ND=2.32)
Filter Wheel #2 Position ---------- (1) Neutral Density 0.494



************************************************************
HS scan start time = 21:13:21
Dark Count =  7.1 


Time (GMT)  Wavelength (Ang)  Step Number  Raw Counts  Counts/Second

 1273.72        2950.00           1222          58.00       221.88
 1273.78        2950.25           1226          58.00       221.88
 1273.81        2950.50           1229          54.00       204.45
 1273.84        2950.75           1232          59.00       226.24
 1273.88        2951.00           1236          60.00       230.60
 1273.91        2951.25           1239          51.00       191.37
 1273.94        2951.50           1242          57.00       217.53
 1273.97        2951.75           1246          60.00       230.60
 1274.00        2952.00           1249          53.00       200.09
 1274.03        2952.25           1252          47.00       173.93
 1274.06        2952.50           1256          56.00       213.17
 1274.09        2952.75           1259          57.00       217.53
 1274.12        2953.00           1262          55.00       208.81
 1274.15        2953.25           1266          54.00       204.45
 1274.18        2953.50           1269          66.00       256.76
 1274.22        2953.75           1272          55.00       208.81
 1274.25        2954.00           1276          51.00       191.37
 1274.28        2954.25           1279          52.00       195.73
 1274.31        2954.50           1282          57.00       217.53
 1274.34        2954.75           1286          46.00       169.57
 1274.37        2955.00           1289          57.00       217.53
 1274.40        2955.25           1292          56.00       213.17
 1274.43        2955.50           1296          56.00       213.17
 1274.46        2955.75           1299          51.00       191.37
 1274.49        2956.00           1302          52.00       195.73
 1274.52        2956.25           1306          52.00       195.73
 1274.55        2956.50           1309          52.00       195.73
 1274.58        2956.75           1312          52.00       195.73
 1274.61        2957.00           1316          52.00       195.73
 1274.65        2957.25           1319          49.00       182.65
 1274.68        2957.50           1322          50.00       187.01
 1274.71        2957.75           1326          52.00       195.73
 1274.74        2958.00           1329          53.00       200.09
 1274.77        2958.25           1332          59.00       226.24
 1274.80        2958.50           1336          56.00       213.17
 1274.83        2958.75           1339          54.00       204.45
 1274.86        2959.00           1342          57.00       217.53
 1274.89        2959.25           1346          51.00       191.37
 1274.92        2959.50           1349          62.00       239.32
 1274.95        2959.75           1352          84.00       335.23
 1274.98        2960.00           1356         112.00       457.29
 1275.02        2960.25           1359         142.00       588.07
 1275.05        2960.50           1362         171.00       714.49
 1275.08        2960.75           1366         204.00       858.35
 1275.11        2961.00           1369         257.00      1089.40
 1275.14        2961.25           1372         272.00      1154.79
 1275.17        2961.50           1376         324.00      1381.49
 1275.20        2961.75           1379         394.00      1686.66
 1275.23        2962.00           1382         632.00      2724.29
 1275.26        2962.25           1386        1825.00      7926.47
 1275.29        2962.50           1389        3173.00     13806.50
 1275.32        2962.75           1392        4483.00     19522.77
 1275.35        2963.00           1396        6212.00     27070.36
 1275.38        2963.25           1399        7561.00     32961.52
 1275.42        2963.50           1402        8923.00     38911.57
 1275.45        2963.75           1406       11023.00     48089.82
 1275.48        2964.00           1409       12602.00     54994.32
 1275.51        2964.25           1412       14013.00     61166.63
 1275.54        2964.50           1416       15856.00     69232.13
 1275.57        2964.75           1419       17263.00     75392.22
 1275.60        2965.00           1422       18565.00     81094.61
 1275.63        2965.25           1426       20579.00     89919.22
 1275.66        2965.50           1429       21704.00     94850.60
 1275.70        2965.75           1432       23172.00    101287.70
 1275.73        2966.00           1436       25074.00    109631.60
 1275.76        2966.25           1439       26429.00    115578.40
 1275.79        2966.50           1442       27687.00    121101.30
 1275.82        2966.75           1446       29387.00    128567.70
 1275.85        2967.00           1449       30050.00    131480.50
 1275.88        2967.25           1452       30156.00    131946.30
 1275.91        2967.50           1456       29991.00    131221.30
 1275.94        2967.75           1459       30346.00    132781.20
 1275.97        2968.00           1462       30084.00    131629.90
 1276.00        2968.25           1466       29632.00    129644.10
 1276.03        2968.50           1469       28815.00    126055.10
 1276.07        2968.75           1472       27462.00    120113.40
 1276.10        2969.00           1476       25852.00    113045.80
 1276.13        2969.25           1479       24481.00    107029.70
 1276.16        2969.50           1482       22854.00     99893.08
 1276.19        2969.75           1486       21141.00     92382.54
 1276.22        2970.00           1489       19851.00     86728.85
 1276.25        2970.25           1492       18249.00     79710.44
 1276.28        2970.50           1496       16501.00     72055.78
 1276.32        2970.75           1499       15033.00     65629.97
 1276.35        2971.00           1502       13885.00     60606.61
 1276.38        2971.25           1506       11985.00     52296.02
 1276.41        2971.50           1509       10562.00     46074.55
 1276.44        2971.75           1513        8774.00     38260.55
 1276.47        2972.00           1516        7471.00     32568.42
 1276.50        2972.25           1519        6103.00     26594.44
 1276.53        2972.50           1523        4214.00     18348.81
 1276.56        2972.75           1526        2852.00     12406.10
 1276.60        2973.00           1529        1541.00      6687.92
 1276.63        2973.25           1533         515.00      2214.18
 1276.66        2973.50           1536         298.00      1268.14
 1276.69        2973.75           1539         248.00      1050.16
 1276.72        2974.00           1543         199.00       836.55
 1276.75        2974.25           1546         157.00       653.46
 1276.78        2974.50           1549         124.00       509.60
 1276.81        2974.75           1553          81.00       322.15
 1276.84        2975.00           1556          66.00       256.76
 1276.87        2975.25           1559          59.00       226.24
 1276.90        2975.50           1563          58.00       221.88
 1276.94        2975.75           1566          55.00       208.81
 1276.97        2976.00           1569          57.00       217.53
 1277.00        2976.25           1573          53.00       200.09
 1277.03        2976.50           1576          59.00       226.24
 1277.06        2976.75           1579          56.00       213.17
 1277.09        2977.00           1583          51.00       191.37
 1277.12        2977.25           1586          53.00       200.09
 1277.15        2977.50           1590          46.00       169.57
 1277.18        2977.75           1593          53.00       200.09
 1277.21        2978.00           1596          48.00       178.29
 1277.24        2978.25           1600          53.00       200.09
 1277.28        2978.50           1603          52.00       195.73
 1277.31        2978.75           1606          53.00       200.09
 1277.34        2979.00           1610          54.00       204.45
 1277.37        2979.25           1613          51.00       191.37
 1277.40        2979.50           1616          54.00       204.45
 1277.43        2979.75           1620          51.00       191.37
 1277.46        2980.00           1623          51.00       191.37
 1277.49        2980.25           1626          53.00       200.09
 1277.52        2980.50           1630          51.00       191.37
 1277.56        2980.75           1633          50.00       187.01
 1277.59        2981.00           1637          58.00       221.88
 1277.62        2981.25           1640          41.00       147.78
 1277.65        2981.50           1643          51.00       191.37
 1277.68        2981.75           1647          46.00       169.57
 1277.71        2982.00           1650          45.00       165.21
 1277.74        2982.25           1653          49.00       182.65
 1277.77        2982.50           1657          51.00       191.37
 1277.80        2982.75           1660          44.00       160.86
 1277.84        2983.00           1663          57.00       217.53
 1277.87        2983.25           1667          46.00       169.57
 1277.90        2983.50           1670          53.00       200.09
 1277.93        2983.75           1673          48.00       178.29
 1277.96        2984.00           1677          42.00       152.14
HS scan finished at 21:18:11
end
