************************************************************
  HS Scan of (1) Internal mercury lamp
************************************************************
Integration time is 0.2294 seconds per sample
dh150818Manchester 53.47 2.23 2.965129pr1000
************************************************************
Dead Time -------------------------  3E-08 
Number of Cycles Used -------------  4 
Starting Wavelength (Angstroms) ---  2950 
Final Wavelength (Angstoms) -------  2984 
Wavelength Increment (Angstroms) --  .25 
Filter Wheel #1 Position ---------- (1) Ground quartz diffuser (ND=2.32)
Filter Wheel #2 Position ---------- (1) Neutral Density 0.494



************************************************************
HS scan start time = 01:41:20
Dark Count =  5.8 


Time (GMT)  Wavelength (Ang)  Step Number  Raw Counts  Counts/Second

  101.71        2950.00           1222          51.00       197.04
  101.77        2950.25           1226          49.00       188.32
  101.80        2950.50           1229          55.00       214.47
  101.83        2950.75           1232          54.00       210.11
  101.87        2951.00           1236          53.00       205.76
  101.90        2951.25           1239          52.00       201.40
  101.93        2951.50           1242          51.00       197.04
  101.96        2951.75           1246          53.00       205.76
  101.99        2952.00           1249          58.00       227.55
  102.02        2952.25           1252          51.00       197.04
  102.05        2952.50           1256          46.00       175.24
  102.08        2952.75           1259          57.00       223.19
  102.11        2953.00           1262          49.00       188.32
  102.14        2953.25           1266          54.00       210.11
  102.17        2953.50           1269          51.00       197.04
  102.20        2953.75           1272          46.00       175.24
  102.23        2954.00           1276          50.00       192.68
  102.26        2954.25           1279          46.00       175.24
  102.29        2954.50           1282          48.00       183.96
  102.32        2954.75           1286          55.00       214.47
  102.36        2955.00           1289          48.00       183.96
  102.39        2955.25           1292          51.00       197.04
  102.42        2955.50           1296          50.00       192.68
  102.45        2955.75           1299          54.00       210.11
  102.48        2956.00           1302          52.00       201.40
  102.51        2956.25           1306          50.00       192.68
  102.54        2956.50           1309          57.00       223.19
  102.57        2956.75           1312          52.00       201.40
  102.60        2957.00           1316          50.00       192.68
  102.63        2957.25           1319          49.00       188.32
  102.66        2957.50           1322          46.00       175.24
  102.70        2957.75           1326          47.00       179.60
  102.73        2958.00           1329          48.00       183.96
  102.76        2958.25           1332          62.00       244.99
  102.79        2958.50           1336          52.00       201.40
  102.82        2958.75           1339          57.00       223.19
  102.85        2959.00           1342          53.00       205.76
  102.88        2959.25           1346          56.00       218.83
  102.91        2959.50           1349          61.00       240.63
  102.94        2959.75           1352          77.00       310.38
  102.97        2960.00           1356          97.00       397.56
  103.00        2960.25           1359         117.00       484.75
  103.03        2960.50           1362         160.00       672.20
  103.06        2960.75           1366         208.00       881.45
  103.09        2961.00           1369         245.00      1042.75
  103.12        2961.25           1372         289.00      1234.57
  103.16        2961.50           1376         357.00      1531.02
  103.19        2961.75           1379         568.00      2450.92
  103.22        2962.00           1382        1301.00      5646.99
  103.25        2962.25           1386        2936.00     12778.22
  103.28        2962.50           1389        4323.00     18830.16
  103.31        2962.75           1392        5737.00     25002.18
  103.34        2963.00           1396        7693.00     33543.77
  103.37        2963.25           1399        8871.00     38690.04
  103.40        2963.50           1402       10354.00     45171.03
  103.43        2963.75           1406       12243.00     53429.96
  103.46        2964.00           1409       13719.00     59886.05
  103.49        2964.25           1412       15133.00     66073.30
  103.53        2964.50           1416       16960.00     74071.13
  103.56        2964.75           1419       18165.00     79348.21
  103.59        2965.00           1422       19599.00     85630.33
  103.62        2965.25           1426       21581.00     94317.06
  103.65        2965.50           1429       23106.00    101003.90
  103.68        2965.75           1432       24319.00    106324.70
  103.71        2966.00           1436       26456.00    115702.60
  103.74        2966.25           1439       27819.00    121686.70
  103.77        2966.50           1442       28815.00    126060.90
  103.80        2966.75           1446       29874.00    130713.00
  103.84        2967.00           1449       30033.00    131411.60
  103.87        2967.25           1452       30206.00    132171.70
  103.90        2967.50           1456       30209.00    132184.90
  103.93        2967.75           1459       30145.00    131903.70
  103.96        2968.00           1462       29942.00    131011.70
  103.99        2968.25           1466       28882.00    126355.10
  104.02        2968.50           1469       27371.00    119719.50
  104.05        2968.75           1472       26190.00    114535.00
  104.08        2969.00           1476       24386.00    106618.60
  104.11        2969.25           1479       22831.00     99797.91
  104.15        2969.50           1482       21389.00     93475.37
  104.18        2969.75           1486       19566.00     85485.74
  104.21        2970.00           1489       18207.00     79532.18
  104.24        2970.25           1492       17102.00     74692.90
  104.27        2970.50           1496       15158.00     66182.71
  104.30        2970.75           1499       13864.00     60520.42
  104.33        2971.00           1502       12569.00     54855.68
  104.36        2971.25           1506       10595.00     46224.48
  104.39        2971.50           1509        9065.00     39537.72
  104.42        2971.75           1513        7215.00     31456.00
  104.46        2972.00           1516        5849.00     25491.16
  104.49        2972.25           1519        4614.00     20100.17
  104.52        2972.50           1523        2654.00     11548.03
  104.55        2972.75           1526        1463.00      6353.43
  104.58        2973.00           1529         604.00      2607.88
  104.61        2973.25           1533         366.00      1570.26
  104.64        2973.50           1536         286.00      1221.49
  104.67        2973.75           1539         253.00      1077.63
  104.70        2974.00           1543         208.00       881.45
  104.74        2974.25           1546         151.00       632.97
  104.77        2974.50           1549         114.00       471.67
  104.80        2974.75           1553          84.00       340.89
  104.83        2975.00           1556          63.00       249.35
  104.86        2975.25           1559          62.00       244.99
  104.89        2975.50           1563          53.00       205.76
  104.92        2975.75           1566          54.00       210.11
  104.95        2976.00           1569          52.00       201.40
  104.98        2976.25           1573          51.00       197.04
  105.01        2976.50           1576          48.00       183.96
  105.04        2976.75           1579          45.00       170.88
  105.08        2977.00           1583          52.00       201.40
  105.11        2977.25           1586          46.00       175.24
  105.14        2977.50           1590          45.00       170.88
  105.17        2977.75           1593          57.00       223.19
  105.20        2978.00           1596          49.00       188.32
  105.23        2978.25           1600          49.00       188.32
  105.26        2978.50           1603          52.00       201.40
  105.29        2978.75           1606          58.00       227.55
  105.32        2979.00           1610          47.00       179.60
  105.35        2979.25           1613          55.00       214.47
  105.38        2979.50           1616          54.00       210.11
  105.41        2979.75           1620          45.00       170.88
  105.44        2980.00           1623          56.00       218.83
  105.48        2980.25           1626          48.00       183.96
  105.51        2980.50           1630          49.00       188.32
  105.54        2980.75           1633          47.00       179.60
  105.57        2981.00           1637          46.00       175.24
  105.60        2981.25           1640          43.00       162.16
  105.63        2981.50           1643          44.00       166.52
  105.66        2981.75           1647          50.00       192.68
  105.69        2982.00           1650          47.00       179.60
  105.72        2982.25           1653          46.00       175.24
  105.75        2982.50           1657          52.00       201.40
  105.79        2982.75           1660          53.00       205.76
  105.82        2983.00           1663          46.00       175.24
  105.85        2983.25           1667          47.00       179.60
  105.88        2983.50           1670          44.00       166.52
  105.91        2983.75           1673          54.00       210.11
  105.94        2984.00           1677          43.00       162.16
HS scan finished at 01:46:09
end
************************************************************
  HS Scan of (1) Internal mercury lamp
************************************************************
Integration time is 0.2294 seconds per sample
dh150818Manchester 53.47 2.23 3.018777pr1000
************************************************************
Dead Time -------------------------  3E-08 
Number of Cycles Used -------------  4 
Starting Wavelength (Angstroms) ---  2950 
Final Wavelength (Angstoms) -------  2984 
Wavelength Increment (Angstroms) --  .25 
Filter Wheel #1 Position ---------- (1) Ground quartz diffuser (ND=2.32)
Filter Wheel #2 Position ---------- (1) Neutral Density 0.494



************************************************************
HS scan start time = 20:42:05
Dark Count =  6.7 


Time (GMT)  Wavelength (Ang)  Step Number  Raw Counts  Counts/Second

 1242.46        2950.00           1222          54.00       206.19
 1242.53        2950.25           1226          52.00       197.47
 1242.56        2950.50           1229          49.00       184.40
 1242.59        2950.75           1232          49.00       184.40
 1242.62        2951.00           1236          52.00       197.47
 1242.65        2951.25           1239          53.00       201.83
 1242.68        2951.50           1242          58.00       223.63
 1242.71        2951.75           1246          54.00       206.19
 1242.74        2952.00           1249          60.00       232.35
 1242.77        2952.25           1252          51.00       193.11
 1242.80        2952.50           1256          53.00       201.83
 1242.83        2952.75           1259          55.00       210.55
 1242.87        2953.00           1262          60.00       232.35
 1242.90        2953.25           1266          53.00       201.83
 1242.93        2953.50           1269          52.00       197.47
 1242.96        2953.75           1272          47.00       175.68
 1242.99        2954.00           1276          49.00       184.40
 1243.02        2954.25           1279          48.00       180.04
 1243.05        2954.50           1282          57.00       219.27
 1243.08        2954.75           1286          55.00       210.55
 1243.11        2955.00           1289          57.00       219.27
 1243.14        2955.25           1292          44.00       162.60
 1243.17        2955.50           1296          52.00       197.47
 1243.20        2955.75           1299          53.00       201.83
 1243.24        2956.00           1302          53.00       201.83
 1243.27        2956.25           1306          59.00       227.99
 1243.30        2956.50           1309          47.00       175.68
 1243.33        2956.75           1312          51.00       193.11
 1243.36        2957.00           1316          47.00       175.68
 1243.39        2957.25           1319          53.00       201.83
 1243.42        2957.50           1322          61.00       236.71
 1243.45        2957.75           1326          54.00       206.19
 1243.48        2958.00           1329          53.00       201.83
 1243.51        2958.25           1332          51.00       193.11
 1243.54        2958.50           1336          52.00       197.47
 1243.57        2958.75           1339          50.00       188.75
 1243.60        2959.00           1342          53.00       201.83
 1243.63        2959.25           1346          55.00       210.55
 1243.67        2959.50           1349          70.00       275.94
 1243.70        2959.75           1352          74.00       293.38
 1243.73        2960.00           1356         110.00       450.31
 1243.76        2960.25           1359         154.00       642.12
 1243.79        2960.50           1362         165.00       690.08
 1243.82        2960.75           1366         218.00       921.12
 1243.85        2961.00           1369         261.00      1108.58
 1243.88        2961.25           1372         292.00      1243.73
 1243.91        2961.50           1376         380.00      1627.37
 1243.94        2961.75           1379         562.00      2420.84
 1243.97        2962.00           1382        1308.00      5673.59
 1244.01        2962.25           1386        3059.00     13310.89
 1244.04        2962.50           1389        4502.00     19607.43
 1244.07        2962.75           1392        5888.00     25657.49
 1244.10        2963.00           1396        7644.00     33325.81
 1244.13        2963.25           1399        9060.00     39511.93
 1244.16        2963.50           1402       10544.00     45997.61
 1244.19        2963.75           1406       12434.00     54261.32
 1244.22        2964.00           1409       13883.00     60599.61
 1244.25        2964.25           1412       15289.00     66752.12
 1244.28        2964.50           1416       17215.00     75183.78
 1244.31        2964.75           1419       18654.00     81486.24
 1244.34        2965.00           1422       20109.00     87861.19
 1244.38        2965.25           1426       22147.00     96794.62
 1244.41        2965.50           1429       23670.00    103473.70
 1244.44        2965.75           1432       25145.00    109944.90
 1244.47        2966.00           1436       27008.00    118121.90
 1244.50        2966.25           1439       28267.00    123650.10
 1244.53        2966.50           1442       29536.00    129224.10
 1244.56        2966.75           1446       30863.00    135054.80
 1244.59        2967.00           1449       31208.00    136571.10
 1244.62        2967.25           1452       31107.00    136127.20
 1244.66        2967.50           1456       31107.00    136127.20
 1244.69        2967.75           1459       31186.00    136474.40
 1244.72        2968.00           1462       31015.00    135722.80
 1244.75        2968.25           1466       29916.00    130893.60
 1244.78        2968.50           1469       28657.00    125362.90
 1244.81        2968.75           1472       27023.00    118187.70
 1244.84        2969.00           1476       25281.00    110541.70
 1244.87        2969.25           1479       23765.00    103890.40
 1244.90        2969.50           1482       22251.00     97250.63
 1244.94        2969.75           1486       20512.00     89627.34
 1244.97        2970.00           1489       19088.00     83387.51
 1245.00        2970.25           1492       17776.00     77640.53
 1245.03        2970.50           1496       15873.00     69308.31
 1245.06        2970.75           1499       14575.00     63627.45
 1245.09        2971.00           1502       12884.00     56229.48
 1245.12        2971.25           1506       11069.00     48292.67
 1245.15        2971.50           1509        9604.00     41889.14
 1245.18        2971.75           1513        7708.00     33605.35
 1245.22        2972.00           1516        6319.00     27539.31
 1245.25        2972.25           1519        4786.00     20846.95
 1245.28        2972.50           1523        2992.00     13018.60
 1245.31        2972.75           1526        1706.00      7409.23
 1245.34        2973.00           1529         696.00      3005.07
 1245.37        2973.25           1533         345.00      1474.78
 1245.40        2973.50           1536         269.00      1143.46
 1245.43        2973.75           1539         238.00      1008.31
 1245.46        2974.00           1543         204.00       860.09
 1245.50        2974.25           1546         148.00       615.97
 1245.53        2974.50           1549         113.00       463.39
 1245.56        2974.75           1553          72.00       284.66
 1245.59        2975.00           1556          72.00       284.66
 1245.62        2975.25           1559          57.00       219.27
 1245.65        2975.50           1563          52.00       197.47
 1245.68        2975.75           1566          60.00       232.35
 1245.71        2976.00           1569          50.00       188.75
 1245.74        2976.25           1573          44.00       162.60
 1245.77        2976.50           1576          44.00       162.60
 1245.81        2976.75           1579          53.00       201.83
 1245.84        2977.00           1583          46.00       171.32
 1245.87        2977.25           1586          57.00       219.27
 1245.90        2977.50           1590          49.00       184.40
 1245.93        2977.75           1593          49.00       184.40
 1245.96        2978.00           1596          52.00       197.47
 1245.99        2978.25           1600          42.00       153.88
 1246.02        2978.50           1603          49.00       184.40
 1246.05        2978.75           1606          44.00       162.60
 1246.09        2979.00           1610          52.00       197.47
 1246.12        2979.25           1613          52.00       197.47
 1246.15        2979.50           1616          52.00       197.47
 1246.18        2979.75           1620          50.00       188.75
 1246.21        2980.00           1623          55.00       210.55
 1246.24        2980.25           1626          51.00       193.11
 1246.27        2980.50           1630          46.00       171.32
 1246.30        2980.75           1633          46.00       171.32
 1246.33        2981.00           1637          45.00       166.96
 1246.36        2981.25           1640          42.00       153.88
 1246.39        2981.50           1643          42.00       153.88
 1246.43        2981.75           1647          43.00       158.24
 1246.46        2982.00           1650          58.00       223.63
 1246.49        2982.25           1653          43.00       158.24
 1246.52        2982.50           1657          47.00       175.68
 1246.55        2982.75           1660          49.00       184.40
 1246.58        2983.00           1663          45.00       166.96
 1246.61        2983.25           1667          55.00       210.55
 1246.64        2983.50           1670          50.00       188.75
 1246.67        2983.75           1673          40.00       145.16
 1246.70        2984.00           1677          52.00       197.47
HS scan finished at 20:46:55
end
