************************************************************
  HS Scan of (1) Internal mercury lamp
************************************************************
Integration time is 0.2294 seconds per sample
dh160818Manchester 53.47 2.23 2.911481pr1000
************************************************************
Dead Time -------------------------  3E-08 
Number of Cycles Used -------------  4 
Starting Wavelength (Angstroms) ---  2950 
Final Wavelength (Angstoms) -------  2984 
Wavelength Increment (Angstroms) --  .25 
Filter Wheel #1 Position ---------- (1) Ground quartz diffuser (ND=2.32)
Filter Wheel #2 Position ---------- (1) Neutral Density 0.494



************************************************************
HS scan start time = 02:18:00
Dark Count =  3.9 


Time (GMT)  Wavelength (Ang)  Step Number  Raw Counts  Counts/Second

  138.36        2950.00           1222          53.00       214.04
  138.43        2950.25           1226          48.00       192.24
  138.46        2950.50           1229          49.00       196.60
  138.49        2950.75           1232          51.00       205.32
  138.52        2951.00           1236          52.00       209.68
  138.55        2951.25           1239          55.00       222.76
  138.58        2951.50           1242          51.00       205.32
  138.61        2951.75           1246          60.00       244.55
  138.64        2952.00           1249          56.00       227.12
  138.67        2952.25           1252          47.00       187.88
  138.71        2952.50           1256          52.00       209.68
  138.74        2952.75           1259          57.00       231.48
  138.77        2953.00           1262          60.00       244.55
  138.80        2953.25           1266          53.00       214.04
  138.83        2953.50           1269          56.00       227.12
  138.86        2953.75           1272          56.00       227.12
  138.89        2954.00           1276          53.00       214.04
  138.92        2954.25           1279          51.00       205.32
  138.95        2954.50           1282          52.00       209.68
  138.98        2954.75           1286          47.00       187.88
  139.01        2955.00           1289          55.00       222.76
  139.05        2955.25           1292          52.00       209.68
  139.08        2955.50           1296          45.00       179.16
  139.11        2955.75           1299          51.00       205.32
  139.14        2956.00           1302          51.00       205.32
  139.17        2956.25           1306          53.00       214.04
  139.20        2956.50           1309          57.00       231.48
  139.23        2956.75           1312          60.00       244.55
  139.26        2957.00           1316          67.00       275.07
  139.29        2957.25           1319          53.00       214.04
  139.32        2957.50           1322          59.00       240.19
  139.35        2957.75           1326          55.00       222.76
  139.38        2958.00           1329          52.00       209.68
  139.42        2958.25           1332          47.00       187.88
  139.45        2958.50           1336          47.00       187.88
  139.48        2958.75           1339          53.00       214.04
  139.51        2959.00           1342          52.00       209.68
  139.54        2959.25           1346          51.00       205.32
  139.57        2959.50           1349          62.00       253.27
  139.60        2959.75           1352          74.00       305.58
  139.63        2960.00           1356          97.00       405.85
  139.66        2960.25           1359         129.00       545.34
  139.69        2960.50           1362         146.00       619.45
  139.73        2960.75           1366         207.00       885.38
  139.76        2961.00           1369         257.00      1103.35
  139.79        2961.25           1372         265.00      1138.23
  139.82        2961.50           1376         356.00      1534.94
  139.85        2961.75           1379         510.00      2206.34
  139.88        2962.00           1382        1148.00      4988.10
  139.91        2962.25           1386        2723.00     11857.31
  139.94        2962.50           1389        3971.00     17302.35
  139.97        2962.75           1392        5342.00     23286.10
  140.01        2963.00           1396        7046.00     30726.22
  140.04        2963.25           1399        8358.00     36457.03
  140.07        2963.50           1402        9680.00     42233.51
  140.10        2963.75           1406       11547.00     50394.79
  140.13        2964.00           1409       13027.00     56867.20
  140.16        2964.25           1412       14575.00     63639.70
  140.19        2964.50           1416       16552.00     72293.06
  140.22        2964.75           1419       17985.00     78568.15
  140.25        2965.00           1422       19420.00     84854.36
  140.29        2965.25           1426       21163.00     92493.00
  140.32        2965.50           1429       22633.00     98937.96
  140.35        2965.75           1432       24203.00    105824.10
  140.38        2966.00           1436       25742.00    112577.10
  140.41        2966.25           1439       27204.00    118994.60
  140.44        2966.50           1442       28320.00    123895.10
  140.47        2966.75           1446       29521.00    129170.50
  140.50        2967.00           1449       29872.00    130712.50
  140.53        2967.25           1452       29798.00    130387.40
  140.57        2967.50           1456       29838.00    130563.20
  140.60        2967.75           1459       29732.00    130097.40
  140.63        2968.00           1462       29560.00    129341.80
  140.66        2968.25           1466       28840.00    126179.00
  140.69        2968.50           1469       27777.00    121510.60
  140.72        2968.75           1472       26394.00    115438.80
  140.75        2969.00           1476       24586.00    107504.40
  140.78        2969.25           1479       23078.00    100889.50
  140.81        2969.50           1482       21899.00     95719.55
  140.85        2969.75           1486       20018.00     87474.68
  140.88        2970.00           1489       18675.00     81590.49
  140.91        2970.25           1492       17314.00     75629.55
  140.94        2970.50           1496       15612.00     68178.10
  140.97        2970.75           1499       14038.00     61290.01
  141.00        2971.00           1502       12663.00     55275.11
  141.03        2971.25           1506       10846.00     47330.01
  141.06        2971.50           1509        9459.00     41267.71
  141.09        2971.75           1513        7651.00     33368.61
  141.13        2972.00           1516        6294.00     27442.38
  141.16        2972.25           1519        4950.00     21574.99
  141.19        2972.50           1523        3239.00     14108.41
  141.22        2972.75           1526        1871.00      8141.05
  141.25        2973.00           1529         814.00      3531.76
  141.28        2973.25           1533         357.00      1539.30
  141.31        2973.50           1536         275.00      1181.82
  141.34        2973.75           1539         237.00      1016.16
  141.37        2974.00           1543         195.00       833.06
  141.40        2974.25           1546         133.00       562.78
  141.43        2974.50           1549         102.00       427.64
  141.46        2974.75           1553          69.00       283.79
  141.49        2975.00           1556          57.00       231.48
  141.52        2975.25           1559          56.00       227.12
  141.56        2975.50           1563          48.00       192.24
  141.59        2975.75           1566          51.00       205.32
  141.62        2976.00           1569          53.00       214.04
  141.65        2976.25           1573          51.00       205.32
  141.68        2976.50           1576          52.00       209.68
  141.71        2976.75           1579          48.00       192.24
  141.74        2977.00           1583          54.00       218.40
  141.77        2977.25           1586          53.00       214.04
  141.80        2977.50           1590          48.00       192.24
  141.83        2977.75           1593          61.00       248.91
  141.86        2978.00           1596          42.00       166.09
  141.89        2978.25           1600          51.00       205.32
  141.92        2978.50           1603          50.00       200.96
  141.95        2978.75           1606          55.00       222.76
  141.99        2979.00           1610          43.00       170.45
  142.02        2979.25           1613          48.00       192.24
  142.05        2979.50           1616          50.00       200.96
  142.08        2979.75           1620          41.00       161.73
  142.11        2980.00           1623          43.00       170.45
  142.14        2980.25           1626          54.00       218.40
  142.17        2980.50           1630          47.00       187.88
  142.20        2980.75           1633          54.00       218.40
  142.23        2981.00           1637          44.00       174.80
  142.26        2981.25           1640          49.00       196.60
  142.29        2981.50           1643          49.00       196.60
  142.32        2981.75           1647          52.00       209.68
  142.35        2982.00           1650          59.00       240.19
  142.39        2982.25           1653          44.00       174.80
  142.42        2982.50           1657          47.00       187.88
  142.45        2982.75           1660          44.00       174.80
  142.48        2983.00           1663          43.00       170.45
  142.51        2983.25           1667          46.00       183.52
  142.54        2983.50           1670          41.00       161.73
  142.57        2983.75           1673          56.00       227.12
  142.60        2984.00           1677          54.00       218.40
HS scan finished at 02:22:49
end
************************************************************
  HS Scan of (1) Internal mercury lamp
************************************************************
Integration time is 0.2294 seconds per sample
dh160818Manchester 53.47 2.23 2.857833pr1000
************************************************************
Dead Time -------------------------  3E-08 
Number of Cycles Used -------------  4 
Starting Wavelength (Angstroms) ---  2950 
Final Wavelength (Angstoms) -------  2984 
Wavelength Increment (Angstroms) --  .25 
Filter Wheel #1 Position ---------- (1) Ground quartz diffuser (ND=2.32)
Filter Wheel #2 Position ---------- (1) Neutral Density 0.494



************************************************************
HS scan start time = 20:42:03
Dark Count =  6.6 


Time (GMT)  Wavelength (Ang)  Step Number  Raw Counts  Counts/Second

 1242.42        2950.00           1222          49.00       184.83
 1242.49        2950.25           1226          47.00       176.11
 1242.52        2950.50           1229          52.00       197.91
 1242.55        2950.75           1232          54.00       206.63
 1242.58        2951.00           1236          53.00       202.27
 1242.61        2951.25           1239          51.00       193.55
 1242.64        2951.50           1242          53.00       202.27
 1242.67        2951.75           1246          49.00       184.83
 1242.70        2952.00           1249          51.00       193.55
 1242.73        2952.25           1252          53.00       202.27
 1242.76        2952.50           1256          56.00       215.35
 1242.79        2952.75           1259          56.00       215.35
 1242.82        2953.00           1262          58.00       224.06
 1242.85        2953.25           1266          64.00       250.22
 1242.88        2953.50           1269          51.00       193.55
 1242.92        2953.75           1272          54.00       206.63
 1242.95        2954.00           1276          45.00       167.39
 1242.98        2954.25           1279          60.00       232.78
 1243.01        2954.50           1282          61.00       237.14
 1243.04        2954.75           1286          54.00       206.63
 1243.07        2955.00           1289          54.00       206.63
 1243.10        2955.25           1292          58.00       224.06
 1243.13        2955.50           1296          50.00       189.19
 1243.16        2955.75           1299          54.00       206.63
 1243.19        2956.00           1302          62.00       241.50
 1243.22        2956.25           1306          53.00       202.27
 1243.26        2956.50           1309          50.00       189.19
 1243.29        2956.75           1312          64.00       250.22
 1243.32        2957.00           1316          52.00       197.91
 1243.35        2957.25           1319          52.00       197.91
 1243.38        2957.50           1322          49.00       184.83
 1243.41        2957.75           1326          60.00       232.78
 1243.44        2958.00           1329          50.00       189.19
 1243.47        2958.25           1332          53.00       202.27
 1243.50        2958.50           1336          50.00       189.19
 1243.53        2958.75           1339          51.00       193.55
 1243.56        2959.00           1342          59.00       228.42
 1243.59        2959.25           1346          61.00       237.14
 1243.63        2959.50           1349          58.00       224.06
 1243.66        2959.75           1352          81.00       324.33
 1243.69        2960.00           1356          98.00       398.44
 1243.72        2960.25           1359         129.00       533.57
 1243.75        2960.50           1362         155.00       646.92
 1243.78        2960.75           1366         204.00       860.53
 1243.81        2961.00           1369         244.00      1034.91
 1243.84        2961.25           1372         270.00      1148.25
 1243.87        2961.50           1376         334.00      1427.26
 1243.90        2961.75           1379         437.00      1876.30
 1243.93        2962.00           1382         938.00      4060.65
 1243.96        2962.25           1386        2331.00     10135.60
 1244.00        2962.50           1389        3601.00     15676.07
 1244.03        2962.75           1392        4935.00     21497.73
 1244.06        2963.00           1396        6732.00     29343.17
 1244.09        2963.25           1399        7986.00     34820.14
 1244.12        2963.50           1402        9418.00     41076.75
 1244.15        2963.75           1406       11167.00     48721.56
 1244.18        2964.00           1409       12473.00     54432.33
 1244.21        2964.25           1412       13979.00     61020.06
 1244.25        2964.50           1416       15965.00     69711.47
 1244.28        2964.75           1419       17241.00     75298.07
 1244.31        2965.00           1422       18685.00     81622.46
 1244.34        2965.25           1426       20354.00     88935.31
 1244.37        2965.50           1429       21736.00     94993.09
 1244.40        2965.75           1432       23125.00    101083.80
 1244.43        2966.00           1436       24710.00    108036.60
 1244.46        2966.25           1439       25884.00    113188.40
 1244.49        2966.50           1442       27165.00    118811.60
 1244.53        2966.75           1446       28773.00    125872.90
 1244.56        2967.00           1449       29187.00    127691.40
 1244.59        2967.25           1452       29341.00    128367.90
 1244.62        2967.50           1456       29231.00    127884.60
 1244.65        2967.75           1459       29045.00    127067.60
 1244.68        2968.00           1462       29147.00    127515.70
 1244.71        2968.25           1466       28457.00    124485.00
 1244.74        2968.50           1469       27351.00    119628.20
 1244.78        2968.75           1472       26078.00    114039.90
 1244.81        2969.00           1476       24143.00    105549.00
 1244.84        2969.25           1479       22979.00    100443.50
 1244.87        2969.50           1482       21599.00     94392.46
 1244.90        2969.75           1486       19810.00     86551.39
 1244.93        2970.00           1489       18598.00     81241.36
 1244.96        2970.25           1492       17201.00     75122.91
 1244.99        2970.50           1496       15302.00     66809.46
 1245.02        2970.75           1499       13892.00     60639.42
 1245.05        2971.00           1502       12588.00     54935.28
 1245.08        2971.25           1506       10618.00     46321.52
 1245.12        2971.50           1509        9373.00     40880.10
 1245.15        2971.75           1513        7753.00     33802.35
 1245.18        2972.00           1516        6345.00     27653.27
 1245.21        2972.25           1519        5036.00     21938.59
 1245.24        2972.50           1523        3277.00     14262.42
 1245.27        2972.75           1526        2025.00      8800.93
 1245.30        2973.00           1529         887.00      3838.28
 1245.33        2973.25           1533         381.00      1632.16
 1245.36        2973.50           1536         270.00      1148.25
 1245.39        2973.75           1539         239.00      1013.11
 1245.43        2974.00           1543         202.00       851.81
 1245.46        2974.25           1546         155.00       646.92
 1245.49        2974.50           1549         114.00       468.18
 1245.52        2974.75           1553          73.00       289.45
 1245.55        2975.00           1556          61.00       237.14
 1245.58        2975.25           1559          53.00       202.27
 1245.61        2975.50           1563          47.00       176.11
 1245.64        2975.75           1566          52.00       197.91
 1245.67        2976.00           1569          52.00       197.91
 1245.70        2976.25           1573          50.00       189.19
 1245.73        2976.50           1576          55.00       210.99
 1245.77        2976.75           1579          55.00       210.99
 1245.80        2977.00           1583          52.00       197.91
 1245.83        2977.25           1586          52.00       197.91
 1245.86        2977.50           1590          49.00       184.83
 1245.89        2977.75           1593          52.00       197.91
 1245.92        2978.00           1596          51.00       193.55
 1245.95        2978.25           1600          51.00       193.55
 1245.98        2978.50           1603          47.00       176.11
 1246.01        2978.75           1606          53.00       202.27
 1246.04        2979.00           1610          40.00       145.60
 1246.07        2979.25           1613          49.00       184.83
 1246.11        2979.50           1616          53.00       202.27
 1246.14        2979.75           1620          44.00       163.03
 1246.17        2980.00           1623          50.00       189.19
 1246.20        2980.25           1626          49.00       184.83
 1246.23        2980.50           1630          55.00       210.99
 1246.26        2980.75           1633          60.00       232.78
 1246.29        2981.00           1637          43.00       158.68
 1246.32        2981.25           1640          55.00       210.99
 1246.35        2981.50           1643          47.00       176.11
 1246.38        2981.75           1647          57.00       219.71
 1246.41        2982.00           1650          49.00       184.83
 1246.44        2982.25           1653          48.00       180.47
 1246.47        2982.50           1657          54.00       206.63
 1246.50        2982.75           1660          42.00       154.32
 1246.53        2983.00           1663          50.00       189.19
 1246.57        2983.25           1667          43.00       158.68
 1246.60        2983.50           1670          51.00       193.55
 1246.63        2983.75           1673          52.00       197.91
 1246.66        2984.00           1677          48.00       180.47
HS scan finished at 20:46:53
end
