************************************************************
  HS Scan of (1) Internal mercury lamp
************************************************************
Integration time is 0.2294 seconds per sample
dh110818Manchester 53.47 2.23 2.804185pr1000
************************************************************
Dead Time -------------------------  3E-08 
Number of Cycles Used -------------  4 
Starting Wavelength (Angstroms) ---  2950 
Final Wavelength (Angstoms) -------  2984 
Wavelength Increment (Angstroms) --  .25 
Filter Wheel #1 Position ---------- (1) Ground quartz diffuser (ND=2.32)
Filter Wheel #2 Position ---------- (1) Neutral Density 0.494



************************************************************
HS scan start time = 01:28:47
Dark Count =  8 


Time (GMT)  Wavelength (Ang)  Step Number  Raw Counts  Counts/Second

   89.15        2950.00           1222          54.00       200.52
   89.21        2950.25           1226          54.00       200.52
   89.24        2950.50           1229          45.00       161.29
   89.27        2950.75           1232          48.00       174.37
   89.31        2951.00           1236          48.00       174.37
   89.34        2951.25           1239          57.00       213.60
   89.37        2951.50           1242          62.00       235.40
   89.40        2951.75           1246          52.00       191.81
   89.43        2952.00           1249          57.00       213.60
   89.46        2952.25           1252          56.00       209.24
   89.49        2952.50           1256          54.00       200.52
   89.52        2952.75           1259          55.00       204.88
   89.55        2953.00           1262          49.00       178.73
   89.58        2953.25           1266          49.00       178.73
   89.61        2953.50           1269          57.00       213.60
   89.64        2953.75           1272          48.00       174.37
   89.67        2954.00           1276          59.00       222.32
   89.70        2954.25           1279          59.00       222.32
   89.73        2954.50           1282          51.00       187.45
   89.77        2954.75           1286          54.00       200.52
   89.80        2955.00           1289          54.00       200.52
   89.83        2955.25           1292          55.00       204.88
   89.86        2955.50           1296          46.00       165.65
   89.89        2955.75           1299          53.00       196.17
   89.92        2956.00           1302          53.00       196.17
   89.95        2956.25           1306          48.00       174.37
   89.98        2956.50           1309          48.00       174.37
   90.01        2956.75           1312          51.00       187.45
   90.04        2957.00           1316          58.00       217.96
   90.07        2957.25           1319          51.00       187.45
   90.10        2957.50           1322          56.00       209.24
   90.13        2957.75           1326          49.00       178.73
   90.16        2958.00           1329          54.00       200.52
   90.19        2958.25           1332          50.00       183.09
   90.23        2958.50           1336          44.00       156.93
   90.26        2958.75           1339          59.00       222.32
   90.29        2959.00           1342          49.00       178.73
   90.32        2959.25           1346          49.00       178.73
   90.35        2959.50           1349          51.00       187.45
   90.38        2959.75           1352          58.00       217.96
   90.41        2960.00           1356          80.00       313.87
   90.44        2960.25           1359         120.00       488.24
   90.47        2960.50           1362         131.00       536.19
   90.50        2960.75           1366         177.00       736.72
   90.53        2961.00           1369         208.00       871.86
   90.56        2961.25           1372         247.00      1041.88
   90.59        2961.50           1376         306.00      1299.09
   90.62        2961.75           1379         386.00      1647.86
   90.66        2962.00           1382         696.00      2999.40
   90.69        2962.25           1386        1879.00      8158.06
   90.72        2962.50           1389        3159.00     13741.50
   90.75        2962.75           1392        4385.00     19091.14
   90.78        2963.00           1396        6098.00     26568.68
   90.81        2963.25           1399        7301.00     31822.00
   90.84        2963.50           1402        8695.00     37911.45
   90.87        2963.75           1406       10522.00     45895.76
   90.90        2964.00           1409       11902.00     51929.14
   90.93        2964.25           1412       13483.00     58843.98
   90.97        2964.50           1416       15057.00     65731.06
   91.00        2964.75           1419       16418.00     71688.45
   91.03        2965.00           1422       17840.00     77915.13
   91.06        2965.25           1426       19714.00     86124.59
   91.09        2965.50           1429       21126.00     92312.84
   91.12        2965.75           1432       22282.00     97380.85
   91.15        2966.00           1436       24171.00    105665.70
   91.18        2966.25           1439       25269.00    110483.30
   91.21        2966.50           1442       26574.00    116210.90
   91.24        2966.75           1446       28281.00    123705.90
   91.27        2967.00           1449       28576.00    125001.50
   91.31        2967.25           1452       28687.00    125489.00
   91.34        2967.50           1456       28626.00    125221.10
   91.37        2967.75           1459       28603.00    125120.00
   91.40        2968.00           1462       28682.00    125467.00
   91.43        2968.25           1466       28132.00    123051.50
   91.46        2968.50           1469       27208.00    118994.20
   91.49        2968.75           1472       26115.00    114196.10
   91.52        2969.00           1476       24312.00    106284.30
   91.55        2969.25           1479       22865.00     99937.37
   91.59        2969.50           1482       21551.00     94175.91
   91.62        2969.75           1486       19722.00     86159.64
   91.65        2970.00           1489       18558.00     81060.01
   91.68        2970.25           1492       17154.00     74910.97
   91.71        2970.50           1496       15384.00     67162.22
   91.74        2970.75           1499       14162.00     61814.62
   91.77        2971.00           1502       12817.00     55930.74
   91.80        2971.25           1506       11112.00     48474.98
   91.83        2971.50           1509        9837.00     42901.74
   91.86        2971.75           1513        8080.00     35224.65
   91.89        2972.00           1516        6939.00     30241.03
   91.93        2972.25           1519        5493.00     23927.37
   91.96        2972.50           1523        3761.00     16368.11
   91.99        2972.75           1526        2538.00     11032.42
   92.02        2973.00           1529        1318.00      5711.53
   92.05        2973.25           1533         471.00      2018.43
   92.08        2973.50           1536         300.00      1272.93
   92.11        2973.75           1539         247.00      1041.88
   92.14        2974.00           1543         206.00       863.14
   92.17        2974.25           1546         172.00       714.92
   92.20        2974.50           1549         128.00       523.11
   92.23        2974.75           1553          92.00       366.18
   92.27        2975.00           1556          74.00       287.71
   92.30        2975.25           1559          61.00       231.04
   92.33        2975.50           1563          62.00       235.40
   92.36        2975.75           1566          48.00       174.37
   92.39        2976.00           1569          55.00       204.88
   92.42        2976.25           1573          49.00       178.73
   92.45        2976.50           1576          49.00       178.73
   92.48        2976.75           1579          49.00       178.73
   92.51        2977.00           1583          48.00       174.37
   92.54        2977.25           1586          53.00       196.17
   92.57        2977.50           1590          51.00       187.45
   92.60        2977.75           1593          48.00       174.37
   92.63        2978.00           1596          53.00       196.17
   92.67        2978.25           1600          51.00       187.45
   92.70        2978.50           1603          53.00       196.17
   92.73        2978.75           1606          46.00       165.65
   92.76        2979.00           1610          50.00       183.09
   92.79        2979.25           1613          52.00       191.81
   92.82        2979.50           1616          43.00       152.57
   92.85        2979.75           1620          48.00       174.37
   92.88        2980.00           1623          50.00       183.09
   92.91        2980.25           1626          50.00       183.09
   92.95        2980.50           1630          52.00       191.81
   92.98        2980.75           1633          46.00       165.65
   93.01        2981.00           1637          49.00       178.73
   93.04        2981.25           1640          44.00       156.93
   93.07        2981.50           1643          56.00       209.24
   93.10        2981.75           1647          45.00       161.29
   93.13        2982.00           1650          44.00       156.93
   93.16        2982.25           1653          52.00       191.81
   93.19        2982.50           1657          48.00       174.37
   93.22        2982.75           1660          44.00       156.93
   93.25        2983.00           1663          46.00       165.65
   93.28        2983.25           1667          47.00       170.01
   93.32        2983.50           1670          48.00       174.37
   93.35        2983.75           1673          43.00       152.57
   93.38        2984.00           1677          44.00       156.93
HS scan finished at 01:33:36
end
************************************************************
  HS Scan of (1) Internal mercury lamp
************************************************************
Integration time is 0.2294 seconds per sample
dh110818Manchester 53.47 2.23 2.857833pr1000
************************************************************
Dead Time -------------------------  3E-08 
Number of Cycles Used -------------  4 
Starting Wavelength (Angstroms) ---  2950 
Final Wavelength (Angstoms) -------  2984 
Wavelength Increment (Angstroms) --  .25 
Filter Wheel #1 Position ---------- (1) Ground quartz diffuser (ND=2.32)
Filter Wheel #2 Position ---------- (1) Neutral Density 0.494



************************************************************
HS scan start time = 20:42:04
Dark Count =  4.3 


Time (GMT)  Wavelength (Ang)  Step Number  Raw Counts  Counts/Second

 1242.43        2950.00           1222          57.00       229.73
 1242.50        2950.25           1226          53.00       212.29
 1242.53        2950.50           1229          49.00       194.86
 1242.56        2950.75           1232          56.00       225.37
 1242.59        2951.00           1236          49.00       194.86
 1242.62        2951.25           1239          56.00       225.37
 1242.65        2951.50           1242          56.00       225.37
 1242.68        2951.75           1246          52.00       207.94
 1242.71        2952.00           1249          49.00       194.86
 1242.74        2952.25           1252          54.00       216.65
 1242.77        2952.50           1256          50.00       199.22
 1242.81        2952.75           1259          48.00       190.50
 1242.84        2953.00           1262          55.00       221.01
 1242.87        2953.25           1266          53.00       212.29
 1242.90        2953.50           1269          48.00       190.50
 1242.93        2953.75           1272          51.00       203.58
 1242.96        2954.00           1276          58.00       234.09
 1242.99        2954.25           1279          51.00       203.58
 1243.02        2954.50           1282          50.00       199.22
 1243.05        2954.75           1286          59.00       238.45
 1243.09        2955.00           1289          65.00       264.61
 1243.12        2955.25           1292          52.00       207.94
 1243.15        2955.50           1296          59.00       238.45
 1243.18        2955.75           1299          52.00       207.94
 1243.21        2956.00           1302          53.00       212.29
 1243.24        2956.25           1306          51.00       203.58
 1243.27        2956.50           1309          53.00       212.29
 1243.30        2956.75           1312          50.00       199.22
 1243.33        2957.00           1316          59.00       238.45
 1243.36        2957.25           1319          60.00       242.81
 1243.39        2957.50           1322          46.00       181.78
 1243.42        2957.75           1326          47.00       186.14
 1243.45        2958.00           1329          47.00       186.14
 1243.49        2958.25           1332          52.00       207.94
 1243.52        2958.50           1336          49.00       194.86
 1243.55        2958.75           1339          54.00       216.65
 1243.58        2959.00           1342          50.00       199.22
 1243.61        2959.25           1346          57.00       229.73
 1243.64        2959.50           1349          66.00       268.96
 1243.67        2959.75           1352          87.00       360.51
 1243.70        2960.00           1356         117.00       491.29
 1243.73        2960.25           1359         131.00       552.32
 1243.76        2960.50           1362         166.00       704.90
 1243.80        2960.75           1366         220.00       940.31
 1243.83        2961.00           1369         252.00      1079.81
 1243.86        2961.25           1372         292.00      1254.19
 1243.89        2961.50           1376         337.00      1450.37
 1243.92        2961.75           1379         465.00      2008.40
 1243.95        2962.00           1382        1000.00      4341.02
 1243.98        2962.25           1386        2419.00     10529.48
 1244.01        2962.50           1389        3766.00     16406.07
 1244.04        2962.75           1392        5075.00     22118.86
 1244.07        2963.00           1396        6969.00     30388.20
 1244.10        2963.25           1399        8182.00     35686.40
 1244.13        2963.50           1402        9514.00     41506.32
 1244.16        2963.75           1406       11434.00     49898.97
 1244.20        2964.00           1409       12701.00     55439.56
 1244.23        2964.25           1412       14098.00     61550.78
 1244.26        2964.50           1416       15841.00     69178.74
 1244.29        2964.75           1419       17349.00     75781.06
 1244.32        2965.00           1422       18682.00     81619.40
 1244.35        2965.25           1426       20639.00     90194.46
 1244.38        2965.50           1429       21922.00     95818.63
 1244.41        2965.75           1432       23142.00    101168.40
 1244.44        2966.00           1436       24987.00    109262.10
 1244.47        2966.25           1439       26194.00    114559.10
 1244.51        2966.50           1442       27331.00    119550.50
 1244.54        2966.75           1446       28797.00    125988.40
 1244.57        2967.00           1449       29025.00    126989.90
 1244.60        2967.25           1452       29128.00    127442.30
 1244.63        2967.50           1456       29037.00    127042.60
 1244.66        2967.75           1459       29036.00    127038.20
 1244.69        2968.00           1462       28874.00    126326.60
 1244.72        2968.25           1466       28139.00    123098.50
 1244.75        2968.50           1469       26869.00    117522.20
 1244.78        2968.75           1472       25739.00    112562.10
 1244.81        2969.00           1476       23768.00    103914.10
 1244.84        2969.25           1479       22489.00     98304.75
 1244.87        2969.50           1482       21044.00     91969.62
 1244.91        2969.75           1486       19430.00     84896.41
 1244.94        2970.00           1489       18135.00     79223.38
 1244.97        2970.25           1492       16764.00     73219.52
 1245.00        2970.50           1496       15073.00     65817.28
 1245.03        2970.75           1499       13698.00     59800.74
 1245.06        2971.00           1502       12588.00     54945.34
 1245.09        2971.25           1506       10778.00     47031.00
 1245.12        2971.50           1509        9357.00     40820.23
 1245.16        2971.75           1513        7555.00     32947.55
 1245.19        2972.00           1516        6183.00     26955.97
 1245.22        2972.25           1519        4827.00     21036.38
 1245.25        2972.50           1523        3128.00     13622.39
 1245.28        2972.75           1526        1903.00      8278.87
 1245.31        2973.00           1529         836.00      3625.94
 1245.34        2973.25           1533         360.00      1550.64
 1245.37        2973.50           1536         259.00      1110.32
 1245.40        2973.75           1539         218.00       931.59
 1245.43        2974.00           1543         188.00       800.80
 1245.47        2974.25           1546         137.00       578.48
 1245.50        2974.50           1549         103.00       430.26
 1245.53        2974.75           1553          76.00       312.56
 1245.56        2975.00           1556          58.00       234.09
 1245.59        2975.25           1559          66.00       268.96
 1245.62        2975.50           1563          59.00       238.45
 1245.65        2975.75           1566          52.00       207.94
 1245.68        2976.00           1569          49.00       194.86
 1245.71        2976.25           1573          49.00       194.86
 1245.74        2976.50           1576          51.00       203.58
 1245.78        2976.75           1579          49.00       194.86
 1245.81        2977.00           1583          52.00       207.94
 1245.84        2977.25           1586          53.00       212.29
 1245.87        2977.50           1590          50.00       199.22
 1245.90        2977.75           1593          50.00       199.22
 1245.93        2978.00           1596          47.00       186.14
 1245.96        2978.25           1600          49.00       194.86
 1245.99        2978.50           1603          46.00       181.78
 1246.02        2978.75           1606          50.00       199.22
 1246.05        2979.00           1610          50.00       199.22
 1246.08        2979.25           1613          45.00       177.42
 1246.11        2979.50           1616          50.00       199.22
 1246.15        2979.75           1620          44.00       173.06
 1246.18        2980.00           1623          48.00       190.50
 1246.21        2980.25           1626          49.00       194.86
 1246.24        2980.50           1630          47.00       186.14
 1246.27        2980.75           1633          51.00       203.58
 1246.30        2981.00           1637          50.00       199.22
 1246.33        2981.25           1640          49.00       194.86
 1246.36        2981.50           1643          48.00       190.50
 1246.39        2981.75           1647          48.00       190.50
 1246.43        2982.00           1650          52.00       207.94
 1246.46        2982.25           1653          54.00       216.65
 1246.49        2982.50           1657          52.00       207.94
 1246.52        2982.75           1660          48.00       190.50
 1246.55        2983.00           1663          44.00       173.06
 1246.58        2983.25           1667          46.00       181.78
 1246.61        2983.50           1670          44.00       173.06
 1246.64        2983.75           1673          50.00       199.22
 1246.67        2984.00           1677          49.00       194.86
HS scan finished at 20:46:53
end
