************************************************************
  HS Scan of (1) Internal mercury lamp
************************************************************
Integration time is 0.2294 seconds per sample
dh100818Manchester 53.47 2.23 2.804185pr1000
************************************************************
Dead Time -------------------------  3E-08 
Number of Cycles Used -------------  4 
Starting Wavelength (Angstroms) ---  2950 
Final Wavelength (Angstoms) -------  2984 
Wavelength Increment (Angstroms) --  .25 
Filter Wheel #1 Position ---------- (1) Ground quartz diffuser (ND=2.32)
Filter Wheel #2 Position ---------- (1) Neutral Density 0.494



************************************************************
HS scan start time = 01:37:58
Dark Count =  6.5 


Time (GMT)  Wavelength (Ang)  Step Number  Raw Counts  Counts/Second

   98.34        2950.00           1222          56.00       215.78
   98.40        2950.25           1226          52.00       198.34
   98.43        2950.50           1229          58.00       224.50
   98.46        2950.75           1232          57.00       220.14
   98.50        2951.00           1236          53.00       202.70
   98.53        2951.25           1239          51.00       193.99
   98.56        2951.50           1242          58.00       224.50
   98.59        2951.75           1246          56.00       215.78
   98.62        2952.00           1249          58.00       224.50
   98.65        2952.25           1252          55.00       211.42
   98.68        2952.50           1256          60.00       233.22
   98.71        2952.75           1259          52.00       198.34
   98.74        2953.00           1262          54.00       207.06
   98.77        2953.25           1266          51.00       193.99
   98.80        2953.50           1269          46.00       172.19
   98.84        2953.75           1272          51.00       193.99
   98.87        2954.00           1276          51.00       193.99
   98.90        2954.25           1279          51.00       193.99
   98.93        2954.50           1282          62.00       241.94
   98.96        2954.75           1286          54.00       207.06
   98.99        2955.00           1289          53.00       202.70
   99.02        2955.25           1292          56.00       215.78
   99.05        2955.50           1296          52.00       198.34
   99.08        2955.75           1299          55.00       211.42
   99.11        2956.00           1302          50.00       189.63
   99.14        2956.25           1306          53.00       202.70
   99.17        2956.50           1309          55.00       211.42
   99.21        2956.75           1312          62.00       241.94
   99.24        2957.00           1316          49.00       185.27
   99.27        2957.25           1319          57.00       220.14
   99.30        2957.50           1322          46.00       172.19
   99.33        2957.75           1326          54.00       207.06
   99.36        2958.00           1329          55.00       211.42
   99.39        2958.25           1332          51.00       193.99
   99.42        2958.50           1336          54.00       207.06
   99.45        2958.75           1339          51.00       193.99
   99.48        2959.00           1342          63.00       246.30
   99.51        2959.25           1346          58.00       224.50
   99.54        2959.50           1349          67.00       263.73
   99.57        2959.75           1352          81.00       324.76
   99.60        2960.00           1356         114.00       468.62
   99.63        2960.25           1359         143.00       595.04
   99.67        2960.50           1362         172.00       721.46
   99.70        2960.75           1366         222.00       939.43
   99.73        2961.00           1369         253.00      1074.58
   99.76        2961.25           1372         285.00      1214.08
   99.79        2961.50           1376         353.00      1510.53
   99.82        2961.75           1379         492.00      2116.53
   99.85        2962.00           1382        1017.00      4405.55
   99.88        2962.25           1386        2425.00     10546.06
   99.91        2962.50           1389        3739.00     16278.66
   99.95        2962.75           1392        5018.00     21860.45
   99.98        2963.00           1396        6681.00     29120.90
  100.01        2963.25           1399        8073.00     35200.63
  100.04        2963.50           1402        9337.00     40723.22
  100.07        2963.75           1406       11112.00     48481.54
  100.10        2964.00           1409       12419.00     54196.60
  100.13        2964.25           1412       13808.00     60272.36
  100.16        2964.50           1416       15650.00     68333.06
  100.19        2964.75           1419       17027.00     74361.44
  100.22        2965.00           1422       18309.00     79975.88
  100.26        2965.25           1426       20203.00     88273.99
  100.29        2965.50           1429       21487.00     93901.90
  100.32        2965.75           1432       22914.00    100158.80
  100.35        2966.00           1436       24601.00    107558.80
  100.38        2966.25           1439       25634.00    112091.60
  100.41        2966.50           1442       26806.00    117235.90
  100.44        2966.75           1446       28054.00    122715.60
  100.47        2967.00           1449       28506.00    124700.60
  100.50        2967.25           1452       28620.00    125201.30
  100.54        2967.50           1456       28557.00    124924.60
  100.57        2967.75           1459       28602.00    125122.20
  100.60        2968.00           1462       28467.00    124529.30
  100.63        2968.25           1466       27455.00    120085.30
  100.66        2968.50           1469       26223.00    114676.80
  100.69        2968.75           1472       24985.00    109243.70
  100.72        2969.00           1476       23327.00    101970.10
  100.75        2969.25           1479       21909.00     95751.99
  100.79        2969.50           1482       20813.00     90947.46
  100.82        2969.75           1486       18932.00     82704.95
  100.85        2970.00           1489       17764.00     77588.85
  100.88        2970.25           1492       16512.00     72106.56
  100.91        2970.50           1496       14760.00     64437.88
  100.94        2970.75           1499       13264.00     57892.53
  100.97        2971.00           1502       12086.00     52740.32
  101.00        2971.25           1506       10143.00     44245.71
  101.03        2971.50           1509        8805.00     38398.61
  101.07        2971.75           1513        7128.00     31072.98
  101.10        2972.00           1516        5722.00     24933.64
  101.13        2972.25           1519        4581.00     19953.09
  101.16        2972.50           1523        3017.00     13128.54
  101.19        2972.75           1526        1783.00      7745.92
  101.22        2973.00           1529         787.00      3402.70
  101.25        2973.25           1533         348.00      1488.73
  101.28        2973.50           1536         259.00      1100.73
  101.31        2973.75           1539         205.00       865.32
  101.34        2974.00           1543         184.00       773.78
  101.37        2974.25           1546         125.00       516.57
  101.41        2974.50           1549          95.00       385.79
  101.44        2974.75           1553          67.00       263.73
  101.47        2975.00           1556          53.00       202.70
  101.50        2975.25           1559          59.00       228.86
  101.53        2975.50           1563          47.00       176.55
  101.56        2975.75           1566          49.00       185.27
  101.59        2976.00           1569          52.00       198.34
  101.62        2976.25           1573          50.00       189.63
  101.65        2976.50           1576          54.00       207.06
  101.68        2976.75           1579          49.00       185.27
  101.72        2977.00           1583          54.00       207.06
  101.75        2977.25           1586          55.00       211.42
  101.78        2977.50           1590          47.00       176.55
  101.81        2977.75           1593          51.00       193.99
  101.84        2978.00           1596          50.00       189.63
  101.87        2978.25           1600          49.00       185.27
  101.90        2978.50           1603          50.00       189.63
  101.93        2978.75           1606          48.00       180.91
  101.96        2979.00           1610          45.00       167.83
  101.99        2979.25           1613          53.00       202.70
  102.02        2979.50           1616          57.00       220.14
  102.06        2979.75           1620          53.00       202.70
  102.09        2980.00           1623          43.00       159.11
  102.12        2980.25           1626          48.00       180.91
  102.15        2980.50           1630          50.00       189.63
  102.18        2980.75           1633          57.00       220.14
  102.21        2981.00           1637          50.00       189.63
  102.24        2981.25           1640          51.00       193.99
  102.27        2981.50           1643          44.00       163.47
  102.30        2981.75           1647          39.00       141.67
  102.34        2982.00           1650          50.00       189.63
  102.37        2982.25           1653          53.00       202.70
  102.40        2982.50           1657          50.00       189.63
  102.43        2982.75           1660          47.00       176.55
  102.46        2983.00           1663          53.00       202.70
  102.49        2983.25           1667          46.00       172.19
  102.52        2983.50           1670          48.00       180.91
  102.55        2983.75           1673          53.00       202.70
  102.58        2984.00           1677          47.00       176.55
HS scan finished at 01:42:48
end
************************************************************
  HS Scan of (1) Internal mercury lamp
************************************************************
Integration time is 0.2294 seconds per sample
dh100818Manchester 53.47 2.23 2.804185pr1000
************************************************************
Dead Time -------------------------  3E-08 
Number of Cycles Used -------------  4 
Starting Wavelength (Angstroms) ---  2950 
Final Wavelength (Angstoms) -------  2984 
Wavelength Increment (Angstroms) --  .25 
Filter Wheel #1 Position ---------- (1) Ground quartz diffuser (ND=2.32)
Filter Wheel #2 Position ---------- (1) Neutral Density 0.494



************************************************************
HS scan start time = 20:42:02
Dark Count =  6.6 


Time (GMT)  Wavelength (Ang)  Step Number  Raw Counts  Counts/Second

 1242.40        2950.00           1222          51.00       193.55
 1242.47        2950.25           1226          56.00       215.35
 1242.50        2950.50           1229          56.00       215.35
 1242.53        2950.75           1232          57.00       219.71
 1242.56        2951.00           1236          55.00       210.99
 1242.59        2951.25           1239          51.00       193.55
 1242.62        2951.50           1242          56.00       215.35
 1242.66        2951.75           1246          51.00       193.55
 1242.69        2952.00           1249          52.00       197.91
 1242.72        2952.25           1252          49.00       184.83
 1242.75        2952.50           1256          65.00       254.58
 1242.78        2952.75           1259          56.00       215.35
 1242.81        2953.00           1262          51.00       193.55
 1242.84        2953.25           1266          52.00       197.91
 1242.87        2953.50           1269          62.00       241.50
 1242.90        2953.75           1272          57.00       219.71
 1242.93        2954.00           1276          56.00       215.35
 1242.96        2954.25           1279          47.00       176.11
 1242.99        2954.50           1282          59.00       228.42
 1243.02        2954.75           1286          59.00       228.42
 1243.05        2955.00           1289          46.00       171.75
 1243.08        2955.25           1292          54.00       206.63
 1243.11        2955.50           1296          52.00       197.91
 1243.14        2955.75           1299          54.00       206.63
 1243.18        2956.00           1302          52.00       197.91
 1243.21        2956.25           1306          50.00       189.19
 1243.24        2956.50           1309          51.00       193.55
 1243.27        2956.75           1312          53.00       202.27
 1243.30        2957.00           1316          55.00       210.99
 1243.33        2957.25           1319          48.00       180.47
 1243.36        2957.50           1322          57.00       219.71
 1243.39        2957.75           1326          52.00       197.91
 1243.42        2958.00           1329          43.00       158.68
 1243.45        2958.25           1332          49.00       184.83
 1243.48        2958.50           1336          53.00       202.27
 1243.52        2958.75           1339          53.00       202.27
 1243.55        2959.00           1342          51.00       193.55
 1243.58        2959.25           1346          52.00       197.91
 1243.61        2959.50           1349          57.00       219.71
 1243.64        2959.75           1352          68.00       267.66
 1243.67        2960.00           1356         104.00       424.59
 1243.70        2960.25           1359         130.00       537.93
 1243.73        2960.50           1362         150.00       625.12
 1243.76        2960.75           1366         206.00       869.25
 1243.79        2961.00           1369         230.00       973.87
 1243.82        2961.25           1372         277.00      1178.77
 1243.86        2961.50           1376         327.00      1396.75
 1243.89        2961.75           1379         429.00      1841.43
 1243.92        2962.00           1382         937.00      4056.29
 1243.95        2962.25           1386        2384.00     10366.78
 1243.98        2962.50           1389        3627.00     15789.52
 1244.01        2962.75           1392        4795.00     20886.67
 1244.04        2963.00           1396        6514.00     28391.22
 1244.07        2963.25           1399        7860.00     34269.74
 1244.10        2963.50           1402        9061.00     39516.75
 1244.13        2963.75           1406       11094.00     48402.41
 1244.16        2964.00           1409       12255.00     53478.94
 1244.20        2964.25           1412       13723.00     59900.05
 1244.23        2964.50           1416       15619.00     68196.93
 1244.26        2964.75           1419       16799.00     73362.69
 1244.29        2965.00           1422       18127.00     79178.28
 1244.32        2965.25           1426       19727.00     86187.69
 1244.35        2965.50           1429       21123.00     92305.83
 1244.38        2965.75           1432       22485.00     98277.12
 1244.41        2966.00           1436       24104.00    105378.00
 1244.44        2966.25           1439       25445.00    111261.80
 1244.47        2966.50           1442       26738.00    116937.00
 1244.51        2966.75           1446       28124.00    123022.50
 1244.54        2967.00           1449       28634.00    125262.40
 1244.57        2967.25           1452       28472.00    124550.90
 1244.60        2967.50           1456       28448.00    124445.40
 1244.63        2967.75           1459       28376.00    124129.20
 1244.66        2968.00           1462       28331.00    123931.60
 1244.69        2968.25           1466       27525.00    120392.20
 1244.72        2968.50           1469       26488.00    115839.50
 1244.75        2968.75           1472       25381.00    110980.90
 1244.78        2969.00           1476       23595.00    103145.20
 1244.82        2969.25           1479       22471.00     98215.74
 1244.85        2969.50           1482       21009.00     91806.13
 1244.88        2969.75           1486       19141.00     83620.15
 1244.91        2970.00           1489       17856.00     77991.34
 1244.94        2970.25           1492       16573.00     72373.19
 1244.97        2970.50           1496       14848.00     64822.54
 1245.00        2970.75           1499       13517.00     58998.85
 1245.03        2971.00           1502       12280.00     53588.27
 1245.06        2971.25           1506       10634.00     46391.46
 1245.09        2971.50           1509        9236.00     40281.43
 1245.12        2971.75           1513        7622.00     33230.15
 1245.16        2972.00           1516        6110.00     26627.19
 1245.19        2972.25           1519        4873.00     21227.12
 1245.22        2972.50           1523        3130.00     13621.08
 1245.25        2972.75           1526        1945.00      8452.01
 1245.28        2973.00           1529         880.00      3807.76
 1245.31        2973.25           1533         387.00      1658.32
 1245.34        2973.50           1536         307.00      1309.55
 1245.37        2973.75           1539         239.00      1013.11
 1245.40        2974.00           1543         202.00       851.81
 1245.43        2974.25           1546         160.00       668.71
 1245.46        2974.50           1549         134.00       555.37
 1245.49        2974.75           1553          92.00       372.28
 1245.52        2975.00           1556          68.00       267.66
 1245.56        2975.25           1559          58.00       224.06
 1245.59        2975.50           1563          58.00       224.06
 1245.62        2975.75           1566          48.00       180.47
 1245.65        2976.00           1569          47.00       176.11
 1245.68        2976.25           1573          47.00       176.11
 1245.71        2976.50           1576          56.00       215.35
 1245.74        2976.75           1579          48.00       180.47
 1245.77        2977.00           1583          58.00       224.06
 1245.80        2977.25           1586          57.00       219.71
 1245.83        2977.50           1590          47.00       176.11
 1245.86        2977.75           1593          54.00       206.63
 1245.89        2978.00           1596          51.00       193.55
 1245.92        2978.25           1600          47.00       176.11
 1245.96        2978.50           1603          57.00       219.71
 1245.99        2978.75           1606          52.00       197.91
 1246.02        2979.00           1610          58.00       224.06
 1246.05        2979.25           1613          47.00       176.11
 1246.08        2979.50           1616          54.00       206.63
 1246.11        2979.75           1620          48.00       180.47
 1246.14        2980.00           1623          53.00       202.27
 1246.17        2980.25           1626          57.00       219.71
 1246.20        2980.50           1630          54.00       206.63
 1246.23        2980.75           1633          49.00       184.83
 1246.26        2981.00           1637          46.00       171.75
 1246.29        2981.25           1640          43.00       158.68
 1246.32        2981.50           1643          57.00       219.71
 1246.35        2981.75           1647          40.00       145.60
 1246.38        2982.00           1650          50.00       189.19
 1246.42        2982.25           1653          48.00       180.47
 1246.45        2982.50           1657          57.00       219.71
 1246.48        2982.75           1660          55.00       210.99
 1246.51        2983.00           1663          50.00       189.19
 1246.54        2983.25           1667          49.00       184.83
 1246.57        2983.50           1670          48.00       180.47
 1246.60        2983.75           1673          45.00       167.39
 1246.63        2984.00           1677          44.00       163.03
HS scan finished at 20:46:51
end
