************************************************************
  HS Scan of (1) Internal mercury lamp
************************************************************
Integration time is 0.2294 seconds per sample
dh130818Manchester 53.47 2.23 2.965129pr1000
************************************************************
Dead Time -------------------------  3E-08 
Number of Cycles Used -------------  4 
Starting Wavelength (Angstroms) ---  2950 
Final Wavelength (Angstoms) -------  2984 
Wavelength Increment (Angstroms) --  .25 
Filter Wheel #1 Position ---------- (1) Ground quartz diffuser (ND=2.32)
Filter Wheel #2 Position ---------- (1) Neutral Density 0.494



************************************************************
HS scan start time = 01:41:37
Dark Count =  6.7 


Time (GMT)  Wavelength (Ang)  Step Number  Raw Counts  Counts/Second

  101.98        2950.00           1222          56.00       214.91
  102.05        2950.25           1226          51.00       193.11
  102.08        2950.50           1229          48.00       180.04
  102.11        2950.75           1232          50.00       188.75
  102.14        2951.00           1236          50.00       188.75
  102.17        2951.25           1239          56.00       214.91
  102.20        2951.50           1242          53.00       201.83
  102.23        2951.75           1246          55.00       210.55
  102.26        2952.00           1249          49.00       184.40
  102.29        2952.25           1252          45.00       166.96
  102.32        2952.50           1256          48.00       180.04
  102.36        2952.75           1259          55.00       210.55
  102.39        2953.00           1262          49.00       184.40
  102.42        2953.25           1266          53.00       201.83
  102.45        2953.50           1269          55.00       210.55
  102.48        2953.75           1272          52.00       197.47
  102.51        2954.00           1276          52.00       197.47
  102.54        2954.25           1279          55.00       210.55
  102.57        2954.50           1282          56.00       214.91
  102.60        2954.75           1286          51.00       193.11
  102.64        2955.00           1289          49.00       184.40
  102.67        2955.25           1292          52.00       197.47
  102.70        2955.50           1296          54.00       206.19
  102.73        2955.75           1299          55.00       210.55
  102.76        2956.00           1302          46.00       171.32
  102.79        2956.25           1306          50.00       188.75
  102.82        2956.50           1309          50.00       188.75
  102.85        2956.75           1312          45.00       166.96
  102.88        2957.00           1316          49.00       184.40
  102.91        2957.25           1319          51.00       193.11
  102.94        2957.50           1322          48.00       180.04
  102.98        2957.75           1326          46.00       171.32
  103.01        2958.00           1329          55.00       210.55
  103.04        2958.25           1332          48.00       180.04
  103.07        2958.50           1336          53.00       201.83
  103.10        2958.75           1339          42.00       153.88
  103.13        2959.00           1342          59.00       227.99
  103.16        2959.25           1346          50.00       188.75
  103.19        2959.50           1349          59.00       227.99
  103.22        2959.75           1352          62.00       241.07
  103.25        2960.00           1356          98.00       398.00
  103.29        2960.25           1359         115.00       472.11
  103.32        2960.50           1362         142.00       589.81
  103.35        2960.75           1366         194.00       816.50
  103.38        2961.00           1369         231.00       977.80
  103.41        2961.25           1372         266.00      1130.38
  103.44        2961.50           1376         355.00      1518.38
  103.47        2961.75           1379         541.00      2329.28
  103.50        2962.00           1382        1415.00      6140.19
  103.53        2962.25           1386        3130.00     13620.65
  103.56        2962.50           1389        4451.00     19384.85
  103.59        2962.75           1392        5825.00     25382.44
  103.63        2963.00           1396        7439.00     32430.40
  103.66        2963.25           1399        8854.00     38611.84
  103.69        2963.50           1402       10257.00     44743.11
  103.72        2963.75           1406       12006.00     52389.60
  103.75        2964.00           1409       13533.00     59068.40
  103.78        2964.25           1412       15099.00     65920.56
  103.81        2964.50           1416       16868.00     73664.37
  103.84        2964.75           1419       18346.00     80137.06
  103.87        2965.00           1422       19801.00     86511.52
  103.90        2965.25           1426       21687.00     94777.84
  103.94        2965.50           1429       23102.00    100982.50
  103.97        2965.75           1432       24584.00    107483.40
  104.00        2966.00           1436       26524.00    115997.10
  104.03        2966.25           1439       27622.00    120817.70
  104.06        2966.50           1442       28925.00    126540.10
  104.09        2966.75           1446       30022.00    131359.30
  104.12        2967.00           1449       30200.00    132141.40
  104.15        2967.25           1452       30218.00    132220.50
  104.18        2967.50           1456       30095.00    131680.00
  104.22        2967.75           1459       30171.00    132014.00
  104.25        2968.00           1462       30082.00    131622.90
  104.28        2968.25           1466       29028.00    126992.50
  104.31        2968.50           1469       27716.00    121230.40
  104.34        2968.75           1472       26363.00    115290.40
  104.37        2969.00           1476       24725.00    108102.00
  104.40        2969.25           1479       23439.00    102460.50
  104.43        2969.50           1482       22068.00     96448.24
  104.46        2969.75           1486       20369.00     89000.62
  104.49        2970.00           1489       18977.00     82901.22
  104.53        2970.25           1492       17557.00     76681.44
  104.56        2970.50           1496       15781.00     68905.60
  104.59        2970.75           1499       14259.00     62244.72
  104.62        2971.00           1502       12748.00     55634.63
  104.65        2971.25           1506       10969.00     47855.49
  104.68        2971.50           1509        9642.00     42055.21
  104.71        2971.75           1513        7796.00     33989.74
  104.74        2972.00           1516        6387.00     27836.23
  104.77        2972.25           1519        5094.00     22191.32
  104.81        2972.50           1523        3417.00     14872.81
  104.84        2972.75           1526        2062.00      8961.87
  104.87        2973.00           1529         972.00      4208.47
  104.90        2973.25           1533         409.00      1753.80
  104.93        2973.50           1536         311.00      1326.56
  104.96        2973.75           1539         266.00      1130.38
  104.99        2974.00           1543         206.00       868.81
  105.02        2974.25           1546         176.00       738.03
  105.05        2974.50           1549         118.00       485.19
  105.08        2974.75           1553          95.00       384.92
  105.11        2975.00           1556          62.00       241.07
  105.14        2975.25           1559          57.00       219.27
  105.17        2975.50           1563          62.00       241.07
  105.20        2975.75           1566          52.00       197.47
  105.23        2976.00           1569          47.00       175.68
  105.27        2976.25           1573          53.00       201.83
  105.30        2976.50           1576          61.00       236.71
  105.33        2976.75           1579          50.00       188.75
  105.36        2977.00           1583          48.00       180.04
  105.39        2977.25           1586          61.00       236.71
  105.42        2977.50           1590          47.00       175.68
  105.45        2977.75           1593          55.00       210.55
  105.48        2978.00           1596          48.00       180.04
  105.51        2978.25           1600          41.00       149.52
  105.54        2978.50           1603          48.00       180.04
  105.57        2978.75           1606          50.00       188.75
  105.60        2979.00           1610          58.00       223.63
  105.63        2979.25           1613          55.00       210.55
  105.66        2979.50           1616          48.00       180.04
  105.70        2979.75           1620          46.00       171.32
  105.73        2980.00           1623          45.00       166.96
  105.76        2980.25           1626          49.00       184.40
  105.79        2980.50           1630          46.00       171.32
  105.82        2980.75           1633          55.00       210.55
  105.85        2981.00           1637          47.00       175.68
  105.88        2981.25           1640          49.00       184.40
  105.91        2981.50           1643          52.00       197.47
  105.94        2981.75           1647          60.00       232.35
  105.97        2982.00           1650          48.00       180.04
  106.00        2982.25           1653          49.00       184.40
  106.03        2982.50           1657          47.00       175.68
  106.06        2982.75           1660          46.00       171.32
  106.10        2983.00           1663          47.00       175.68
  106.13        2983.25           1667          52.00       197.47
  106.16        2983.50           1670          47.00       175.68
  106.19        2983.75           1673          45.00       166.96
  106.22        2984.00           1677          41.00       149.52
HS scan finished at 01:46:26
end
************************************************************
  HS Scan of (1) Internal mercury lamp
************************************************************
Integration time is 0.2294 seconds per sample
dh130818Manchester 53.47 2.23 2.911481pr1000
************************************************************
Dead Time -------------------------  3E-08 
Number of Cycles Used -------------  4 
Starting Wavelength (Angstroms) ---  2950 
Final Wavelength (Angstoms) -------  2984 
Wavelength Increment (Angstroms) --  .25 
Filter Wheel #1 Position ---------- (1) Ground quartz diffuser (ND=2.32)
Filter Wheel #2 Position ---------- (1) Neutral Density 0.494



************************************************************
HS scan start time = 20:42:07
Dark Count =  5.1 


Time (GMT)  Wavelength (Ang)  Step Number  Raw Counts  Counts/Second

 1242.48        2950.00           1222          60.00       239.32
 1242.55        2950.25           1226          46.00       178.29
 1242.58        2950.50           1229          57.00       226.24
 1242.61        2950.75           1232          57.00       226.24
 1242.64        2951.00           1236          51.00       200.09
 1242.67        2951.25           1239          57.00       226.24
 1242.70        2951.50           1242          53.00       208.81
 1242.73        2951.75           1246          56.00       221.88
 1242.76        2952.00           1249          62.00       248.04
 1242.79        2952.25           1252          52.00       204.45
 1242.82        2952.50           1256          49.00       191.37
 1242.85        2952.75           1259          53.00       208.81
 1242.88        2953.00           1262          50.00       195.73
 1242.91        2953.25           1266          51.00       200.09
 1242.94        2953.50           1269          44.00       169.57
 1242.97        2953.75           1272          54.00       213.17
 1243.01        2954.00           1276          56.00       221.88
 1243.04        2954.25           1279          54.00       213.17
 1243.07        2954.50           1282          57.00       226.24
 1243.10        2954.75           1286          50.00       195.73
 1243.13        2955.00           1289          49.00       191.37
 1243.16        2955.25           1292          50.00       195.73
 1243.19        2955.50           1296          52.00       204.45
 1243.22        2955.75           1299          56.00       221.88
 1243.25        2956.00           1302          47.00       182.65
 1243.28        2956.25           1306          47.00       182.65
 1243.31        2956.50           1309          44.00       169.57
 1243.34        2956.75           1312          55.00       217.53
 1243.37        2957.00           1316          60.00       239.32
 1243.40        2957.25           1319          51.00       200.09
 1243.43        2957.50           1322          50.00       195.73
 1243.47        2957.75           1326          58.00       230.60
 1243.50        2958.00           1329          51.00       200.09
 1243.53        2958.25           1332          47.00       182.65
 1243.56        2958.50           1336          55.00       217.53
 1243.59        2958.75           1339          46.00       178.29
 1243.62        2959.00           1342          54.00       213.17
 1243.65        2959.25           1346          55.00       217.53
 1243.68        2959.50           1349          66.00       265.48
 1243.71        2959.75           1352          77.00       313.43
 1243.74        2960.00           1356         107.00       444.21
 1243.77        2960.25           1359         143.00       601.14
 1243.81        2960.50           1362         176.00       745.00
 1243.84        2960.75           1366         225.00       958.62
 1243.87        2961.00           1369         252.00      1076.32
 1243.90        2961.25           1372         268.00      1146.07
 1243.93        2961.50           1376         359.00      1542.79
 1243.96        2961.75           1379         514.00      2218.54
 1243.99        2962.00           1382        1132.00      4913.10
 1244.02        2962.25           1386        2728.00     11873.89
 1244.05        2962.50           1389        4093.00     17829.50
 1244.08        2962.75           1392        5313.00     23154.27
 1244.11        2963.00           1396        7110.00     31000.48
 1244.14        2963.25           1399        8421.00     36727.02
 1244.17        2963.50           1402        9698.00     42306.94
 1244.21        2963.75           1406       11472.00     50061.62
 1244.24        2964.00           1409       12870.00     56175.24
 1244.27        2964.25           1412       14346.00     62632.40
 1244.30        2964.50           1416       16145.00     70506.00
 1244.33        2964.75           1419       17503.00     76451.96
 1244.36        2965.00           1422       18807.00     82163.49
 1244.39        2965.25           1426       20767.00     90751.98
 1244.42        2965.50           1429       21960.00     95981.74
 1244.45        2965.75           1432       23549.00    102950.00
 1244.48        2966.00           1436       25263.00    110469.70
 1244.52        2966.25           1439       26540.00    116074.40
 1244.55        2966.50           1442       28165.00    123209.20
 1244.58        2966.75           1446       29149.00    127531.00
 1244.61        2967.00           1449       29469.00    128936.80
 1244.64        2967.25           1452       29417.00    128708.30
 1244.67        2967.50           1456       29507.00    129103.70
 1244.70        2967.75           1459       29600.00    129512.30
 1244.73        2968.00           1462       29577.00    129411.20
 1244.76        2968.25           1466       28419.00    124324.70
 1244.79        2968.50           1469       27279.00    119318.70
 1244.82        2968.75           1472       25970.00    113572.40
 1244.85        2969.00           1476       24262.00    106077.70
 1244.89        2969.25           1479       23016.00    100612.30
 1244.92        2969.50           1482       21655.00     94644.55
 1244.95        2969.75           1486       19819.00     86597.40
 1244.98        2970.00           1489       18465.00     80665.34
 1245.01        2970.25           1492       17028.00     74371.95
 1245.04        2970.50           1496       15383.00     67170.53
 1245.07        2970.75           1499       13981.00     61035.38
 1245.10        2971.00           1502       12647.00     55199.89
 1245.13        2971.25           1506       10844.00     47316.03
 1245.16        2971.50           1509        9340.00     40742.45
 1245.19        2971.75           1513        7618.00     33219.23
 1245.23        2972.00           1516        6198.00     27017.97
 1245.26        2972.25           1519        4900.00     21351.51
 1245.29        2972.50           1523        3029.00     13186.99
 1245.32        2972.75           1526        1865.00      8109.65
 1245.35        2973.00           1529         847.00      3670.41
 1245.38        2973.25           1533         382.00      1643.06
 1245.41        2973.50           1536         280.00      1198.39
 1245.44        2973.75           1539         259.00      1106.84
 1245.47        2974.00           1543         203.00       862.71
 1245.50        2974.25           1546         160.00       675.25
 1245.54        2974.50           1549         126.00       527.04
 1245.57        2974.75           1553          84.00       343.94
 1245.60        2975.00           1556          63.00       252.40
 1245.63        2975.25           1559          54.00       213.17
 1245.66        2975.50           1563          51.00       200.09
 1245.69        2975.75           1566          55.00       217.53
 1245.72        2976.00           1569          58.00       230.60
 1245.75        2976.25           1573          57.00       226.24
 1245.78        2976.50           1576          53.00       208.81
 1245.81        2976.75           1579          48.00       187.01
 1245.84        2977.00           1583          50.00       195.73
 1245.87        2977.25           1586          57.00       226.24
 1245.91        2977.50           1590          49.00       191.37
 1245.94        2977.75           1593          46.00       178.29
 1245.97        2978.00           1596          51.00       200.09
 1246.00        2978.25           1600          47.00       182.65
 1246.03        2978.50           1603          47.00       182.65
 1246.06        2978.75           1606          54.00       213.17
 1246.09        2979.00           1610          51.00       200.09
 1246.12        2979.25           1613          51.00       200.09
 1246.15        2979.50           1616          50.00       195.73
 1246.18        2979.75           1620          55.00       217.53
 1246.22        2980.00           1623          44.00       169.57
 1246.25        2980.25           1626          47.00       182.65
 1246.28        2980.50           1630          48.00       187.01
 1246.31        2980.75           1633          53.00       208.81
 1246.34        2981.00           1637          49.00       191.37
 1246.37        2981.25           1640          48.00       187.01
 1246.40        2981.50           1643          45.00       173.93
 1246.43        2981.75           1647          49.00       191.37
 1246.46        2982.00           1650          49.00       191.37
 1246.49        2982.25           1653          51.00       200.09
 1246.52        2982.50           1657          46.00       178.29
 1246.55        2982.75           1660          46.00       178.29
 1246.58        2983.00           1663          51.00       200.09
 1246.62        2983.25           1667          49.00       191.37
 1246.65        2983.50           1670          43.00       165.21
 1246.68        2983.75           1673          50.00       195.73
 1246.71        2984.00           1677          48.00       187.01
HS scan finished at 20:46:56
end
