************************************************************
  HS Scan of (1) Internal mercury lamp
************************************************************
Integration time is 0.2294 seconds per sample
dh100817Manchester 53.47 2.23 2.804185pr1000
************************************************************
Dead Time -------------------------  3E-08 
Number of Cycles Used -------------  4 
Starting Wavelength (Angstroms) ---  2950 
Final Wavelength (Angstoms) -------  2984 
Wavelength Increment (Angstroms) --  .25 
Filter Wheel #1 Position ---------- (1) Ground quartz diffuser (ND=2.32)
Filter Wheel #2 Position ---------- (1) Neutral Density 0.494



************************************************************
HS scan start time = 01:37:37
Dark Count =  5.3 


Time (GMT)  Wavelength (Ang)  Step Number  Raw Counts  Counts/Second

   97.98        2950.00           1222          93.00       382.31
   98.05        2950.25           1226          86.00       351.79
   98.08        2950.50           1229          89.00       364.87
   98.11        2950.75           1232          87.00       356.15
   98.14        2951.00           1236          94.00       386.67
   98.17        2951.25           1239          86.00       351.79
   98.20        2951.50           1242          84.00       343.07
   98.23        2951.75           1246          84.00       343.07
   98.26        2952.00           1249          85.00       347.43
   98.29        2952.25           1252          88.00       360.51
   98.32        2952.50           1256          82.00       334.35
   98.35        2952.75           1259          92.00       377.95
   98.38        2953.00           1262          89.00       364.87
   98.42        2953.25           1266          89.00       364.87
   98.45        2953.50           1269          94.00       386.67
   98.48        2953.75           1272          87.00       356.15
   98.51        2954.00           1276          90.00       369.23
   98.54        2954.25           1279          89.00       364.87
   98.57        2954.50           1282          92.00       377.95
   98.60        2954.75           1286          88.00       360.51
   98.63        2955.00           1289          78.00       316.92
   98.66        2955.25           1292          83.00       338.71
   98.69        2955.50           1296          81.00       329.99
   98.72        2955.75           1299          82.00       334.35
   98.75        2956.00           1302          90.00       369.23
   98.78        2956.25           1306          78.00       316.92
   98.82        2956.50           1309          81.00       329.99
   98.85        2956.75           1312          83.00       338.71
   98.88        2957.00           1316          90.00       369.23
   98.91        2957.25           1319          85.00       347.43
   98.94        2957.50           1322          86.00       351.79
   98.97        2957.75           1326          90.00       369.23
   99.00        2958.00           1329          91.00       373.59
   99.03        2958.25           1332          87.00       356.15
   99.06        2958.50           1336          82.00       334.35
   99.09        2958.75           1339          81.00       329.99
   99.12        2959.00           1342          88.00       360.51
   99.15        2959.25           1346          88.00       360.51
   99.18        2959.50           1349          92.00       377.95
   99.21        2959.75           1352         113.00       469.49
   99.25        2960.00           1356         141.00       591.55
   99.28        2960.25           1359         175.00       739.77
   99.31        2960.50           1362         220.00       935.95
   99.34        2960.75           1366         257.00      1097.25
   99.37        2961.00           1369         306.00      1310.86
   99.40        2961.25           1372         356.00      1528.84
   99.43        2961.50           1376         431.00      1855.81
   99.46        2961.75           1379         576.00      2487.98
   99.49        2962.00           1382        1063.00      4611.36
   99.52        2962.25           1386        2836.00     12344.15
   99.55        2962.50           1389        4445.00     19364.78
   99.58        2962.75           1392        6007.00     26183.16
   99.62        2963.00           1396        8028.00     35009.29
   99.65        2963.25           1399        9708.00     42349.76
   99.68        2963.50           1402       11439.00     49916.46
   99.71        2963.75           1406       13552.00     59157.65
   99.74        2964.00           1409       15250.00     66587.55
   99.77        2964.25           1412       17030.00     74379.81
   99.80        2964.50           1416       19012.00     83060.69
   99.83        2964.75           1419       20848.00     91106.12
   99.86        2965.00           1422       22539.00     98519.61
   99.90        2965.25           1426       24724.00    108103.70
   99.93        2965.50           1429       26427.00    115577.50
   99.96        2965.75           1432       28037.00    122646.20
   99.99        2966.00           1436       30245.00    132345.30
  100.02        2966.25           1439       31460.00    137684.80
  100.05        2966.50           1442       33110.00    144938.80
  100.08        2966.75           1446       34801.00    152376.30
  100.11        2967.00           1449       35277.00    154470.50
  100.14        2967.25           1452       35578.00    155794.90
  100.17        2967.50           1456       35454.00    155249.30
  100.21        2967.75           1459       35503.00    155464.90
  100.24        2968.00           1462       35394.00    154985.30
  100.27        2968.25           1466       34634.00    151641.70
  100.30        2968.50           1469       33256.00    145580.80
  100.33        2968.75           1472       31885.00    139552.90
  100.36        2969.00           1476       29625.00    129621.20
  100.39        2969.25           1479       27969.00    122347.60
  100.42        2969.50           1482       26321.00    115112.20
  100.45        2969.75           1486       24111.00    105414.40
  100.48        2970.00           1489       22657.00     99037.06
  100.52        2970.25           1492       21008.00     91807.43
  100.55        2970.50           1496       19039.00     83178.97
  100.58        2970.75           1499       17367.00     75855.51
  100.61        2971.00           1502       15625.00     68228.88
  100.64        2971.25           1506       13360.00     58317.72
  100.67        2971.50           1509       11642.00     50804.05
  100.70        2971.75           1513        9542.00     41624.31
  100.73        2972.00           1516        7978.00     34790.87
  100.76        2972.25           1519        6324.00     27567.25
  100.79        2972.50           1523        4322.00     18827.99
  100.82        2972.75           1526        2723.00     11851.21
  100.85        2973.00           1529        1367.00      5936.98
  100.88        2973.25           1533         521.00      2248.19
  100.92        2973.50           1536         364.00      1563.72
  100.95        2973.75           1539         329.00      1411.13
  100.98        2974.00           1543         256.00      1092.89
  101.01        2974.25           1546         191.00       809.52
  101.04        2974.50           1549         151.00       635.15
  101.07        2974.75           1553         113.00       469.49
  101.10        2975.00           1556         101.00       417.18
  101.13        2975.25           1559          88.00       360.51
  101.16        2975.50           1563          76.00       308.20
  101.19        2975.75           1566          90.00       369.23
  101.22        2976.00           1569          80.00       325.64
  101.25        2976.25           1573          90.00       369.23
  101.28        2976.50           1576          74.00       299.48
  101.32        2976.75           1579          88.00       360.51
  101.35        2977.00           1583          83.00       338.71
  101.38        2977.25           1586          75.00       303.84
  101.41        2977.50           1590          78.00       316.92
  101.44        2977.75           1593          79.00       321.28
  101.47        2978.00           1596          86.00       351.79
  101.50        2978.25           1600          81.00       329.99
  101.53        2978.50           1603          85.00       347.43
  101.56        2978.75           1606          77.00       312.56
  101.59        2979.00           1610          76.00       308.20
  101.62        2979.25           1613          81.00       329.99
  101.66        2979.50           1616          76.00       308.20
  101.69        2979.75           1620          73.00       295.12
  101.72        2980.00           1623          82.00       334.35
  101.75        2980.25           1626          80.00       325.64
  101.78        2980.50           1630          79.00       321.28
  101.81        2980.75           1633          81.00       329.99
  101.84        2981.00           1637          72.00       290.76
  101.87        2981.25           1640          77.00       312.56
  101.90        2981.50           1643          79.00       321.28
  101.93        2981.75           1647          75.00       303.84
  101.96        2982.00           1650          79.00       321.28
  101.99        2982.25           1653          78.00       316.92
  102.03        2982.50           1657          71.00       286.40
  102.06        2982.75           1660          67.00       268.96
  102.09        2983.00           1663          75.00       303.84
  102.12        2983.25           1667          80.00       325.64
  102.15        2983.50           1670          72.00       290.76
  102.18        2983.75           1673          74.00       299.48
  102.21        2984.00           1677          69.00       277.68
HS scan finished at 01:42:26
end
************************************************************
  HS Scan of (1) Internal mercury lamp
************************************************************
Integration time is 0.2294 seconds per sample
dh100817Manchester 53.47 2.23 2.857833pr1000
************************************************************
Dead Time -------------------------  3E-08 
Number of Cycles Used -------------  4 
Starting Wavelength (Angstroms) ---  2950 
Final Wavelength (Angstoms) -------  2984 
Wavelength Increment (Angstroms) --  .25 
Filter Wheel #1 Position ---------- (1) Ground quartz diffuser (ND=2.32)
Filter Wheel #2 Position ---------- (1) Neutral Density 0.494



************************************************************
HS scan start time = 20:42:00
Dark Count =  5.4 


Time (GMT)  Wavelength (Ang)  Step Number  Raw Counts  Counts/Second

 1242.36        2950.00           1222          91.00       373.15
 1242.43        2950.25           1226         102.00       421.10
 1242.46        2950.50           1229          93.00       381.87
 1242.49        2950.75           1232          87.00       355.71
 1242.52        2951.00           1236          91.00       373.15
 1242.55        2951.25           1239          82.00       333.92
 1242.58        2951.50           1242          84.00       342.64
 1242.61        2951.75           1246          89.00       364.43
 1242.64        2952.00           1249          83.00       338.28
 1242.68        2952.25           1252          91.00       373.15
 1242.71        2952.50           1256          82.00       333.92
 1242.74        2952.75           1259          87.00       355.71
 1242.77        2953.00           1262          92.00       377.51
 1242.80        2953.25           1266          85.00       347.00
 1242.83        2953.50           1269          87.00       355.71
 1242.86        2953.75           1272          85.00       347.00
 1242.89        2954.00           1276          80.00       325.20
 1242.92        2954.25           1279          90.00       368.79
 1242.95        2954.50           1282          96.00       394.95
 1242.98        2954.75           1286          93.00       381.87
 1243.01        2955.00           1289          83.00       338.28
 1243.04        2955.25           1292          84.00       342.64
 1243.07        2955.50           1296          91.00       373.15
 1243.10        2955.75           1299          90.00       368.79
 1243.14        2956.00           1302          87.00       355.71
 1243.17        2956.25           1306          90.00       368.79
 1243.20        2956.50           1309          82.00       333.92
 1243.23        2956.75           1312          84.00       342.64
 1243.26        2957.00           1316          81.00       329.56
 1243.29        2957.25           1319          85.00       347.00
 1243.32        2957.50           1322          87.00       355.71
 1243.35        2957.75           1326          83.00       338.28
 1243.38        2958.00           1329          86.00       351.36
 1243.41        2958.25           1332          94.00       386.23
 1243.44        2958.50           1336          94.00       386.23
 1243.47        2958.75           1339          85.00       347.00
 1243.50        2959.00           1342          89.00       364.43
 1243.53        2959.25           1346          89.00       364.43
 1243.57        2959.50           1349          91.00       373.15
 1243.60        2959.75           1352         121.00       503.93
 1243.63        2960.00           1356         138.00       578.04
 1243.66        2960.25           1359         171.00       721.90
 1243.69        2960.50           1362         206.00       874.48
 1243.72        2960.75           1366         240.00      1022.70
 1243.75        2961.00           1369         322.00      1380.18
 1243.78        2961.25           1372         346.00      1484.81
 1243.81        2961.50           1376         442.00      1903.33
 1243.84        2961.75           1379         630.00      2722.98
 1243.87        2962.00           1382        1298.00      5635.65
 1243.90        2962.25           1386        3050.00     13277.30
 1243.93        2962.50           1389        4591.00     20001.54
 1243.96        2962.75           1392        6088.00     26536.38
 1244.00        2963.00           1396        8125.00     35432.59
 1244.03        2963.25           1399        9713.00     42371.17
 1244.06        2963.50           1402       11553.00     50414.47
 1244.09        2963.75           1406       13851.00     60465.29
 1244.12        2964.00           1409       15711.00     68604.88
 1244.15        2964.25           1412       17479.00     76345.54
 1244.18        2964.50           1416       19619.00     85719.72
 1244.21        2964.75           1419       21296.00     93069.43
 1244.24        2965.00           1422       23085.00    100913.60
 1244.27        2965.25           1426       25116.00    109823.30
 1244.30        2965.50           1429       26796.00    117196.90
 1244.34        2965.75           1432       28590.00    125074.40
 1244.37        2966.00           1436       30747.00    134550.70
 1244.40        2966.25           1439       32166.00    140787.80
 1244.43        2966.50           1442       33741.00    147713.30
 1244.46        2966.75           1446       35417.00    155086.10
 1244.49        2967.00           1449       35694.00    156304.90
 1244.52        2967.25           1452       35844.00    156965.00
 1244.55        2967.50           1456       35588.00    155838.50
 1244.58        2967.75           1459       35746.00    156533.70
 1244.62        2968.00           1462       35201.00    154135.70
 1244.65        2968.25           1466       34244.00    149925.70
 1244.68        2968.50           1469       32783.00    143500.50
 1244.71        2968.75           1472       31652.00    138528.30
 1244.74        2969.00           1476       29350.00    128412.70
 1244.77        2969.25           1479       27585.00    120660.90
 1244.80        2969.50           1482       25854.00    113062.00
 1244.83        2969.75           1486       23674.00    103497.00
 1244.86        2970.00           1489       21920.00     95805.05
 1244.89        2970.25           1492       20398.00     89133.41
 1244.93        2970.50           1496       18347.00     80147.15
 1244.96        2970.75           1499       16595.00     72474.76
 1244.99        2971.00           1502       15085.00     65864.98
 1245.02        2971.25           1506       13073.00     57061.85
 1245.05        2971.50           1509       11359.00     49566.24
 1245.08        2971.75           1513        9266.00     40417.77
 1245.11        2972.00           1516        7600.00     33139.30
 1245.14        2972.25           1519        6052.00     26379.20
 1245.17        2972.50           1523        3918.00     17064.53
 1245.20        2972.75           1526        2348.00     10214.99
 1245.23        2973.00           1529        1027.00      4453.95
 1245.27        2973.25           1533         456.00      1964.37
 1245.30        2973.50           1536         350.00      1502.25
 1245.33        2973.75           1539         300.00      1284.27
 1245.36        2974.00           1543         262.00      1118.61
 1245.39        2974.25           1546         194.00       822.17
 1245.42        2974.50           1549         156.00       656.51
 1245.45        2974.75           1553         113.00       469.06
 1245.48        2975.00           1556         103.00       425.46
 1245.51        2975.25           1559          93.00       381.87
 1245.54        2975.50           1563          81.00       329.56
 1245.57        2975.75           1566          86.00       351.36
 1245.60        2976.00           1569          93.00       381.87
 1245.63        2976.25           1573          76.00       307.76
 1245.67        2976.50           1576          83.00       338.28
 1245.70        2976.75           1579          77.00       312.12
 1245.73        2977.00           1583          77.00       312.12
 1245.76        2977.25           1586          86.00       351.36
 1245.79        2977.50           1590          78.00       316.48
 1245.82        2977.75           1593          86.00       351.36
 1245.85        2978.00           1596          84.00       342.64
 1245.88        2978.25           1600          78.00       316.48
 1245.91        2978.50           1603          82.00       333.92
 1245.94        2978.75           1606          78.00       316.48
 1245.97        2979.00           1610          70.00       281.61
 1246.00        2979.25           1613          87.00       355.71
 1246.03        2979.50           1616          70.00       281.61
 1246.06        2979.75           1620          79.00       320.84
 1246.10        2980.00           1623          85.00       347.00
 1246.13        2980.25           1626          78.00       316.48
 1246.16        2980.50           1630          79.00       320.84
 1246.19        2980.75           1633          76.00       307.76
 1246.22        2981.00           1637          78.00       316.48
 1246.25        2981.25           1640          75.00       303.40
 1246.28        2981.50           1643          78.00       316.48
 1246.31        2981.75           1647          81.00       329.56
 1246.34        2982.00           1650          83.00       338.28
 1246.37        2982.25           1653          78.00       316.48
 1246.40        2982.50           1657          71.00       285.97
 1246.43        2982.75           1660          65.00       259.81
 1246.46        2983.00           1663          77.00       312.12
 1246.50        2983.25           1667          76.00       307.76
 1246.53        2983.50           1670          76.00       307.76
 1246.56        2983.75           1673          73.00       294.68
 1246.59        2984.00           1677          74.00       299.04
HS scan finished at 20:46:48
end
