************************************************************
  HS Scan of (1) Internal mercury lamp
************************************************************
Integration time is 0.2294 seconds per sample
dh080817Manchester 53.47 2.23 2.857833pr1000
************************************************************
Dead Time -------------------------  3E-08 
Number of Cycles Used -------------  4 
Starting Wavelength (Angstroms) ---  2950 
Final Wavelength (Angstoms) -------  2984 
Wavelength Increment (Angstroms) --  .25 
Filter Wheel #1 Position ---------- (1) Ground quartz diffuser (ND=2.32)
Filter Wheel #2 Position ---------- (1) Neutral Density 0.494



************************************************************
HS scan start time = 01:43:05
Dark Count =  5 


Time (GMT)  Wavelength (Ang)  Step Number  Raw Counts  Counts/Second

  103.44        2950.00           1222          91.00       374.90
  103.51        2950.25           1226          84.00       344.38
  103.54        2950.50           1229          81.00       331.30
  103.57        2950.75           1232         106.00       440.28
  103.60        2951.00           1236          79.00       322.58
  103.63        2951.25           1239          85.00       348.74
  103.66        2951.50           1242          83.00       340.02
  103.69        2951.75           1246          91.00       374.90
  103.73        2952.00           1249          87.00       357.46
  103.76        2952.25           1252          83.00       340.02
  103.79        2952.50           1256          86.00       353.10
  103.82        2952.75           1259          91.00       374.90
  103.85        2953.00           1262          90.00       370.54
  103.88        2953.25           1266          86.00       353.10
  103.91        2953.50           1269          84.00       344.38
  103.94        2953.75           1272          83.00       340.02
  103.97        2954.00           1276          78.00       318.22
  104.00        2954.25           1279          82.00       335.66
  104.03        2954.50           1282          87.00       357.46
  104.07        2954.75           1286          84.00       344.38
  104.10        2955.00           1289          81.00       331.30
  104.13        2955.25           1292          87.00       357.46
  104.16        2955.50           1296          88.00       361.82
  104.19        2955.75           1299          92.00       379.25
  104.22        2956.00           1302          84.00       344.38
  104.25        2956.25           1306          85.00       348.74
  104.28        2956.50           1309          87.00       357.46
  104.31        2956.75           1312          99.00       409.77
  104.35        2957.00           1316          90.00       370.54
  104.38        2957.25           1319          89.00       366.18
  104.41        2957.50           1322          88.00       361.82
  104.44        2957.75           1326          83.00       340.02
  104.47        2958.00           1329          94.00       387.97
  104.50        2958.25           1332          91.00       374.90
  104.53        2958.50           1336          88.00       361.82
  104.56        2958.75           1339          90.00       370.54
  104.59        2959.00           1342          83.00       340.02
  104.62        2959.25           1346          86.00       353.10
  104.65        2959.50           1349         100.00       414.13
  104.68        2959.75           1352         123.00       514.39
  104.71        2960.00           1356         151.00       636.46
  104.74        2960.25           1359         188.00       797.75
  104.78        2960.50           1362         240.00      1024.44
  104.81        2960.75           1366         295.00      1264.22
  104.84        2961.00           1369         329.00      1412.44
  104.87        2961.25           1372         375.00      1612.98
  104.90        2961.50           1376         477.00      2057.67
  104.93        2961.75           1379         709.00      3069.16
  104.96        2962.00           1382        1558.00      6771.21
  104.99        2962.25           1386        3536.00     15399.44
  105.02        2962.50           1389        5171.00     22534.85
  105.05        2962.75           1392        7003.00     30533.63
  105.09        2963.00           1396        9260.00     40393.30
  105.12        2963.25           1399       10873.00     47443.24
  105.15        2963.50           1402       12660.00     55257.17
  105.18        2963.75           1406       14990.00     65450.97
  105.21        2964.00           1409       16632.00     72638.50
  105.24        2964.25           1412       18439.00     80551.88
  105.27        2964.50           1416       20788.00     90844.46
  105.30        2964.75           1419       22354.00     97709.72
  105.33        2965.00           1422       24339.00    106415.90
  105.36        2965.25           1426       26609.00    116377.70
  105.39        2965.50           1429       28531.00    124817.00
  105.43        2965.75           1432       30383.00    132953.00
  105.46        2966.00           1436       32384.00    141748.00
  105.49        2966.25           1439       33938.00    148581.50
  105.52        2966.50           1442       35472.00    155329.80
  105.55        2966.75           1446       36955.00    161856.40
  105.58        2967.00           1449       37164.00    162776.40
  105.61        2967.25           1452       37372.00    163692.10
  105.64        2967.50           1456       37304.00    163392.70
  105.67        2967.75           1459       37287.00    163317.90
  105.70        2968.00           1462       36745.00    160932.10
  105.73        2968.25           1466       35641.00    156073.40
  105.77        2968.50           1469       33862.00    148247.20
  105.80        2968.75           1472       32396.00    141800.70
  105.83        2969.00           1476       30083.00    131634.80
  105.86        2969.25           1479       28366.00    124092.30
  105.89        2969.50           1482       26687.00    116720.10
  105.92        2969.75           1486       24485.00    107056.50
  105.95        2970.00           1489       22747.00     99433.04
  105.98        2970.25           1492       21040.00     91949.02
  106.01        2970.50           1496       19044.00     83202.20
  106.04        2970.75           1499       17324.00     75668.53
  106.07        2971.00           1502       15657.00     68370.26
  106.11        2971.25           1506       13234.00     57767.86
  106.14        2971.50           1509       11628.00     50744.15
  106.17        2971.75           1513        9352.00     40795.33
  106.20        2972.00           1516        7678.00     33481.74
  106.23        2972.25           1519        5942.00     25900.68
  106.26        2972.50           1523        3800.00     16551.37
  106.29        2972.75           1526        2290.00      9963.75
  106.32        2973.00           1529        1016.00      4407.73
  106.35        2973.25           1533         493.00      2127.42
  106.38        2973.50           1536         363.00      1560.67
  106.41        2973.75           1539         313.00      1342.69
  106.45        2974.00           1543         249.00      1063.68
  106.48        2974.25           1546         197.00       836.99
  106.51        2974.50           1549         159.00       671.33
  106.54        2974.75           1553         114.00       475.16
  106.57        2975.00           1556         101.00       418.49
  106.60        2975.25           1559          86.00       353.10
  106.63        2975.50           1563          78.00       318.22
  106.66        2975.75           1566          79.00       322.58
  106.69        2976.00           1569          84.00       344.38
  106.73        2976.25           1573          78.00       318.22
  106.76        2976.50           1576          82.00       335.66
  106.79        2976.75           1579          88.00       361.82
  106.82        2977.00           1583          79.00       322.58
  106.85        2977.25           1586          85.00       348.74
  106.88        2977.50           1590          85.00       348.74
  106.91        2977.75           1593          80.00       326.94
  106.94        2978.00           1596          82.00       335.66
  106.97        2978.25           1600          81.00       331.30
  107.00        2978.50           1603          91.00       374.90
  107.03        2978.75           1606          84.00       344.38
  107.07        2979.00           1610          80.00       326.94
  107.10        2979.25           1613          66.00       265.91
  107.13        2979.50           1616          70.00       283.35
  107.16        2979.75           1620          74.00       300.79
  107.19        2980.00           1623          76.00       309.51
  107.22        2980.25           1626          72.00       292.07
  107.25        2980.50           1630          79.00       322.58
  107.28        2980.75           1633          79.00       322.58
  107.31        2981.00           1637          79.00       322.58
  107.34        2981.25           1640          78.00       318.22
  107.37        2981.50           1643          77.00       313.87
  107.40        2981.75           1647          78.00       318.22
  107.44        2982.00           1650          77.00       313.87
  107.47        2982.25           1653          83.00       340.02
  107.50        2982.50           1657          78.00       318.22
  107.53        2982.75           1660          79.00       322.58
  107.56        2983.00           1663          73.00       296.43
  107.59        2983.25           1667          74.00       300.79
  107.62        2983.50           1670          83.00       340.02
  107.65        2983.75           1673          72.00       292.07
  107.68        2984.00           1677          77.00       313.87
HS scan finished at 01:47:54
end
************************************************************
  HS Scan of (1) Internal mercury lamp
************************************************************
Integration time is 0.2294 seconds per sample
dh080817Manchester 53.47 2.23 2.804185pr1000
************************************************************
Dead Time -------------------------  3E-08 
Number of Cycles Used -------------  4 
Starting Wavelength (Angstroms) ---  2950 
Final Wavelength (Angstoms) -------  2984 
Wavelength Increment (Angstroms) --  .25 
Filter Wheel #1 Position ---------- (1) Ground quartz diffuser (ND=2.32)
Filter Wheel #2 Position ---------- (1) Neutral Density 0.494



************************************************************
HS scan start time = 20:42:03
Dark Count =  7 


Time (GMT)  Wavelength (Ang)  Step Number  Raw Counts  Counts/Second

 1242.42        2950.00           1222          86.00       344.38
 1242.49        2950.25           1226          94.00       379.25
 1242.52        2950.50           1229          93.00       374.90
 1242.55        2950.75           1232          89.00       357.46
 1242.58        2951.00           1236          96.00       387.97
 1242.61        2951.25           1239          90.00       361.82
 1242.64        2951.50           1242         101.00       409.77
 1242.67        2951.75           1246          85.00       340.02
 1242.70        2952.00           1249          86.00       344.38
 1242.73        2952.25           1252          87.00       348.74
 1242.77        2952.50           1256          88.00       353.10
 1242.80        2952.75           1259          92.00       370.54
 1242.83        2953.00           1262          87.00       348.74
 1242.86        2953.25           1266          87.00       348.74
 1242.89        2953.50           1269          94.00       379.25
 1242.92        2953.75           1272          85.00       340.02
 1242.95        2954.00           1276          90.00       361.82
 1242.98        2954.25           1279          95.00       383.61
 1243.01        2954.50           1282          86.00       344.38
 1243.05        2954.75           1286          92.00       370.54
 1243.08        2955.00           1289          85.00       340.02
 1243.11        2955.25           1292         100.00       405.41
 1243.14        2955.50           1296          87.00       348.74
 1243.17        2955.75           1299          98.00       396.69
 1243.20        2956.00           1302          74.00       292.07
 1243.23        2956.25           1306          84.00       335.66
 1243.26        2956.50           1309          88.00       353.10
 1243.29        2956.75           1312          83.00       331.30
 1243.32        2957.00           1316          87.00       348.74
 1243.35        2957.25           1319          88.00       353.10
 1243.38        2957.50           1322          88.00       353.10
 1243.42        2957.75           1326          84.00       335.66
 1243.45        2958.00           1329          89.00       357.46
 1243.48        2958.25           1332          89.00       357.46
 1243.51        2958.50           1336          87.00       348.74
 1243.54        2958.75           1339          84.00       335.66
 1243.57        2959.00           1342          88.00       353.10
 1243.60        2959.25           1346          83.00       331.30
 1243.63        2959.50           1349          99.00       401.05
 1243.66        2959.75           1352         119.00       488.24
 1243.69        2960.00           1356         153.00       636.46
 1243.72        2960.25           1359         170.00       710.56
 1243.75        2960.50           1362         206.00       867.50
 1243.78        2960.75           1366         285.00      1211.90
 1243.82        2961.00           1369         301.00      1281.65
 1243.85        2961.25           1372         389.00      1665.30
 1243.88        2961.50           1376         477.00      2048.95
 1243.91        2961.75           1379         740.00      3195.60
 1243.94        2962.00           1382        1561.00      6775.57
 1243.97        2962.25           1386        3437.00     14958.76
 1244.00        2962.50           1389        5059.00     22037.23
 1244.03        2962.75           1392        6601.00     28769.37
 1244.06        2963.00           1396        8586.00     37439.59
 1244.09        2963.25           1399       10232.00     44632.53
 1244.13        2963.50           1402       11923.00     52025.34
 1244.16        2963.75           1406       13991.00     61070.81
 1244.19        2964.00           1409       15931.00     69560.88
 1244.22        2964.25           1412       18004.00     78637.78
 1244.25        2964.50           1416       20166.00     88109.66
 1244.28        2964.75           1419       21846.00     95473.59
 1244.31        2965.00           1422       23230.00    101542.50
 1244.34        2965.25           1426       25530.00    111633.00
 1244.37        2965.50           1429       27164.00    118805.40
 1244.41        2965.75           1432       28967.00    126723.20
 1244.44        2966.00           1436       30913.00    135273.20
 1244.47        2966.25           1439       32422.00    141906.30
 1244.50        2966.50           1442       33947.00    148612.30
 1244.53        2966.75           1446       35322.00    154661.00
 1244.56        2967.00           1449       35524.00    155549.80
 1244.59        2967.25           1452       35538.00    155611.40
 1244.62        2967.50           1456       35698.00    156315.50
 1244.65        2967.75           1459       35563.00    155721.40
 1244.68        2968.00           1462       35324.00    154669.80
 1244.72        2968.25           1466       34150.00    149505.20
 1244.75        2968.50           1469       32787.00    143511.10
 1244.78        2968.75           1472       31207.00    136565.40
 1244.81        2969.00           1476       29050.00    127087.80
 1244.84        2969.25           1479       27517.00    120355.30
 1244.87        2969.50           1482       25953.00    113489.50
 1244.90        2969.75           1486       23819.00    104126.00
 1244.93        2970.00           1489       21971.00     96021.62
 1244.96        2970.25           1492       20538.00     89739.97
 1244.99        2970.50           1496       18358.00     80188.31
 1245.03        2970.75           1499       16664.00     72769.85
 1245.06        2971.00           1502       15058.00     65739.81
 1245.09        2971.25           1506       12730.00     55554.59
 1245.12        2971.50           1509       11152.00     48654.23
 1245.15        2971.75           1513        9045.00     39445.09
 1245.18        2972.00           1516        7525.00     32804.72
 1245.21        2972.25           1519        5860.00     25533.94
 1245.24        2972.50           1523        3791.00     16503.37
 1245.27        2972.75           1526        2283.00      9924.49
 1245.31        2973.00           1529         987.00      4272.56
 1245.34        2973.25           1533         446.00      1913.80
 1245.37        2973.50           1536         344.00      1469.11
 1245.40        2973.75           1539         317.00      1351.41
 1245.43        2974.00           1543         277.00      1177.03
 1245.46        2974.25           1546         221.00       932.89
 1245.49        2974.50           1549         173.00       723.64
 1245.52        2974.75           1553         121.00       496.96
 1245.55        2975.00           1556          90.00       361.82
 1245.58        2975.25           1559          90.00       361.82
 1245.61        2975.50           1563          87.00       348.74
 1245.64        2975.75           1566          83.00       331.30
 1245.68        2976.00           1569          83.00       331.30
 1245.71        2976.25           1573          77.00       305.15
 1245.74        2976.50           1576          77.00       305.15
 1245.77        2976.75           1579          86.00       344.38
 1245.80        2977.00           1583          84.00       335.66
 1245.83        2977.25           1586          80.00       318.22
 1245.86        2977.50           1590          80.00       318.22
 1245.89        2977.75           1593          83.00       331.30
 1245.92        2978.00           1596          76.00       300.79
 1245.95        2978.25           1600          81.00       322.58
 1245.98        2978.50           1603          82.00       326.94
 1246.01        2978.75           1606          70.00       274.63
 1246.05        2979.00           1610          85.00       340.02
 1246.08        2979.25           1613          81.00       322.58
 1246.11        2979.50           1616          77.00       305.15
 1246.14        2979.75           1620          89.00       357.46
 1246.17        2980.00           1623          78.00       309.51
 1246.20        2980.25           1626          79.00       313.87
 1246.23        2980.50           1630          80.00       318.22
 1246.26        2980.75           1633          83.00       331.30
 1246.29        2981.00           1637          80.00       318.22
 1246.32        2981.25           1640          73.00       287.71
 1246.35        2981.50           1643          79.00       313.87
 1246.38        2981.75           1647          87.00       348.74
 1246.41        2982.00           1650          78.00       309.51
 1246.45        2982.25           1653          79.00       313.87
 1246.48        2982.50           1657          85.00       340.02
 1246.51        2982.75           1660          73.00       287.71
 1246.54        2983.00           1663          86.00       344.38
 1246.57        2983.25           1667          77.00       305.15
 1246.60        2983.50           1670          79.00       313.87
 1246.63        2983.75           1673          76.00       300.79
 1246.66        2984.00           1677          79.00       313.87
HS scan finished at 20:46:53
end
