************************************************************
  HS Scan of (1) Internal mercury lamp
************************************************************
Integration time is 0.2294 seconds per sample
dh170818Manchester 53.47 2.23 2.804185pr1000
************************************************************
Dead Time -------------------------  3E-08 
Number of Cycles Used -------------  4 
Starting Wavelength (Angstroms) ---  2950 
Final Wavelength (Angstoms) -------  2984 
Wavelength Increment (Angstroms) --  .25 
Filter Wheel #1 Position ---------- (1) Ground quartz diffuser (ND=2.32)
Filter Wheel #2 Position ---------- (1) Neutral Density 0.494



************************************************************
HS scan start time = 01:36:46
Dark Count =  9.2 


Time (GMT)  Wavelength (Ang)  Step Number  Raw Counts  Counts/Second

   97.14        2950.00           1222          55.00       199.65
   97.20        2950.25           1226          55.00       199.65
   97.23        2950.50           1229          56.00       204.01
   97.26        2950.75           1232          52.00       186.57
   97.29        2951.00           1236          44.00       151.70
   97.33        2951.25           1239          50.00       177.86
   97.36        2951.50           1242          60.00       221.45
   97.39        2951.75           1246          54.00       195.29
   97.42        2952.00           1249          56.00       204.01
   97.45        2952.25           1252          50.00       177.86
   97.48        2952.50           1256          60.00       221.45
   97.51        2952.75           1259          57.00       208.37
   97.54        2953.00           1262          52.00       186.57
   97.57        2953.25           1266          51.00       182.22
   97.60        2953.50           1269          50.00       177.86
   97.63        2953.75           1272          58.00       212.73
   97.67        2954.00           1276          48.00       169.14
   97.70        2954.25           1279          60.00       221.45
   97.73        2954.50           1282          55.00       199.65
   97.76        2954.75           1286          55.00       199.65
   97.79        2955.00           1289          53.00       190.93
   97.82        2955.25           1292          54.00       195.29
   97.85        2955.50           1296          60.00       221.45
   97.88        2955.75           1299          50.00       177.86
   97.91        2956.00           1302          47.00       164.78
   97.94        2956.25           1306          52.00       186.57
   97.97        2956.50           1309          55.00       199.65
   98.00        2956.75           1312          48.00       169.14
   98.03        2957.00           1316          54.00       195.29
   98.06        2957.25           1319          56.00       204.01
   98.10        2957.50           1322          52.00       186.57
   98.13        2957.75           1326          53.00       190.93
   98.16        2958.00           1329          54.00       195.29
   98.19        2958.25           1332          52.00       186.57
   98.22        2958.50           1336          48.00       169.14
   98.25        2958.75           1339          49.00       173.50
   98.28        2959.00           1342          51.00       182.22
   98.31        2959.25           1346          58.00       212.73
   98.34        2959.50           1349          61.00       225.81
   98.37        2959.75           1352          69.00       260.68
   98.40        2960.00           1356          94.00       369.66
   98.44        2960.25           1359         120.00       483.01
   98.47        2960.50           1362         154.00       631.22
   98.50        2960.75           1366         198.00       823.04
   98.53        2961.00           1369         231.00       966.90
   98.56        2961.25           1372         266.00      1119.48
   98.59        2961.50           1376         335.00      1420.29
   98.62        2961.75           1379         443.00      1891.13
   98.65        2962.00           1382         945.00      4079.84
   98.68        2962.25           1386        2372.00     10303.10
   98.71        2962.50           1389        3537.00     15385.48
   98.74        2962.75           1392        4819.00     20980.07
   98.77        2963.00           1396        6451.00     28104.77
   98.80        2963.25           1399        7836.00     34153.54
   98.84        2963.50           1402        9162.00     39946.71
   98.87        2963.75           1406       10894.00     47516.68
   98.90        2964.00           1409       12293.00     53633.74
   98.93        2964.25           1412       13623.00     59451.19
   98.96        2964.50           1416       15360.00     67051.93
   98.99        2964.75           1419       16607.00     72510.66
   99.02        2965.00           1422       17900.00     78172.66
   99.05        2965.25           1426       19622.00     85716.22
   99.08        2965.50           1429       21024.00     91860.48
   99.11        2965.75           1432       22382.00     97814.08
   99.15        2966.00           1436       24067.00    105204.20
   99.18        2966.25           1439       25389.00    111004.60
   99.21        2966.50           1442       26481.00    115797.40
   99.24        2966.75           1446       27749.00    121364.40
   99.27        2967.00           1449       28055.00    122708.10
   99.30        2967.25           1452       28105.00    122927.70
   99.33        2967.50           1456       28110.00    122949.60
   99.36        2967.75           1459       28067.00    122760.80
   99.39        2968.00           1462       28160.00    123169.20
   99.42        2968.25           1466       27320.00    119480.70
   99.45        2968.50           1469       26399.00    115437.50
   99.49        2968.75           1472       25129.00    109863.70
   99.52        2969.00           1476       23350.00    102059.20
   99.55        2969.25           1479       21955.00     95941.84
   99.58        2969.50           1482       20829.00     91005.76
   99.61        2969.75           1486       19182.00     83788.40
   99.64        2970.00           1489       17729.00     77423.75
   99.67        2970.25           1492       16550.00     72261.11
   99.70        2970.50           1496       15023.00     65577.01
   99.73        2970.75           1499       13599.00     59346.19
   99.77        2971.00           1502       12371.00     53974.86
   99.80        2971.25           1506       10569.00     46095.96
   99.83        2971.50           1509        9227.00     40230.74
   99.86        2971.75           1513        7458.00     32502.47
   99.89        2972.00           1516        6284.00     27375.57
   99.92        2972.25           1519        4959.00     21591.14
   99.95        2972.50           1523        3349.00     14565.21
   99.98        2972.75           1526        2114.00      9177.77
  100.01        2973.00           1529         978.00      4223.73
  100.04        2973.25           1533         408.00      1738.54
  100.08        2973.50           1536         299.00      1263.34
  100.11        2973.75           1539         249.00      1045.37
  100.14        2974.00           1543         230.00       962.54
  100.17        2974.25           1546         159.00       653.02
  100.20        2974.50           1549         125.00       504.80
  100.23        2974.75           1553          88.00       343.51
  100.26        2975.00           1556          74.00       282.48
  100.29        2975.25           1559          50.00       177.86
  100.32        2975.50           1563          53.00       190.93
  100.35        2975.75           1566          47.00       164.78
  100.39        2976.00           1569          50.00       177.86
  100.42        2976.25           1573          48.00       169.14
  100.45        2976.50           1576          52.00       186.57
  100.48        2976.75           1579          51.00       182.22
  100.51        2977.00           1583          47.00       164.78
  100.54        2977.25           1586          51.00       182.22
  100.57        2977.50           1590          48.00       169.14
  100.60        2977.75           1593          52.00       186.57
  100.63        2978.00           1596          53.00       190.93
  100.66        2978.25           1600          48.00       169.14
  100.69        2978.50           1603          41.00       138.62
  100.72        2978.75           1606          50.00       177.86
  100.76        2979.00           1610          43.00       147.34
  100.79        2979.25           1613          47.00       164.78
  100.82        2979.50           1616          44.00       151.70
  100.85        2979.75           1620          50.00       177.86
  100.88        2980.00           1623          43.00       147.34
  100.91        2980.25           1626          45.00       156.06
  100.94        2980.50           1630          49.00       173.50
  100.97        2980.75           1633          53.00       190.93
  101.00        2981.00           1637          45.00       156.06
  101.03        2981.25           1640          51.00       182.22
  101.07        2981.50           1643          48.00       169.14
  101.10        2981.75           1647          55.00       199.65
  101.13        2982.00           1650          43.00       147.34
  101.16        2982.25           1653          48.00       169.14
  101.19        2982.50           1657          51.00       182.22
  101.22        2982.75           1660          44.00       151.70
  101.25        2983.00           1663          53.00       190.93
  101.28        2983.25           1667          74.00       282.48
  101.31        2983.50           1670          42.00       142.98
  101.34        2983.75           1673          47.00       164.78
  101.37        2984.00           1677          44.00       151.70
HS scan finished at 01:41:35
end
************************************************************
  HS Scan of (1) Internal mercury lamp
************************************************************
Integration time is 0.2294 seconds per sample
dh170818Manchester 53.47 2.23 2.857833pr1000
************************************************************
Dead Time -------------------------  3E-08 
Number of Cycles Used -------------  4 
Starting Wavelength (Angstroms) ---  2950 
Final Wavelength (Angstoms) -------  2984 
Wavelength Increment (Angstroms) --  .25 
Filter Wheel #1 Position ---------- (1) Ground quartz diffuser (ND=2.32)
Filter Wheel #2 Position ---------- (1) Neutral Density 0.494



************************************************************
HS scan start time = 20:42:01
Dark Count =  7.5 


Time (GMT)  Wavelength (Ang)  Step Number  Raw Counts  Counts/Second

 1242.39        2950.00           1222          51.00       189.63
 1242.46        2950.25           1226          48.00       176.55
 1242.49        2950.50           1229          56.00       211.42
 1242.52        2950.75           1232          55.00       207.06
 1242.55        2951.00           1236          51.00       189.63
 1242.58        2951.25           1239          48.00       176.55
 1242.61        2951.50           1242          51.00       189.63
 1242.65        2951.75           1246          51.00       189.63
 1242.68        2952.00           1249          59.00       224.50
 1242.71        2952.25           1252          55.00       207.06
 1242.74        2952.50           1256          49.00       180.91
 1242.77        2952.75           1259          46.00       167.83
 1242.80        2953.00           1262          54.00       202.70
 1242.83        2953.25           1266          56.00       211.42
 1242.86        2953.50           1269          54.00       202.70
 1242.89        2953.75           1272          62.00       237.58
 1242.92        2954.00           1276          56.00       211.42
 1242.95        2954.25           1279          54.00       202.70
 1242.98        2954.50           1282          54.00       202.70
 1243.01        2954.75           1286          49.00       180.91
 1243.04        2955.00           1289          58.00       220.14
 1243.08        2955.25           1292          50.00       185.27
 1243.11        2955.50           1296          50.00       185.27
 1243.14        2955.75           1299          55.00       207.06
 1243.17        2956.00           1302          51.00       189.63
 1243.20        2956.25           1306          43.00       154.75
 1243.23        2956.50           1309          48.00       176.55
 1243.26        2956.75           1312          56.00       211.42
 1243.29        2957.00           1316          52.00       193.99
 1243.32        2957.25           1319          55.00       207.06
 1243.35        2957.50           1322          53.00       198.34
 1243.38        2957.75           1326          55.00       207.06
 1243.42        2958.00           1329          49.00       180.91
 1243.45        2958.25           1332          51.00       189.63
 1243.48        2958.50           1336          51.00       189.63
 1243.51        2958.75           1339          49.00       180.91
 1243.54        2959.00           1342          53.00       198.34
 1243.57        2959.25           1346          57.00       215.78
 1243.60        2959.50           1349          65.00       250.66
 1243.63        2959.75           1352          68.00       263.73
 1243.66        2960.00           1356          97.00       390.15
 1243.69        2960.25           1359         126.00       516.57
 1243.73        2960.50           1362         160.00       664.79
 1243.76        2960.75           1366         220.00       926.36
 1243.79        2961.00           1369         235.00       991.75
 1243.82        2961.25           1372         289.00      1227.16
 1243.85        2961.50           1376         368.00      1571.57
 1243.88        2961.75           1379         547.00      2351.95
 1243.91        2962.00           1382        1228.00      5321.25
 1243.94        2962.25           1386        2763.00     12016.10
 1243.97        2962.50           1389        4175.00     18176.87
 1244.00        2962.75           1392        5557.00     24208.95
 1244.03        2963.00           1396        7283.00     31745.57
 1244.06        2963.25           1399        8470.00     36930.61
 1244.09        2963.50           1402       10002.00     43625.07
 1244.13        2963.75           1406       11615.00     50676.38
 1244.16        2964.00           1409       13038.00     56899.57
 1244.19        2964.25           1412       14396.00     62840.68
 1244.22        2964.50           1416       16063.00     70136.52
 1244.25        2964.75           1419       17439.00     76161.18
 1244.28        2965.00           1422       18608.00     81281.22
 1244.31        2965.25           1426       20401.00     89137.34
 1244.34        2965.50           1429       21890.00     95664.30
 1244.37        2965.75           1432       23324.00    101952.60
 1244.40        2966.00           1436       25236.00    110340.70
 1244.43        2966.25           1439       26431.00    115585.40
 1244.46        2966.50           1442       27665.00    121003.00
 1244.50        2966.75           1446       28907.00    126457.50
 1244.53        2967.00           1449       29151.00    127529.30
 1244.56        2967.25           1452       29030.00    126997.80
 1244.59        2967.50           1456       29248.00    127955.40
 1244.62        2967.75           1459       29084.00    127235.00
 1244.65        2968.00           1462       28835.00    126141.20
 1244.68        2968.25           1466       28086.00    122851.70
 1244.71        2968.50           1469       26556.00    116134.10
 1244.74        2968.75           1472       25341.00    110801.40
 1244.78        2969.00           1476       23735.00    103755.30
 1244.81        2969.25           1479       22134.00     96734.11
 1244.84        2969.50           1482       21023.00     91863.55
 1244.87        2969.75           1486       19191.00     83835.25
 1244.90        2970.00           1489       17802.00     77750.90
 1244.93        2970.25           1492       16494.00     72023.38
 1244.96        2970.50           1496       15051.00     65706.99
 1244.99        2970.75           1499       13665.00     59642.37
 1245.02        2971.00           1502       12311.00     53719.90
 1245.05        2971.25           1506       10372.00     45242.27
 1245.09        2971.50           1509        8827.00     38490.36
 1245.12        2971.75           1513        7252.00     31610.18
 1245.15        2972.00           1516        5745.00     25029.69
 1245.18        2972.25           1519        4497.00     19582.12
 1245.21        2972.50           1523        2860.00     12439.25
 1245.24        2972.75           1526        1578.00      6847.53
 1245.27        2973.00           1529         578.00      2487.11
 1245.30        2973.25           1533         321.00      1366.66
 1245.33        2973.50           1536         279.00      1183.56
 1245.36        2973.75           1539         221.00       930.71
 1245.39        2974.00           1543         194.00       813.01
 1245.42        2974.25           1546         158.00       656.07
 1245.46        2974.50           1549         105.00       425.03
 1245.49        2974.75           1553          73.00       285.53
 1245.52        2975.00           1556          68.00       263.73
 1245.55        2975.25           1559          51.00       189.63
 1245.58        2975.50           1563          53.00       198.34
 1245.61        2975.75           1566          54.00       202.70
 1245.64        2976.00           1569          55.00       207.06
 1245.67        2976.25           1573          54.00       202.70
 1245.70        2976.50           1576          53.00       198.34
 1245.73        2976.75           1579          45.00       163.47
 1245.76        2977.00           1583          49.00       180.91
 1245.79        2977.25           1586          61.00       233.22
 1245.82        2977.50           1590          52.00       193.99
 1245.85        2977.75           1593          50.00       185.27
 1245.88        2978.00           1596          52.00       193.99
 1245.91        2978.25           1600          47.00       172.19
 1245.94        2978.50           1603          48.00       176.55
 1245.98        2978.75           1606          38.00       132.96
 1246.01        2979.00           1610          51.00       189.63
 1246.04        2979.25           1613          44.00       159.11
 1246.07        2979.50           1616          51.00       189.63
 1246.10        2979.75           1620          44.00       159.11
 1246.13        2980.00           1623          55.00       207.06
 1246.16        2980.25           1626          56.00       211.42
 1246.19        2980.50           1630          50.00       185.27
 1246.22        2980.75           1633          48.00       176.55
 1246.25        2981.00           1637          48.00       176.55
 1246.28        2981.25           1640          46.00       167.83
 1246.32        2981.50           1643          48.00       176.55
 1246.35        2981.75           1647          49.00       180.91
 1246.38        2982.00           1650          48.00       176.55
 1246.41        2982.25           1653          49.00       180.91
 1246.44        2982.50           1657          48.00       176.55
 1246.47        2982.75           1660          45.00       163.47
 1246.50        2983.00           1663          50.00       185.27
 1246.53        2983.25           1667          53.00       198.34
 1246.56        2983.50           1670          45.00       163.47
 1246.59        2983.75           1673          55.00       207.06
 1246.63        2984.00           1677          53.00       198.34
HS scan finished at 20:46:51
end
