************************************************************
  HS Scan of (1) Internal mercury lamp
************************************************************
Integration time is 0.2294 seconds per sample
dh120818Manchester 53.47 2.23 3.072425pr1000
************************************************************
Dead Time -------------------------  3E-08 
Number of Cycles Used -------------  4 
Starting Wavelength (Angstroms) ---  2950 
Final Wavelength (Angstoms) -------  2984 
Wavelength Increment (Angstroms) --  .25 
Filter Wheel #1 Position ---------- (1) Ground quartz diffuser (ND=2.32)
Filter Wheel #2 Position ---------- (1) Neutral Density 0.494



************************************************************
HS scan start time = 20:42:04
Dark Count =  7.4 


Time (GMT)  Wavelength (Ang)  Step Number  Raw Counts  Counts/Second

 1242.44        2950.00           1222          48.00       176.98
 1242.51        2950.25           1226          53.00       198.78
 1242.54        2950.50           1229          60.00       229.30
 1242.57        2950.75           1232          47.00       172.63
 1242.60        2951.00           1236          51.00       190.06
 1242.63        2951.25           1239          53.00       198.78
 1242.67        2951.50           1242          55.00       207.50
 1242.70        2951.75           1246          62.00       238.01
 1242.73        2952.00           1249          50.00       185.70
 1242.76        2952.25           1252          55.00       207.50
 1242.79        2952.50           1256          48.00       176.98
 1242.82        2952.75           1259          48.00       176.98
 1242.85        2953.00           1262          50.00       185.70
 1242.88        2953.25           1266          57.00       216.22
 1242.91        2953.50           1269          49.00       181.34
 1242.94        2953.75           1272          59.00       224.94
 1242.97        2954.00           1276          49.00       181.34
 1243.00        2954.25           1279          50.00       185.70
 1243.03        2954.50           1282          50.00       185.70
 1243.06        2954.75           1286          51.00       190.06
 1243.09        2955.00           1289          50.00       185.70
 1243.12        2955.25           1292          51.00       190.06
 1243.16        2955.50           1296          42.00       150.83
 1243.19        2955.75           1299          54.00       203.14
 1243.22        2956.00           1302          51.00       190.06
 1243.25        2956.25           1306          50.00       185.70
 1243.28        2956.50           1309          52.00       194.42
 1243.31        2956.75           1312          50.00       185.70
 1243.34        2957.00           1316          57.00       216.22
 1243.37        2957.25           1319          48.00       176.98
 1243.40        2957.50           1322          55.00       207.50
 1243.43        2957.75           1326          50.00       185.70
 1243.46        2958.00           1329          51.00       190.06
 1243.49        2958.25           1332          51.00       190.06
 1243.52        2958.50           1336          50.00       185.70
 1243.55        2958.75           1339          53.00       198.78
 1243.58        2959.00           1342          50.00       185.70
 1243.61        2959.25           1346          57.00       216.22
 1243.64        2959.50           1349          60.00       229.30
 1243.68        2959.75           1352          71.00       277.25
 1243.71        2960.00           1356         107.00       434.18
 1243.74        2960.25           1359         143.00       591.12
 1243.77        2960.50           1362         167.00       695.74
 1243.80        2960.75           1366         211.00       887.56
 1243.83        2961.00           1369         240.00      1013.98
 1243.86        2961.25           1372         301.00      1279.91
 1243.89        2961.50           1376         361.00      1541.48
 1243.92        2961.75           1379         565.00      2430.87
 1243.95        2962.00           1382        1244.00      5391.46
 1243.99        2962.25           1386        3010.00     13094.07
 1244.02        2962.50           1389        4465.00     19442.90
 1244.05        2962.75           1392        5849.00     25484.17
 1244.08        2963.00           1396        7808.00     34039.10
 1244.11        2963.25           1399        9193.00     40090.04
 1244.14        2963.50           1402       10736.00     46833.85
 1244.17        2963.75           1406       12772.00     55736.54
 1244.20        2964.00           1409       14193.00     61952.87
 1244.23        2964.25           1412       15619.00     68193.43
 1244.26        2964.50           1416       17596.00     76849.16
 1244.29        2964.75           1419       19092.00     83401.96
 1244.32        2965.00           1422       20669.00     90312.37
 1244.35        2965.25           1426       22430.00     98032.44
 1244.39        2965.50           1429       24014.00    104979.60
 1244.42        2965.75           1432       25692.00    112342.30
 1244.45        2966.00           1436       27541.00    120458.90
 1244.48        2966.25           1439       28969.00    126730.30
 1244.51        2966.50           1442       30464.00    133298.40
 1244.54        2966.75           1446       31503.00    137864.60
 1244.57        2967.00           1449       31809.00    139209.60
 1244.60        2967.25           1452       32078.00    140392.10
 1244.63        2967.50           1456       31913.00    139666.80
 1244.67        2967.75           1459       31843.00    139359.10
 1244.70        2968.00           1462       31760.00    138994.30
 1244.73        2968.25           1466       30569.00    133759.70
 1244.76        2968.50           1469       29172.00    127622.00
 1244.79        2968.75           1472       27913.00    122092.40
 1244.82        2969.00           1476       25900.00    113255.10
 1244.85        2969.25           1479       24546.00    107313.60
 1244.88        2969.50           1482       23094.00    100944.30
 1244.92        2969.75           1486       21045.00     91960.42
 1244.95        2970.00           1489       19628.00     85750.39
 1244.98        2970.25           1492       18072.00     78933.86
 1245.01        2970.50           1496       16274.00     71060.66
 1245.04        2970.75           1499       14834.00     64757.77
 1245.07        2971.00           1502       13388.00     58431.03
 1245.10        2971.25           1506       11395.00     49714.89
 1245.13        2971.50           1509        9949.00     43393.86
 1245.16        2971.75           1513        7908.00     34475.92
 1245.19        2972.00           1516        6462.00     28160.66
 1245.23        2972.25           1519        4984.00     21708.12
 1245.26        2972.50           1523        3011.00     13098.43
 1245.29        2972.75           1526        1614.00      7004.96
 1245.32        2973.00           1529         719.00      3102.29
 1245.35        2973.25           1533         377.00      1611.24
 1245.38        2973.50           1536         292.00      1240.67
 1245.41        2973.75           1539         265.00      1122.97
 1245.44        2974.00           1543         204.00       857.04
 1245.47        2974.25           1546         159.00       660.87
 1245.50        2974.50           1549         119.00       486.49
 1245.53        2974.75           1553          81.00       320.84
 1245.57        2975.00           1556          67.00       259.81
 1245.60        2975.25           1559          64.00       246.73
 1245.63        2975.50           1563          59.00       224.94
 1245.66        2975.75           1566          51.00       190.06
 1245.69        2976.00           1569          52.00       194.42
 1245.72        2976.25           1573          61.00       233.65
 1245.75        2976.50           1576          52.00       194.42
 1245.78        2976.75           1579          60.00       229.30
 1245.81        2977.00           1583          58.00       220.58
 1245.85        2977.25           1586          50.00       185.70
 1245.88        2977.50           1590          51.00       190.06
 1245.91        2977.75           1593          52.00       194.42
 1245.94        2978.00           1596          51.00       190.06
 1245.97        2978.25           1600          52.00       194.42
 1246.00        2978.50           1603          58.00       220.58
 1246.03        2978.75           1606          49.00       181.34
 1246.06        2979.00           1610          50.00       185.70
 1246.09        2979.25           1613          50.00       185.70
 1246.12        2979.50           1616          47.00       172.63
 1246.15        2979.75           1620          49.00       181.34
 1246.18        2980.00           1623          53.00       198.78
 1246.22        2980.25           1626          47.00       172.63
 1246.25        2980.50           1630          51.00       190.06
 1246.28        2980.75           1633          53.00       198.78
 1246.31        2981.00           1637          43.00       155.19
 1246.34        2981.25           1640          47.00       172.63
 1246.37        2981.50           1643          51.00       190.06
 1246.40        2981.75           1647          49.00       181.34
 1246.43        2982.00           1650          56.00       211.86
 1246.46        2982.25           1653          49.00       181.34
 1246.49        2982.50           1657          51.00       190.06
 1246.53        2982.75           1660          50.00       185.70
 1246.56        2983.00           1663          44.00       159.55
 1246.59        2983.25           1667          45.00       163.91
 1246.62        2983.50           1670          57.00       216.22
 1246.65        2983.75           1673          51.00       190.06
 1246.68        2984.00           1677          46.00       168.27
HS scan finished at 20:46:54
end
