************************************************************
  HS Scan of (1) Internal mercury lamp
************************************************************
Integration time is 0.2294 seconds per sample
dh170817Manchester 53.47 2.23 2.804185pr1000
************************************************************
Dead Time -------------------------  3E-08 
Number of Cycles Used -------------  4 
Starting Wavelength (Angstroms) ---  2950 
Final Wavelength (Angstoms) -------  2984 
Wavelength Increment (Angstroms) --  .25 
Filter Wheel #1 Position ---------- (1) Ground quartz diffuser (ND=2.32)
Filter Wheel #2 Position ---------- (1) Neutral Density 0.494



************************************************************
HS scan start time = 01:36:29
Dark Count =  5.7 


Time (GMT)  Wavelength (Ang)  Step Number  Raw Counts  Counts/Second

   96.85        2950.00           1222          79.00       319.53
   96.92        2950.25           1226          91.00       371.84
   96.95        2950.50           1229          80.00       323.89
   96.98        2950.75           1232          82.00       332.61
   97.01        2951.00           1236          89.00       363.13
   97.04        2951.25           1239          94.00       384.92
   97.07        2951.50           1242          81.00       328.25
   97.10        2951.75           1246          86.00       350.05
   97.13        2952.00           1249          76.00       306.45
   97.16        2952.25           1252          83.00       336.97
   97.19        2952.50           1256          84.00       341.33
   97.23        2952.75           1259          83.00       336.97
   97.26        2953.00           1262          96.00       393.64
   97.29        2953.25           1266          88.00       358.77
   97.32        2953.50           1269          90.00       367.48
   97.35        2953.75           1272          84.00       341.33
   97.38        2954.00           1276          86.00       350.05
   97.41        2954.25           1279          82.00       332.61
   97.44        2954.50           1282          81.00       328.25
   97.47        2954.75           1286          83.00       336.97
   97.50        2955.00           1289          81.00       328.25
   97.53        2955.25           1292          79.00       319.53
   97.56        2955.50           1296          90.00       367.48
   97.60        2955.75           1299          78.00       315.17
   97.63        2956.00           1302          75.00       302.10
   97.66        2956.25           1306          81.00       328.25
   97.69        2956.50           1309          74.00       297.74
   97.72        2956.75           1312          84.00       341.33
   97.75        2957.00           1316          85.00       345.69
   97.78        2957.25           1319          79.00       319.53
   97.81        2957.50           1322          83.00       336.97
   97.84        2957.75           1326          79.00       319.53
   97.87        2958.00           1329          82.00       332.61
   97.90        2958.25           1332          89.00       363.13
   97.93        2958.50           1336          76.00       306.45
   97.96        2958.75           1339          77.00       310.81
   98.00        2959.00           1342          85.00       345.69
   98.03        2959.25           1346          97.00       398.00
   98.06        2959.50           1349         104.00       428.51
   98.09        2959.75           1352         122.00       506.98
   98.12        2960.00           1356         153.00       642.12
   98.15        2960.25           1359         183.00       772.90
   98.18        2960.50           1362         226.00       960.36
   98.21        2960.75           1366         277.00      1182.69
   98.24        2961.00           1369         323.00      1383.23
   98.27        2961.25           1372         371.00      1592.49
   98.30        2961.50           1376         422.00      1814.83
   98.33        2961.75           1379         549.00      2368.52
   98.37        2962.00           1382         947.00      4103.82
   98.40        2962.25           1386        2564.00     11155.87
   98.43        2962.50           1389        4087.00     17800.70
   98.46        2962.75           1392        5614.00     24465.64
   98.49        2963.00           1396        7614.00     33199.13
   98.52        2963.25           1399        9188.00     40075.62
   98.55        2963.50           1402       10704.00     46701.39
   98.58        2963.75           1406       12997.00     56728.11
   98.61        2964.00           1409       14672.00     64056.29
   98.64        2964.25           1412       16215.00     70809.81
   98.67        2964.50           1416       18506.00     80842.30
   98.71        2964.75           1419       20059.00     87646.47
   98.74        2965.00           1422       21788.00     95225.00
   98.77        2965.25           1426       23991.00    104886.20
   98.80        2965.50           1429       25678.00    112288.30
   98.83        2965.75           1432       27453.00    120080.00
   98.86        2966.00           1436       29341.00    128371.80
   98.89        2966.25           1439       30902.00    135230.60
   98.92        2966.50           1442       32349.00    141591.00
   98.96        2966.75           1446       33949.00    148626.80
   98.99        2967.00           1449       34896.00    152792.50
   99.02        2967.25           1452       35205.00    154152.00
   99.05        2967.50           1456       35043.00    153439.20
   99.08        2967.75           1459       35312.00    154622.70
   99.11        2968.00           1462       35222.00    154226.80
   99.14        2968.25           1466       34520.00    151138.40
   99.17        2968.50           1469       33268.00    145631.80
   99.20        2968.75           1472       31951.00    139841.30
   99.24        2969.00           1476       29802.00    130397.10
   99.27        2969.25           1479       28269.00    123663.30
   99.30        2969.50           1482       26622.00    116431.70
   99.33        2969.75           1486       24504.00    107136.70
   99.36        2970.00           1489       22747.00     99429.99
   99.39        2970.25           1492       21350.00     93304.84
   99.42        2970.50           1496       19052.00     83234.18
   99.45        2970.75           1499       17420.00     76085.86
   99.48        2971.00           1502       15789.00     68945.00
   99.51        2971.25           1506       13677.00     59702.74
   99.55        2971.50           1509       11865.00     51777.40
   99.58        2971.75           1513        9771.00     42623.34
   99.61        2972.00           1516        8185.00     35693.39
   99.64        2972.25           1519        6667.00     29063.26
   99.67        2972.50           1523        4386.00     19105.54
   99.70        2972.75           1526        2987.00     13001.15
   99.73        2973.00           1529        1600.00      6951.32
   99.76        2973.25           1533         511.00      2202.85
   99.79        2973.50           1536         349.00      1496.58
   99.82        2973.75           1539         284.00      1213.21
   99.85        2974.00           1543         241.00      1025.75
   99.89        2974.25           1546         184.00       777.26
   99.92        2974.50           1549         157.00       659.56
   99.95        2974.75           1553         104.00       428.51
   99.98        2975.00           1556          90.00       367.48
  100.01        2975.25           1559          79.00       319.53
  100.04        2975.50           1563          84.00       341.33
  100.07        2975.75           1566          69.00       275.94
  100.10        2976.00           1569          83.00       336.97
  100.13        2976.25           1573          79.00       319.53
  100.16        2976.50           1576          83.00       336.97
  100.19        2976.75           1579          78.00       315.17
  100.22        2977.00           1583          75.00       302.10
  100.25        2977.25           1586          75.00       302.10
  100.28        2977.50           1590          74.00       297.74
  100.31        2977.75           1593          76.00       306.45
  100.34        2978.00           1596          76.00       306.45
  100.38        2978.25           1600          78.00       315.17
  100.41        2978.50           1603          81.00       328.25
  100.44        2978.75           1606          69.00       275.94
  100.47        2979.00           1610          77.00       310.81
  100.50        2979.25           1613          78.00       315.17
  100.53        2979.50           1616          69.00       275.94
  100.56        2979.75           1620          73.00       293.38
  100.59        2980.00           1623          73.00       293.38
  100.62        2980.25           1626          82.00       332.61
  100.65        2980.50           1630          67.00       267.22
  100.68        2980.75           1633          69.00       275.94
  100.71        2981.00           1637          89.00       363.13
  100.74        2981.25           1640          76.00       306.45
  100.77        2981.50           1643          78.00       315.17
  100.80        2981.75           1647          69.00       275.94
  100.83        2982.00           1650          72.00       289.02
  100.87        2982.25           1653          70.00       280.30
  100.90        2982.50           1657          75.00       302.10
  100.93        2982.75           1660          74.00       297.74
  100.96        2983.00           1663          81.00       328.25
  100.99        2983.25           1667          69.00       275.94
  101.02        2983.50           1670          75.00       302.10
  101.05        2983.75           1673          66.00       262.86
  101.08        2984.00           1677          83.00       336.97
HS scan finished at 01:41:18
end
************************************************************
  HS Scan of (1) Internal mercury lamp
************************************************************
Integration time is 0.2294 seconds per sample
dh170817Manchester 53.47 2.23 2.965129pr1000
************************************************************
Dead Time -------------------------  3E-08 
Number of Cycles Used -------------  4 
Starting Wavelength (Angstroms) ---  2950 
Final Wavelength (Angstoms) -------  2984 
Wavelength Increment (Angstroms) --  .25 
Filter Wheel #1 Position ---------- (1) Ground quartz diffuser (ND=2.32)
Filter Wheel #2 Position ---------- (1) Neutral Density 0.494



************************************************************
HS scan start time = 20:43:14
Dark Count =  6.6 


Time (GMT)  Wavelength (Ang)  Step Number  Raw Counts  Counts/Second

 1243.60        2950.00           1222          85.00       341.76
 1243.66        2950.25           1226          83.00       333.05
 1243.70        2950.50           1229          88.00       354.84
 1243.73        2950.75           1232          89.00       359.20
 1243.76        2951.00           1236          76.00       302.53
 1243.79        2951.25           1239          76.00       302.53
 1243.82        2951.50           1242          75.00       298.17
 1243.85        2951.75           1246          82.00       328.69
 1243.88        2952.00           1249          87.00       350.48
 1243.91        2952.25           1252          83.00       333.05
 1243.94        2952.50           1256          93.00       376.64
 1243.97        2952.75           1259          80.00       319.97
 1244.00        2953.00           1262          80.00       319.97
 1244.04        2953.25           1266          77.00       306.89
 1244.07        2953.50           1269          83.00       333.05
 1244.10        2953.75           1272          87.00       350.48
 1244.13        2954.00           1276          80.00       319.97
 1244.16        2954.25           1279          80.00       319.97
 1244.19        2954.50           1282          82.00       328.69
 1244.22        2954.75           1286          73.00       289.45
 1244.25        2955.00           1289          85.00       341.76
 1244.28        2955.25           1292          90.00       363.56
 1244.31        2955.50           1296          79.00       315.61
 1244.34        2955.75           1299          89.00       359.20
 1244.38        2956.00           1302          91.00       367.92
 1244.41        2956.25           1306          74.00       293.81
 1244.44        2956.50           1309          82.00       328.69
 1244.47        2956.75           1312          73.00       289.45
 1244.50        2957.00           1316          90.00       363.56
 1244.53        2957.25           1319          79.00       315.61
 1244.56        2957.50           1322          97.00       394.08
 1244.59        2957.75           1326          93.00       376.64
 1244.62        2958.00           1329          85.00       341.76
 1244.65        2958.25           1332          85.00       341.76
 1244.68        2958.50           1336          85.00       341.76
 1244.71        2958.75           1339          70.00       276.38
 1244.74        2959.00           1342          88.00       354.84
 1244.78        2959.25           1346          89.00       359.20
 1244.81        2959.50           1349          86.00       346.12
 1244.84        2959.75           1352         114.00       468.18
 1244.87        2960.00           1356         147.00       612.04
 1244.90        2960.25           1359         183.00       768.98
 1244.93        2960.50           1362         243.00      1030.55
 1244.96        2960.75           1366         282.00      1200.57
 1244.99        2961.00           1369         320.00      1366.23
 1245.02        2961.25           1372         388.00      1662.68
 1245.05        2961.50           1376         448.00      1924.26
 1245.08        2961.75           1379         580.00      2499.75
 1245.11        2962.00           1382        1103.00      4780.11
 1245.15        2962.25           1386        2777.00     12081.10
 1245.18        2962.50           1389        4484.00     19529.31
 1245.21        2962.75           1392        6088.00     26531.14
 1245.24        2963.00           1396        8439.00     36799.11
 1245.27        2963.25           1399       10317.00     45005.81
 1245.30        2963.50           1402       11952.00     52153.90
 1245.33        2963.75           1406       14295.00     62402.68
 1245.36        2964.00           1409       16107.00     70333.09
 1245.39        2964.25           1412       18032.00     78762.18
 1245.42        2964.50           1416       20401.00     89141.29
 1245.46        2964.75           1419       22230.00     97158.99
 1245.49        2965.00           1422       24041.00    105101.60
 1245.52        2965.25           1426       26381.00    115369.90
 1245.55        2965.50           1429       28406.00    124261.00
 1245.58        2965.75           1432       30349.00    132796.50
 1245.61        2966.00           1436       32484.00    142180.60
 1245.64        2966.25           1439       34402.00    150615.40
 1245.67        2966.50           1442       35876.00    157100.50
 1245.71        2966.75           1446       37655.00    164930.90
 1245.74        2967.00           1449       38138.00    167057.50
 1245.77        2967.25           1452       38312.00    167823.60
 1245.80        2967.50           1456       38416.00    168281.60
 1245.83        2967.75           1459       38279.00    167678.30
 1245.86        2968.00           1462       38221.00    167422.90
 1245.89        2968.25           1466       37142.00    162672.50
 1245.92        2968.50           1469       35932.00    157346.90
 1245.95        2968.75           1472       34085.00    149221.00
 1245.98        2969.00           1476       31819.00    139257.10
 1246.01        2969.25           1479       29900.00    130823.70
 1246.05        2969.50           1482       28416.00    124304.90
 1246.08        2969.75           1486       26023.00    113798.50
 1246.11        2970.00           1489       24177.00    105698.20
 1246.14        2970.25           1492       22462.00     98176.27
 1246.17        2970.50           1496       20407.00     89167.59
 1246.20        2970.75           1499       18548.00     81022.34
 1246.23        2971.00           1502       16784.00     73297.00
 1246.26        2971.25           1506       14570.00     63606.00
 1246.29        2971.50           1509       12810.00     55906.25
 1246.32        2971.75           1513       10409.00     45407.94
 1246.36        2972.00           1516        8576.00     37397.65
 1246.39        2972.25           1519        6658.00     29020.02
 1246.42        2972.50           1523        4449.00     19376.56
 1246.45        2972.75           1526        2824.00     12286.13
 1246.48        2973.00           1529        1347.00      5844.09
 1246.51        2973.25           1533         531.00      2286.12
 1246.54        2973.50           1536         372.00      1592.93
 1246.57        2973.75           1539         346.00      1479.58
 1246.60        2974.00           1543         266.00      1130.81
 1246.64        2974.25           1546         203.00       856.17
 1246.67        2974.50           1549         164.00       686.15
 1246.70        2974.75           1553         114.00       468.18
 1246.73        2975.00           1556          97.00       394.08
 1246.76        2975.25           1559          91.00       367.92
 1246.79        2975.50           1563          83.00       333.05
 1246.82        2975.75           1566          77.00       306.89
 1246.85        2976.00           1569          86.00       346.12
 1246.88        2976.25           1573          92.00       372.28
 1246.92        2976.50           1576          76.00       302.53
 1246.95        2976.75           1579          77.00       306.89
 1246.98        2977.00           1583          84.00       337.41
 1247.01        2977.25           1586          99.00       402.79
 1247.04        2977.50           1590          75.00       298.17
 1247.07        2977.75           1593          74.00       293.81
 1247.10        2978.00           1596          72.00       285.09
 1247.13        2978.25           1600          75.00       298.17
 1247.16        2978.50           1603          74.00       293.81
 1247.19        2978.75           1606          80.00       319.97
 1247.22        2979.00           1610          73.00       289.45
 1247.25        2979.25           1613          81.00       324.33
 1247.29        2979.50           1616          87.00       350.48
 1247.32        2979.75           1620          76.00       302.53
 1247.35        2980.00           1623          76.00       302.53
 1247.38        2980.25           1626          80.00       319.97
 1247.41        2980.50           1630          78.00       311.25
 1247.44        2980.75           1633          81.00       324.33
 1247.47        2981.00           1637          71.00       280.73
 1247.50        2981.25           1640          78.00       311.25
 1247.53        2981.50           1643          69.00       272.02
 1247.56        2981.75           1647          73.00       289.45
 1247.59        2982.00           1650          75.00       298.17
 1247.63        2982.25           1653          82.00       328.69
 1247.66        2982.50           1657          82.00       328.69
 1247.69        2982.75           1660          76.00       302.53
 1247.72        2983.00           1663          73.00       289.45
 1247.75        2983.25           1667          71.00       280.73
 1247.78        2983.50           1670          74.00       293.81
 1247.81        2983.75           1673          75.00       298.17
 1247.84        2984.00           1677          68.00       267.66
HS scan finished at 20:48:04
end
