************************************************************
  HS Scan of (1) Internal mercury lamp
************************************************************
Integration time is 0.2294 seconds per sample
dh090817Manchester 53.47 2.23 2.804185pr1000
************************************************************
Dead Time -------------------------  3E-08 
Number of Cycles Used -------------  4 
Starting Wavelength (Angstroms) ---  2950 
Final Wavelength (Angstoms) -------  2984 
Wavelength Increment (Angstroms) --  .25 
Filter Wheel #1 Position ---------- (1) Ground quartz diffuser (ND=2.32)
Filter Wheel #2 Position ---------- (1) Neutral Density 0.494



************************************************************
HS scan start time = 02:19:02
Dark Count =  8.100001 


Time (GMT)  Wavelength (Ang)  Step Number  Raw Counts  Counts/Second

  139.40        2950.00           1222          97.00       387.54
  139.46        2950.25           1226          85.00       335.23
  139.50        2950.50           1229          94.00       374.46
  139.53        2950.75           1232          83.00       326.51
  139.56        2951.00           1236          85.00       335.23
  139.59        2951.25           1239         100.00       400.62
  139.62        2951.50           1242          85.00       335.23
  139.65        2951.75           1246          90.00       357.02
  139.68        2952.00           1249          90.00       357.02
  139.71        2952.25           1252          83.00       326.51
  139.74        2952.50           1256          93.00       370.10
  139.77        2952.75           1259          84.00       330.87
  139.80        2953.00           1262          79.00       309.07
  139.83        2953.25           1266          89.00       352.66
  139.86        2953.50           1269          93.00       370.10
  139.89        2953.75           1272          88.00       348.30
  139.92        2954.00           1276          84.00       330.87
  139.95        2954.25           1279          79.00       309.07
  139.99        2954.50           1282          81.00       317.79
  140.02        2954.75           1286          92.00       365.74
  140.05        2955.00           1289          79.00       309.07
  140.08        2955.25           1292          83.00       326.51
  140.11        2955.50           1296          84.00       330.87
  140.14        2955.75           1299          86.00       339.59
  140.17        2956.00           1302          80.00       313.43
  140.20        2956.25           1306          81.00       317.79
  140.23        2956.50           1309          95.00       378.82
  140.26        2956.75           1312          83.00       326.51
  140.29        2957.00           1316          94.00       374.46
  140.33        2957.25           1319          83.00       326.51
  140.36        2957.50           1322          86.00       339.59
  140.39        2957.75           1326          81.00       317.79
  140.42        2958.00           1329          86.00       339.59
  140.45        2958.25           1332          81.00       317.79
  140.48        2958.50           1336          82.00       322.15
  140.51        2958.75           1339          84.00       330.87
  140.54        2959.00           1342          82.00       322.15
  140.57        2959.25           1346          93.00       370.10
  140.60        2959.50           1349         102.00       409.33
  140.64        2959.75           1352         116.00       470.36
  140.67        2960.00           1356         165.00       683.97
  140.70        2960.25           1359         209.00       875.79
  140.73        2960.50           1362         247.00      1041.44
  140.76        2960.75           1366         309.00      1311.73
  140.79        2961.00           1369         328.00      1394.57
  140.82        2961.25           1372         361.00      1538.43
  140.85        2961.50           1376         482.00      2065.95
  140.88        2961.75           1379         678.00      2920.48
  140.91        2962.00           1382        1398.00      6059.95
  140.95        2962.25           1386        3270.00     14225.34
  140.98        2962.50           1389        4865.00     21185.65
  141.01        2962.75           1392        6538.00     28489.47
  141.04        2963.00           1396        8671.00     37806.15
  141.07        2963.25           1399       10244.00     44680.17
  141.10        2963.50           1402       11988.00     52304.77
  141.13        2963.75           1406       14069.00     61407.28
  141.16        2964.00           1409       15647.00     68312.91
  141.19        2964.25           1412       17347.00     75755.68
  141.23        2964.50           1416       19548.00     85396.79
  141.26        2964.75           1419       21230.00     92768.28
  141.29        2965.00           1422       23236.00    101564.00
  141.32        2965.25           1426       25425.00    111167.40
  141.35        2965.50           1429       27002.00    118089.40
  141.38        2965.75           1432       28665.00    125391.90
  141.41        2966.00           1436       30779.00    134679.50
  141.44        2966.25           1439       32501.00    142248.70
  141.47        2966.50           1442       33978.00    148743.80
  141.51        2966.75           1446       35549.00    155655.00
  141.54        2967.00           1449       35873.00    157080.70
  141.57        2967.25           1452       35827.00    156878.30
  141.60        2967.50           1456       35898.00    157190.70
  141.63        2967.75           1459       35851.00    156983.90
  141.66        2968.00           1462       35720.00    156407.40
  141.69        2968.25           1466       34727.00    152038.40
  141.72        2968.50           1469       33439.00    146373.30
  141.75        2968.75           1472       31626.00    138402.10
  141.78        2969.00           1476       29796.00    130360.20
  141.81        2969.25           1479       28247.00    123556.10
  141.85        2969.50           1482       26453.00    115679.30
  141.88        2969.75           1486       24157.00    105603.90
  141.91        2970.00           1489       22687.00     99156.34
  141.94        2970.25           1492       21241.00     92816.51
  141.97        2970.50           1496       18790.00     82075.88
  142.00        2970.75           1499       17097.00     74660.94
  142.03        2971.00           1502       15362.00     67065.50
  142.06        2971.25           1506       13016.00     56800.73
  142.09        2971.50           1509       11314.00     49357.69
  142.12        2971.75           1513        9065.00     39527.67
  142.16        2972.00           1516        7540.00     32865.43
  142.19        2972.25           1519        6073.00     26459.10
  142.22        2972.50           1523        3931.00     17109.48
  142.25        2972.75           1526        2275.00      9884.80
  142.28        2973.00           1529        1046.00      4525.03
  142.31        2973.25           1533         489.00      2096.47
  142.34        2973.50           1536         344.00      1464.32
  142.37        2973.75           1539         289.00      1224.54
  142.40        2974.00           1543         257.00      1085.04
  142.43        2974.25           1546         193.00       806.04
  142.46        2974.50           1549         146.00       601.14
  142.50        2974.75           1553          99.00       396.26
  142.53        2975.00           1556          88.00       348.30
  142.56        2975.25           1559          86.00       339.59
  142.59        2975.50           1563          83.00       326.51
  142.62        2975.75           1566          80.00       313.43
  142.65        2976.00           1569          96.00       383.18
  142.68        2976.25           1573          78.00       304.71
  142.71        2976.50           1576          82.00       322.15
  142.74        2976.75           1579          84.00       330.87
  142.77        2977.00           1583          87.00       343.94
  142.80        2977.25           1586          83.00       326.51
  142.83        2977.50           1590          81.00       317.79
  142.86        2977.75           1593          81.00       317.79
  142.89        2978.00           1596          81.00       317.79
  142.92        2978.25           1600          69.00       265.48
  142.96        2978.50           1603          77.00       300.35
  142.99        2978.75           1606          78.00       304.71
  143.02        2979.00           1610          70.00       269.84
  143.05        2979.25           1613          85.00       335.23
  143.08        2979.50           1616          77.00       300.35
  143.11        2979.75           1620          83.00       326.51
  143.14        2980.00           1623          72.00       278.56
  143.17        2980.25           1626          81.00       317.79
  143.20        2980.50           1630          88.00       348.30
  143.23        2980.75           1633          84.00       330.87
  143.26        2981.00           1637          74.00       287.27
  143.29        2981.25           1640          74.00       287.27
  143.32        2981.50           1643          77.00       300.35
  143.36        2981.75           1647          72.00       278.56
  143.39        2982.00           1650          78.00       304.71
  143.42        2982.25           1653          78.00       304.71
  143.45        2982.50           1657          74.00       287.27
  143.48        2982.75           1660          86.00       339.59
  143.51        2983.00           1663          67.00       256.76
  143.54        2983.25           1667          83.00       326.51
  143.57        2983.50           1670          63.00       239.32
  143.60        2983.75           1673          71.00       274.20
  143.64        2984.00           1677          72.00       278.56
HS scan finished at 02:23:51
end
************************************************************
  HS Scan of (1) Internal mercury lamp
************************************************************
Integration time is 0.2294 seconds per sample
dh090817Manchester 53.47 2.23 2.857833pr1000
************************************************************
Dead Time -------------------------  3E-08 
Number of Cycles Used -------------  4 
Starting Wavelength (Angstroms) ---  2950 
Final Wavelength (Angstoms) -------  2984 
Wavelength Increment (Angstroms) --  .25 
Filter Wheel #1 Position ---------- (1) Ground quartz diffuser (ND=2.32)
Filter Wheel #2 Position ---------- (1) Neutral Density 0.494



************************************************************
HS scan start time = 20:42:04
Dark Count =  7.2 


Time (GMT)  Wavelength (Ang)  Step Number  Raw Counts  Counts/Second

 1242.43        2950.00           1222          90.00       360.95
 1242.50        2950.25           1226          87.00       347.87
 1242.53        2950.50           1229          92.00       369.66
 1242.56        2950.75           1232          93.00       374.02
 1242.59        2951.00           1236          84.00       334.79
 1242.62        2951.25           1239          87.00       347.87
 1242.65        2951.50           1242          88.00       352.23
 1242.68        2951.75           1246          89.00       356.59
 1242.71        2952.00           1249          89.00       356.59
 1242.74        2952.25           1252          87.00       347.87
 1242.77        2952.50           1256          86.00       343.51
 1242.80        2952.75           1259          84.00       334.79
 1242.83        2953.00           1262          91.00       365.30
 1242.86        2953.25           1266          85.00       339.15
 1242.89        2953.50           1269          94.00       378.38
 1242.92        2953.75           1272          89.00       356.59
 1242.95        2954.00           1276          87.00       347.87
 1242.98        2954.25           1279          93.00       374.02
 1243.02        2954.50           1282          96.00       387.10
 1243.05        2954.75           1286          90.00       360.95
 1243.08        2955.00           1289          83.00       330.43
 1243.11        2955.25           1292          77.00       304.27
 1243.14        2955.50           1296          90.00       360.95
 1243.17        2955.75           1299          88.00       352.23
 1243.20        2956.00           1302          81.00       321.71
 1243.23        2956.25           1306          86.00       343.51
 1243.26        2956.50           1309          93.00       374.02
 1243.29        2956.75           1312          88.00       352.23
 1243.32        2957.00           1316          82.00       326.07
 1243.35        2957.25           1319          94.00       378.38
 1243.38        2957.50           1322          81.00       321.71
 1243.41        2957.75           1326          82.00       326.07
 1243.44        2958.00           1329          81.00       321.71
 1243.47        2958.25           1332          85.00       339.15
 1243.51        2958.50           1336          90.00       360.95
 1243.54        2958.75           1339          90.00       360.95
 1243.57        2959.00           1342          84.00       334.79
 1243.60        2959.25           1346          98.00       395.82
 1243.63        2959.50           1349          94.00       378.38
 1243.66        2959.75           1352         120.00       491.72
 1243.69        2960.00           1356         131.00       539.68
 1243.72        2960.25           1359         172.00       718.41
 1243.75        2960.50           1362         209.00       879.71
 1243.78        2960.75           1366         268.00      1136.92
 1243.81        2961.00           1369         305.00      1298.22
 1243.84        2961.25           1372         330.00      1407.21
 1243.87        2961.50           1376         426.00      1825.73
 1243.90        2961.75           1379         656.00      2828.49
 1243.93        2962.00           1382        1374.00      5959.22
 1243.97        2962.25           1386        3168.00     13784.25
 1244.00        2962.50           1389        4892.00     21307.43
 1244.03        2962.75           1392        6516.00     28397.33
 1244.06        2963.00           1396        8509.00     37102.30
 1244.09        2963.25           1399       10076.00     43949.80
 1244.12        2963.50           1402       11819.00     51569.70
 1244.15        2963.75           1406       14058.00     61363.08
 1244.18        2964.00           1409       15654.00     68347.50
 1244.21        2964.25           1412       17641.00     77047.11
 1244.24        2964.50           1416       19819.00     86588.19
 1244.27        2964.75           1419       21294.00     93052.78
 1244.30        2965.00           1422       23051.00    100756.60
 1244.34        2965.25           1426       25175.00    110074.30
 1244.37        2965.50           1429       26709.00    116807.00
 1244.40        2965.75           1432       28615.00    125176.30
 1244.43        2966.00           1436       30692.00    134301.10
 1244.46        2966.25           1439       32189.00    140881.00
 1244.49        2966.50           1442       33869.00    148268.40
 1244.52        2966.75           1446       35380.00    154915.30
 1244.55        2967.00           1449       35747.00    156530.20
 1244.58        2967.25           1452       36065.00    157929.60
 1244.61        2967.50           1456       35914.00    157265.10
 1244.65        2967.75           1459       35903.00    157216.70
 1244.68        2968.00           1462       35700.00    156323.40
 1244.71        2968.25           1466       34734.00    152073.20
 1244.74        2968.50           1469       33406.00    146232.10
 1244.77        2968.75           1472       31882.00    139531.40
 1244.80        2969.00           1476       29525.00    129173.60
 1244.83        2969.25           1479       27920.00    122124.00
 1244.86        2969.50           1482       26055.00    113936.30
 1244.89        2969.75           1486       23831.00    104177.70
 1244.92        2970.00           1489       22186.00     96963.42
 1244.95        2970.25           1492       20723.00     90549.93
 1244.98        2970.50           1496       18622.00     81343.87
 1245.01        2970.75           1499       16980.00     74152.57
 1245.04        2971.00           1502       15272.00     66675.52
 1245.07        2971.25           1506       13199.00     57605.13
 1245.10        2971.50           1509       11443.00     49925.64
 1245.14        2971.75           1513        9168.00     39981.67
 1245.17        2972.00           1516        7441.00     32436.96
 1245.20        2972.25           1519        5845.00     25467.58
 1245.23        2972.50           1523        3716.00     16175.24
 1245.26        2972.75           1526        2236.00      9718.61
 1245.29        2973.00           1529         989.00      4280.41
 1245.32        2973.25           1533         448.00      1921.65
 1245.35        2973.50           1536         373.00      1594.67
 1245.38        2973.75           1539         303.00      1289.50
 1245.41        2974.00           1543         263.00      1115.12
 1245.44        2974.25           1546         206.00       866.63
 1245.47        2974.50           1549         158.00       657.38
 1245.50        2974.75           1553         122.00       500.44
 1245.53        2975.00           1556         103.00       417.62
 1245.57        2975.25           1559          80.00       317.35
 1245.60        2975.50           1563          88.00       352.23
 1245.63        2975.75           1566          81.00       321.71
 1245.66        2976.00           1569          79.00       312.99
 1245.69        2976.25           1573          77.00       304.27
 1245.72        2976.50           1576          77.00       304.27
 1245.75        2976.75           1579          79.00       312.99
 1245.78        2977.00           1583          76.00       299.92
 1245.81        2977.25           1586          84.00       334.79
 1245.84        2977.50           1590          79.00       312.99
 1245.87        2977.75           1593          83.00       330.43
 1245.90        2978.00           1596          72.00       282.48
 1245.93        2978.25           1600          80.00       317.35
 1245.96        2978.50           1603          79.00       312.99
 1245.99        2978.75           1606          76.00       299.92
 1246.02        2979.00           1610          82.00       326.07
 1246.05        2979.25           1613          75.00       295.56
 1246.08        2979.50           1616          79.00       312.99
 1246.12        2979.75           1620          81.00       321.71
 1246.15        2980.00           1623          84.00       334.79
 1246.18        2980.25           1626          80.00       317.35
 1246.21        2980.50           1630          77.00       304.27
 1246.24        2980.75           1633          77.00       304.27
 1246.27        2981.00           1637          75.00       295.56
 1246.30        2981.25           1640          83.00       330.43
 1246.33        2981.50           1643          88.00       352.23
 1246.36        2981.75           1647          74.00       291.20
 1246.39        2982.00           1650          76.00       299.92
 1246.42        2982.25           1653          74.00       291.20
 1246.45        2982.50           1657          77.00       304.27
 1246.48        2982.75           1660          72.00       282.48
 1246.51        2983.00           1663          77.00       304.27
 1246.55        2983.25           1667          72.00       282.48
 1246.58        2983.50           1670          69.00       269.40
 1246.61        2983.75           1673          80.00       317.35
 1246.64        2984.00           1677          68.00       265.04
HS scan finished at 20:46:51
end
