************************************************************
  HS Scan of (1) Internal mercury lamp
************************************************************
Integration time is 0.2294 seconds per sample
dh160817Manchester 53.47 2.23 2.804185pr1000
************************************************************
Dead Time -------------------------  3E-08 
Number of Cycles Used -------------  4 
Starting Wavelength (Angstroms) ---  2950 
Final Wavelength (Angstoms) -------  2984 
Wavelength Increment (Angstroms) --  .25 
Filter Wheel #1 Position ---------- (1) Ground quartz diffuser (ND=2.32)
Filter Wheel #2 Position ---------- (1) Neutral Density 0.494



************************************************************
HS scan start time = 02:18:06
Dark Count =  3.9 


Time (GMT)  Wavelength (Ang)  Step Number  Raw Counts  Counts/Second

  138.48        2950.00           1222          82.00       340.46
  138.54        2950.25           1226          89.00       370.97
  138.57        2950.50           1229          93.00       388.41
  138.60        2950.75           1232          85.00       353.53
  138.64        2951.00           1236          84.00       349.18
  138.67        2951.25           1239          83.00       344.82
  138.70        2951.50           1242          77.00       318.66
  138.73        2951.75           1246          88.00       366.61
  138.76        2952.00           1249          87.00       362.25
  138.79        2952.25           1252          91.00       379.69
  138.82        2952.50           1256          86.00       357.89
  138.85        2952.75           1259          87.00       362.25
  138.88        2953.00           1262          86.00       357.89
  138.91        2953.25           1266          78.00       323.02
  138.94        2953.50           1269          77.00       318.66
  138.97        2953.75           1272          85.00       353.53
  139.00        2954.00           1276          81.00       336.10
  139.03        2954.25           1279          78.00       323.02
  139.06        2954.50           1282          79.00       327.38
  139.10        2954.75           1286          76.00       314.30
  139.13        2955.00           1289          86.00       357.89
  139.16        2955.25           1292          88.00       366.61
  139.19        2955.50           1296          78.00       323.02
  139.22        2955.75           1299          78.00       323.02
  139.25        2956.00           1302          75.00       309.94
  139.28        2956.25           1306          80.00       331.74
  139.31        2956.50           1309          87.00       362.25
  139.34        2956.75           1312          80.00       331.74
  139.37        2957.00           1316          89.00       370.97
  139.40        2957.25           1319          86.00       357.89
  139.44        2957.50           1322          85.00       353.53
  139.47        2957.75           1326          80.00       331.74
  139.50        2958.00           1329          83.00       344.82
  139.53        2958.25           1332          80.00       331.74
  139.56        2958.50           1336          85.00       353.53
  139.59        2958.75           1339          84.00       349.18
  139.62        2959.00           1342          84.00       349.18
  139.65        2959.25           1346          96.00       401.49
  139.68        2959.50           1349         103.00       432.00
  139.71        2959.75           1352         100.00       418.92
  139.74        2960.00           1356         131.00       554.06
  139.78        2960.25           1359         154.00       654.33
  139.81        2960.50           1362         190.00       811.27
  139.84        2960.75           1366         247.00      1059.75
  139.87        2961.00           1369         297.00      1277.73
  139.90        2961.25           1372         316.00      1360.56
  139.93        2961.50           1376         385.00      1661.37
  139.96        2961.75           1379         507.00      2193.26
  139.99        2962.00           1382        1109.00      4818.05
  140.02        2962.25           1386        2884.00     12559.66
  140.05        2962.50           1389        4380.00     19087.22
  140.09        2962.75           1392        5997.00     26145.61
  140.12        2963.00           1396        8037.00     35054.72
  140.15        2963.25           1399        9740.00     42495.73
  140.18        2963.50           1402       11310.00     49358.57
  140.21        2963.75           1406       13731.00     59946.86
  140.24        2964.00           1409       15223.00     66475.51
  140.27        2964.25           1412       16803.00     73392.02
  140.30        2964.50           1416       19217.00     83964.94
  140.33        2964.75           1419       20803.00     90915.02
  140.37        2965.00           1422       22517.00     98429.28
  140.40        2965.25           1426       24692.00    107969.50
  140.43        2965.50           1429       26503.00    115917.20
  140.46        2965.75           1432       28160.00    123192.50
  140.49        2966.00           1436       30481.00    133388.40
  140.52        2966.25           1439       31870.00    139493.20
  140.55        2966.50           1442       33405.00    146242.20
  140.58        2966.75           1446       34939.00    152989.60
  140.61        2967.00           1449       35353.00    154811.10
  140.64        2967.25           1452       35415.00    155083.90
  140.68        2967.50           1456       35531.00    155594.30
  140.71        2967.75           1459       35416.00    155088.30
  140.74        2968.00           1462       35395.00    154995.90
  140.77        2968.25           1466       34187.00    149681.50
  140.80        2968.50           1469       32610.00    142746.40
  140.83        2968.75           1472       31386.00    137365.70
  140.86        2969.00           1476       29042.00    127066.30
  140.89        2969.25           1479       27637.00    120895.90
  140.92        2969.50           1482       25831.00    112967.60
  140.95        2969.75           1486       23848.00    104266.80
  140.99        2970.00           1489       22216.00     97109.43
  141.02        2970.25           1492       20491.00     89547.56
  141.05        2970.50           1496       18475.00     80714.40
  141.08        2970.75           1499       16856.00     73624.08
  141.11        2971.00           1502       15107.00     65967.82
  141.14        2971.25           1506       12805.00     55896.19
  141.17        2971.50           1509       11096.00     48422.96
  141.20        2971.75           1513        8785.00     38322.59
  141.23        2972.00           1516        7226.00     31512.34
  141.26        2972.25           1519        5770.00     25154.55
  141.29        2972.50           1523        3746.00     16320.54
  141.33        2972.75           1526        2336.00     10169.19
  141.36        2973.00           1529        1205.00      5236.66
  141.39        2973.25           1533         546.00      2363.29
  141.42        2973.50           1536         394.00      1700.61
  141.45        2973.75           1539         341.00      1469.55
  141.48        2974.00           1543         285.00      1225.42
  141.51        2974.25           1546         222.00       950.77
  141.54        2974.50           1549         183.00       780.75
  141.57        2974.75           1553         129.00       545.34
  141.60        2975.00           1556         106.00       445.08
  141.63        2975.25           1559         100.00       418.92
  141.66        2975.50           1563          80.00       331.74
  141.69        2975.75           1566          74.00       305.58
  141.73        2976.00           1569          75.00       309.94
  141.76        2976.25           1573          75.00       309.94
  141.79        2976.50           1576          77.00       318.66
  141.82        2976.75           1579          84.00       349.18
  141.85        2977.00           1583          99.00       414.56
  141.88        2977.25           1586          78.00       323.02
  141.91        2977.50           1590          76.00       314.30
  141.94        2977.75           1593          68.00       279.43
  141.97        2978.00           1596          81.00       336.10
  142.00        2978.25           1600          80.00       331.74
  142.03        2978.50           1603          75.00       309.94
  142.06        2978.75           1606          77.00       318.66
  142.09        2979.00           1610          83.00       344.82
  142.13        2979.25           1613          75.00       309.94
  142.16        2979.50           1616          71.00       292.50
  142.19        2979.75           1620          71.00       292.50
  142.22        2980.00           1623          80.00       331.74
  142.25        2980.25           1626          79.00       327.38
  142.28        2980.50           1630          87.00       362.25
  142.31        2980.75           1633          70.00       288.15
  142.34        2981.00           1637          65.00       266.35
  142.37        2981.25           1640          73.00       301.22
  142.40        2981.50           1643          78.00       323.02
  142.43        2981.75           1647          80.00       331.74
  142.46        2982.00           1650          71.00       292.50
  142.49        2982.25           1653          78.00       323.02
  142.53        2982.50           1657          75.00       309.94
  142.56        2982.75           1660          83.00       344.82
  142.59        2983.00           1663          77.00       318.66
  142.62        2983.25           1667          73.00       301.22
  142.65        2983.50           1670          73.00       301.22
  142.68        2983.75           1673          68.00       279.43
  142.71        2984.00           1677          85.00       353.53
HS scan finished at 02:22:56
end
************************************************************
  HS Scan of (1) Internal mercury lamp
************************************************************
Integration time is 0.2294 seconds per sample
dh160817Manchester 53.47 2.23 2.965129pr1000
************************************************************
Dead Time -------------------------  3E-08 
Number of Cycles Used -------------  4 
Starting Wavelength (Angstroms) ---  2950 
Final Wavelength (Angstoms) -------  2984 
Wavelength Increment (Angstroms) --  .25 
Filter Wheel #1 Position ---------- (1) Ground quartz diffuser (ND=2.32)
Filter Wheel #2 Position ---------- (1) Neutral Density 0.494



************************************************************
HS scan start time = 20:42:02
Dark Count =  6.5 


Time (GMT)  Wavelength (Ang)  Step Number  Raw Counts  Counts/Second

 1242.41        2950.00           1222          85.00       342.20
 1242.48        2950.25           1226          91.00       368.36
 1242.51        2950.50           1229          78.00       311.69
 1242.54        2950.75           1232          89.00       359.64
 1242.57        2951.00           1236          84.00       337.84
 1242.60        2951.25           1239          87.00       350.92
 1242.63        2951.50           1242          79.00       316.04
 1242.66        2951.75           1246          86.00       346.56
 1242.69        2952.00           1249          85.00       342.20
 1242.72        2952.25           1252          89.00       359.64
 1242.75        2952.50           1256          89.00       359.64
 1242.78        2952.75           1259          83.00       333.48
 1242.81        2953.00           1262          87.00       350.92
 1242.84        2953.25           1266          84.00       337.84
 1242.88        2953.50           1269          89.00       359.64
 1242.91        2953.75           1272          80.00       320.40
 1242.94        2954.00           1276          87.00       350.92
 1242.97        2954.25           1279          81.00       324.76
 1243.00        2954.50           1282          76.00       302.97
 1243.03        2954.75           1286          84.00       337.84
 1243.06        2955.00           1289          87.00       350.92
 1243.09        2955.25           1292          82.00       329.12
 1243.12        2955.50           1296          82.00       329.12
 1243.15        2955.75           1299          78.00       311.69
 1243.18        2956.00           1302          85.00       342.20
 1243.22        2956.25           1306          90.00       364.00
 1243.25        2956.50           1309          81.00       324.76
 1243.28        2956.75           1312          78.00       311.69
 1243.31        2957.00           1316          86.00       346.56
 1243.34        2957.25           1319          88.00       355.28
 1243.37        2957.50           1322          94.00       381.43
 1243.40        2957.75           1326          85.00       342.20
 1243.43        2958.00           1329          86.00       346.56
 1243.46        2958.25           1332          89.00       359.64
 1243.49        2958.50           1336          92.00       372.72
 1243.52        2958.75           1339          90.00       364.00
 1243.56        2959.00           1342          83.00       333.48
 1243.59        2959.25           1346          89.00       359.64
 1243.62        2959.50           1349          95.00       385.79
 1243.65        2959.75           1352         105.00       429.39
 1243.68        2960.00           1356         132.00       547.09
 1243.71        2960.25           1359         179.00       751.98
 1243.74        2960.50           1362         215.00       908.92
 1243.77        2960.75           1366         286.00      1218.44
 1243.80        2961.00           1369         311.00      1327.43
 1243.83        2961.25           1372         366.00      1567.21
 1243.86        2961.50           1376         472.00      2029.33
 1243.89        2961.75           1379         822.00      3555.31
 1243.93        2962.00           1382        1865.00      8103.54
 1243.96        2962.25           1386        4051.00     17640.11
 1243.99        2962.50           1389        5735.00     24990.39
 1244.02        2962.75           1392        7422.00     32357.03
 1244.05        2963.00           1396        9677.00     42209.04
 1244.08        2963.25           1399       11448.00     49950.57
 1244.11        2963.50           1402       13176.00     57507.59
 1244.14        2963.75           1406       15467.00     67532.06
 1244.17        2964.00           1409       17253.00     75351.05
 1244.20        2964.25           1412       18950.00     82783.81
 1244.24        2964.50           1416       21318.00     93161.06
 1244.27        2964.75           1419       23081.00    100891.20
 1244.30        2965.00           1422       24685.00    107927.40
 1244.33        2965.25           1426       27055.00    118329.10
 1244.36        2965.50           1429       28587.00    125056.40
 1244.39        2965.75           1432       30632.00    134040.60
 1244.42        2966.00           1436       33066.00    144740.00
 1244.45        2966.25           1439       34741.00    152107.10
 1244.48        2966.50           1442       36162.00    158359.50
 1244.51        2966.75           1446       37328.00    163491.70
 1244.55        2967.00           1449       37652.00    164918.10
 1244.58        2967.25           1452       37534.00    164398.60
 1244.61        2967.50           1456       37425.00    163918.80
 1244.64        2967.75           1459       37427.00    163927.60
 1244.67        2968.00           1462       37122.00    162584.90
 1244.70        2968.25           1466       35697.00    156313.30
 1244.73        2968.50           1469       34010.00    148891.60
 1244.76        2968.75           1472       32186.00    140870.90
 1244.79        2969.00           1476       30191.00    132102.70
 1244.82        2969.25           1479       28201.00    123361.10
 1244.86        2969.50           1482       26437.00    115616.10
 1244.89        2969.75           1486       24362.00    106510.20
 1244.92        2970.00           1489       22701.00     99224.75
 1244.95        2970.25           1492       20980.00     91679.46
 1244.98        2970.50           1496       18775.00     82017.18
 1245.01        2970.75           1499       17016.00     74313.27
 1245.04        2971.00           1502       15171.00     66236.55
 1245.07        2971.25           1506       13003.00     56750.86
 1245.10        2971.50           1509       11156.00     48673.90
 1245.13        2971.75           1513        8970.00     39119.56
 1245.17        2972.00           1516        7288.00     31771.77
 1245.20        2972.25           1519        5366.00     23379.51
 1245.23        2972.50           1523        3096.00     13473.19
 1245.26        2972.75           1526        1600.00      6947.83
 1245.29        2973.00           1529         679.00      2931.82
 1245.32        2973.25           1533         468.00      2011.89
 1245.35        2973.50           1536         370.00      1584.64
 1245.38        2973.75           1539         328.00      1401.54
 1245.41        2974.00           1543         278.00      1183.56
 1245.44        2974.25           1546         203.00       856.60
 1245.47        2974.50           1549         158.00       660.43
 1245.50        2974.75           1553         134.00       555.81
 1245.53        2975.00           1556          88.00       355.28
 1245.57        2975.25           1559          81.00       324.76
 1245.60        2975.50           1563          80.00       320.40
 1245.63        2975.75           1566          84.00       337.84
 1245.66        2976.00           1569          76.00       302.97
 1245.69        2976.25           1573          71.00       281.17
 1245.72        2976.50           1576          85.00       342.20
 1245.75        2976.75           1579          77.00       307.33
 1245.78        2977.00           1583          78.00       311.69
 1245.81        2977.25           1586          76.00       302.97
 1245.84        2977.50           1590          75.00       298.61
 1245.87        2977.75           1593          76.00       302.97
 1245.90        2978.00           1596          78.00       311.69
 1245.93        2978.25           1600          79.00       316.04
 1245.97        2978.50           1603          72.00       285.53
 1246.00        2978.75           1606          84.00       337.84
 1246.03        2979.00           1610          80.00       320.40
 1246.06        2979.25           1613          79.00       316.04
 1246.09        2979.50           1616          78.00       311.69
 1246.12        2979.75           1620          77.00       307.33
 1246.15        2980.00           1623          73.00       289.89
 1246.18        2980.25           1626          76.00       302.97
 1246.21        2980.50           1630          73.00       289.89
 1246.24        2980.75           1633          70.00       276.81
 1246.27        2981.00           1637          69.00       272.45
 1246.30        2981.25           1640          82.00       329.12
 1246.33        2981.50           1643          77.00       307.33
 1246.37        2981.75           1647          68.00       268.09
 1246.40        2982.00           1650          81.00       324.76
 1246.43        2982.25           1653          71.00       281.17
 1246.46        2982.50           1657          73.00       289.89
 1246.49        2982.75           1660          69.00       272.45
 1246.52        2983.00           1663          72.00       285.53
 1246.55        2983.25           1667          79.00       316.04
 1246.58        2983.50           1670          71.00       281.17
 1246.61        2983.75           1673          74.00       294.25
 1246.64        2984.00           1677          69.00       272.45
HS scan finished at 20:46:52
end
