************************************************************
  HS Scan of (1) Internal mercury lamp
************************************************************
Integration time is 0.2294 seconds per sample
dh130817Manchester 53.47 2.23 2.804185pr1000
************************************************************
Dead Time -------------------------  3E-08 
Number of Cycles Used -------------  4 
Starting Wavelength (Angstroms) ---  2950 
Final Wavelength (Angstoms) -------  2984 
Wavelength Increment (Angstroms) --  .25 
Filter Wheel #1 Position ---------- (1) Ground quartz diffuser (ND=2.32)
Filter Wheel #2 Position ---------- (1) Neutral Density 0.494



************************************************************
HS scan start time = 01:41:43
Dark Count =  5.7 


Time (GMT)  Wavelength (Ang)  Step Number  Raw Counts  Counts/Second

  102.08        2950.00           1222          87.00       354.41
  102.15        2950.25           1226          91.00       371.84
  102.18        2950.50           1229          83.00       336.97
  102.21        2950.75           1232          94.00       384.92
  102.25        2951.00           1236          87.00       354.41
  102.28        2951.25           1239          80.00       323.89
  102.31        2951.50           1242          81.00       328.25
  102.34        2951.75           1246          91.00       371.84
  102.37        2952.00           1249          79.00       319.53
  102.40        2952.25           1252          87.00       354.41
  102.43        2952.50           1256          88.00       358.77
  102.46        2952.75           1259          96.00       393.64
  102.49        2953.00           1262          84.00       341.33
  102.52        2953.25           1266          89.00       363.13
  102.55        2953.50           1269          82.00       332.61
  102.58        2953.75           1272          90.00       367.48
  102.62        2954.00           1276          84.00       341.33
  102.65        2954.25           1279          80.00       323.89
  102.68        2954.50           1282          80.00       323.89
  102.71        2954.75           1286          84.00       341.33
  102.74        2955.00           1289          94.00       384.92
  102.77        2955.25           1292          87.00       354.41
  102.80        2955.50           1296          96.00       393.64
  102.83        2955.75           1299          86.00       350.05
  102.86        2956.00           1302          86.00       350.05
  102.89        2956.25           1306          88.00       358.77
  102.92        2956.50           1309          79.00       319.53
  102.95        2956.75           1312          83.00       336.97
  102.99        2957.00           1316          90.00       367.48
  103.02        2957.25           1319          89.00       363.13
  103.05        2957.50           1322          86.00       350.05
  103.08        2957.75           1326          81.00       328.25
  103.11        2958.00           1329          86.00       350.05
  103.14        2958.25           1332          78.00       315.17
  103.17        2958.50           1336          79.00       319.53
  103.20        2958.75           1339          83.00       336.97
  103.23        2959.00           1342          89.00       363.13
  103.26        2959.25           1346         102.00       419.80
  103.29        2959.50           1349          98.00       402.36
  103.32        2959.75           1352          99.00       406.72
  103.36        2960.00           1356         137.00       572.37
  103.39        2960.25           1359         174.00       733.67
  103.42        2960.50           1362         198.00       838.29
  103.45        2960.75           1366         244.00      1038.83
  103.48        2961.00           1369         295.00      1261.16
  103.51        2961.25           1372         350.00      1500.94
  103.54        2961.50           1376         443.00      1906.39
  103.57        2961.75           1379         695.00      3005.07
  103.60        2962.00           1382        1555.00      6755.07
  103.63        2962.25           1386        3517.00     15313.49
  103.66        2962.50           1389        4993.00     21754.82
  103.69        2962.75           1392        6670.00     29076.35
  103.73        2963.00           1396        8812.00     38432.69
  103.76        2963.25           1399       10380.00     45285.11
  103.79        2963.50           1402       11977.00     52267.16
  103.82        2963.75           1406       14302.00     62437.25
  103.85        2964.00           1409       15878.00     69334.57
  103.88        2964.25           1412       17423.00     76099.00
  103.91        2964.50           1416       19655.00     85876.15
  103.94        2964.75           1419       21081.00     92125.66
  103.97        2965.00           1422       22875.00     99991.31
  104.00        2965.25           1426       25052.00    109541.20
  104.04        2965.50           1429       26934.00    117801.40
  104.07        2965.75           1432       28707.00    125586.90
  104.10        2966.00           1436       30726.00    134457.20
  104.13        2966.25           1439       31935.00    139771.00
  104.16        2966.50           1442       33627.00    147210.60
  104.19        2966.75           1446       35178.00    154033.20
  104.22        2967.00           1449       35384.00    154939.50
  104.25        2967.25           1452       35322.00    154666.80
  104.28        2967.50           1456       35290.00    154525.90
  104.31        2967.75           1459       35273.00    154451.10
  104.35        2968.00           1462       35199.00    154125.60
  104.38        2968.25           1466       33908.00    148446.50
  104.41        2968.50           1469       32319.00    141459.10
  104.44        2968.75           1472       30781.00    134698.90
  104.47        2969.00           1476       28595.00    125095.00
  104.50        2969.25           1479       27090.00    118486.30
  104.53        2969.50           1482       25680.00    112297.00
  104.56        2969.75           1486       23669.00    103473.70
  104.59        2970.00           1489       22044.00     96347.41
  104.62        2970.25           1492       20347.00     88908.58
  104.66        2970.50           1496       18286.00     79878.65
  104.69        2970.75           1499       16619.00     72578.53
  104.72        2971.00           1502       14831.00     64752.08
  104.75        2971.25           1506       12564.00     54834.25
  104.78        2971.50           1509       11156.00     48677.40
  104.81        2971.75           1513        8978.00     39158.01
  104.84        2972.00           1516        7242.00     31574.36
  104.87        2972.25           1519        5715.00     24906.57
  104.90        2972.50           1523        3554.00     15474.92
  104.94        2972.75           1526        2069.00      8996.76
  104.97        2973.00           1529         974.00      4221.55
  105.00        2973.25           1533         491.00      2115.65
  105.03        2973.50           1536         371.00      1592.49
  105.06        2973.75           1539         350.00      1500.94
  105.09        2974.00           1543         287.00      1226.29
  105.12        2974.25           1546         227.00       964.72
  105.15        2974.50           1549         186.00       785.98
  105.18        2974.75           1553         133.00       554.94
  105.21        2975.00           1556         102.00       419.80
  105.25        2975.25           1559          90.00       367.48
  105.28        2975.50           1563          77.00       310.81
  105.31        2975.75           1566          78.00       315.17
  105.34        2976.00           1569          81.00       328.25
  105.37        2976.25           1573          85.00       345.69
  105.40        2976.50           1576          70.00       280.30
  105.43        2976.75           1579          80.00       323.89
  105.46        2977.00           1583          77.00       310.81
  105.49        2977.25           1586          74.00       297.74
  105.53        2977.50           1590          80.00       323.89
  105.56        2977.75           1593          72.00       289.02
  105.59        2978.00           1596          73.00       293.38
  105.62        2978.25           1600          76.00       306.45
  105.65        2978.50           1603          74.00       297.74
  105.68        2978.75           1606          89.00       363.13
  105.71        2979.00           1610          82.00       332.61
  105.74        2979.25           1613          83.00       336.97
  105.77        2979.50           1616          69.00       275.94
  105.80        2979.75           1620          72.00       289.02
  105.84        2980.00           1623          70.00       280.30
  105.87        2980.25           1626          76.00       306.45
  105.90        2980.50           1630          83.00       336.97
  105.93        2980.75           1633          78.00       315.17
  105.96        2981.00           1637          74.00       297.74
  105.99        2981.25           1640          77.00       310.81
  106.02        2981.50           1643          73.00       293.38
  106.05        2981.75           1647          76.00       306.45
  106.08        2982.00           1650          72.00       289.02
  106.11        2982.25           1653          76.00       306.45
  106.15        2982.50           1657          77.00       310.81
  106.18        2982.75           1660          72.00       289.02
  106.21        2983.00           1663          70.00       280.30
  106.24        2983.25           1667          62.00       245.42
  106.27        2983.50           1670          69.00       275.94
  106.30        2983.75           1673          79.00       319.53
  106.33        2984.00           1677          85.00       345.69
HS scan finished at 01:46:33
end
************************************************************
  HS Scan of (1) Internal mercury lamp
************************************************************
Integration time is 0.2294 seconds per sample
dh130817Manchester 53.47 2.23 2.965129pr1000
************************************************************
Dead Time -------------------------  3E-08 
Number of Cycles Used -------------  4 
Starting Wavelength (Angstroms) ---  2950 
Final Wavelength (Angstoms) -------  2984 
Wavelength Increment (Angstroms) --  .25 
Filter Wheel #1 Position ---------- (1) Ground quartz diffuser (ND=2.32)
Filter Wheel #2 Position ---------- (1) Neutral Density 0.494



************************************************************
HS scan start time = 20:42:01
Dark Count =  5.7 


Time (GMT)  Wavelength (Ang)  Step Number  Raw Counts  Counts/Second

 1242.39        2950.00           1222          82.00       332.61
 1242.45        2950.25           1226          85.00       345.69
 1242.48        2950.50           1229          87.00       354.41
 1242.51        2950.75           1232          88.00       358.77
 1242.55        2951.00           1236          91.00       371.84
 1242.58        2951.25           1239          91.00       371.84
 1242.61        2951.50           1242          91.00       371.84
 1242.64        2951.75           1246          89.00       363.13
 1242.67        2952.00           1249          79.00       319.53
 1242.70        2952.25           1252          84.00       341.33
 1242.73        2952.50           1256          92.00       376.20
 1242.76        2952.75           1259          82.00       332.61
 1242.79        2953.00           1262          85.00       345.69
 1242.82        2953.25           1266          83.00       336.97
 1242.85        2953.50           1269          87.00       354.41
 1242.88        2953.75           1272          78.00       315.17
 1242.91        2954.00           1276          92.00       376.20
 1242.94        2954.25           1279          84.00       341.33
 1242.97        2954.50           1282          89.00       363.13
 1243.00        2954.75           1286          76.00       306.45
 1243.03        2955.00           1289          73.00       293.38
 1243.07        2955.25           1292          89.00       363.13
 1243.10        2955.50           1296          78.00       315.17
 1243.13        2955.75           1299          83.00       336.97
 1243.16        2956.00           1302          94.00       384.92
 1243.19        2956.25           1306          91.00       371.84
 1243.22        2956.50           1309          83.00       336.97
 1243.25        2956.75           1312          91.00       371.84
 1243.28        2957.00           1316          85.00       345.69
 1243.31        2957.25           1319          77.00       310.81
 1243.34        2957.50           1322          77.00       310.81
 1243.38        2957.75           1326          93.00       380.56
 1243.41        2958.00           1329          85.00       345.69
 1243.44        2958.25           1332          80.00       323.89
 1243.47        2958.50           1336          86.00       350.05
 1243.50        2958.75           1339          85.00       345.69
 1243.53        2959.00           1342          88.00       358.77
 1243.56        2959.25           1346          90.00       367.48
 1243.59        2959.50           1349         104.00       428.51
 1243.62        2959.75           1352         116.00       480.83
 1243.65        2960.00           1356         149.00       624.68
 1243.68        2960.25           1359         177.00       746.75
 1243.72        2960.50           1362         236.00      1003.95
 1243.75        2960.75           1366         296.00      1265.52
 1243.78        2961.00           1369         344.00      1474.78
 1243.81        2961.25           1372         372.00      1596.85
 1243.84        2961.50           1376         443.00      1906.39
 1243.87        2961.75           1379         596.00      2573.43
 1243.90        2962.00           1382        1078.00      4675.02
 1243.93        2962.25           1386        2892.00     12586.71
 1243.96        2962.50           1389        4753.00     20707.28
 1244.00        2962.75           1392        6427.00     28015.25
 1244.03        2963.00           1396        8540.00     37244.29
 1244.06        2963.25           1399       10296.00     44917.94
 1244.09        2963.50           1402       12044.00     52560.15
 1244.12        2963.75           1406       14341.00     62607.90
 1244.15        2964.00           1409       16218.00     70822.94
 1244.18        2964.25           1412       17979.00     78534.00
 1244.21        2964.50           1416       20528.00     89701.84
 1244.24        2964.75           1419       22220.00     97119.09
 1244.27        2965.00           1422       23950.00    104706.30
 1244.31        2965.25           1426       26526.00    116010.30
 1244.34        2965.50           1429       28256.00    123606.20
 1244.37        2965.75           1432       29828.00    130511.30
 1244.40        2966.00           1436       32056.00    140302.90
 1244.43        2966.25           1439       33738.00    147698.80
 1244.46        2966.50           1442       35299.00    154565.50
 1244.49        2966.75           1446       37439.00    163983.90
 1244.52        2967.00           1449       38073.00    166775.30
 1244.55        2967.25           1452       38272.00    167651.50
 1244.59        2967.50           1456       38172.00    167211.20
 1244.62        2967.75           1459       38139.00    167065.90
 1244.65        2968.00           1462       38038.00    166621.10
 1244.68        2968.25           1466       37023.00    162152.60
 1244.71        2968.50           1469       35886.00    157148.50
 1244.74        2968.75           1472       34312.00    150223.40
 1244.77        2969.00           1476       32063.00    140333.70
 1244.80        2969.25           1479       30231.00    132282.00
 1244.83        2969.50           1482       28479.00    124585.50
 1244.86        2969.75           1486       26254.00    114816.30
 1244.89        2970.00           1489       24365.00    106526.90
 1244.93        2970.25           1492       22497.00     98333.69
 1244.96        2970.50           1496       20302.00     88711.38
 1244.99        2970.75           1499       18468.00     80675.85
 1245.02        2971.00           1502       16756.00     73178.35
 1245.05        2971.25           1506       14405.00     62887.93
 1245.08        2971.50           1509       12536.00     54711.79
 1245.11        2971.75           1513       10383.00     45298.22
 1245.14        2972.00           1516        8741.00     38122.48
 1245.17        2972.25           1519        6827.00     29761.96
 1245.21        2972.50           1523        4525.00     19712.18
 1245.24        2972.75           1526        2841.00     12364.22
 1245.27        2973.00           1529        1322.00      5739.00
 1245.30        2973.25           1533         527.00      2272.61
 1245.33        2973.50           1536         376.00      1614.29
 1245.36        2973.75           1539         318.00      1361.43
 1245.39        2974.00           1543         260.00      1108.58
 1245.42        2974.25           1546         191.00       807.78
 1245.45        2974.50           1549         150.00       629.04
 1245.48        2974.75           1553         111.00       459.03
 1245.52        2975.00           1556          86.00       350.05
 1245.55        2975.25           1559          90.00       367.48
 1245.58        2975.50           1563          82.00       332.61
 1245.61        2975.75           1566          83.00       336.97
 1245.64        2976.00           1569          74.00       297.74
 1245.67        2976.25           1573          83.00       336.97
 1245.70        2976.50           1576          73.00       293.38
 1245.73        2976.75           1579          77.00       310.81
 1245.76        2977.00           1583          73.00       293.38
 1245.79        2977.25           1586          78.00       315.17
 1245.82        2977.50           1590          75.00       302.10
 1245.85        2977.75           1593          81.00       328.25
 1245.88        2978.00           1596          80.00       323.89
 1245.91        2978.25           1600          80.00       323.89
 1245.94        2978.50           1603          79.00       319.53
 1245.98        2978.75           1606          87.00       354.41
 1246.01        2979.00           1610          77.00       310.81
 1246.04        2979.25           1613          71.00       284.66
 1246.07        2979.50           1616          80.00       323.89
 1246.10        2979.75           1620          83.00       336.97
 1246.13        2980.00           1623          78.00       315.17
 1246.16        2980.25           1626          81.00       328.25
 1246.19        2980.50           1630          73.00       293.38
 1246.22        2980.75           1633          83.00       336.97
 1246.26        2981.00           1637          83.00       336.97
 1246.29        2981.25           1640          79.00       319.53
 1246.32        2981.50           1643          69.00       275.94
 1246.35        2981.75           1647          69.00       275.94
 1246.38        2982.00           1650          69.00       275.94
 1246.41        2982.25           1653          79.00       319.53
 1246.44        2982.50           1657          70.00       280.30
 1246.47        2982.75           1660          73.00       293.38
 1246.51        2983.00           1663          72.00       289.02
 1246.54        2983.25           1667          71.00       284.66
 1246.57        2983.50           1670          73.00       293.38
 1246.60        2983.75           1673          77.00       310.81
 1246.63        2984.00           1677          73.00       293.38
HS scan finished at 20:46:51
end
