************************************************************
  HS Scan of (1) Internal mercury lamp
************************************************************
Integration time is 0.2294 seconds per sample
dh090818Manchester 53.47 2.23 2.804185pr1000
************************************************************
Dead Time -------------------------  3E-08 
Number of Cycles Used -------------  4 
Starting Wavelength (Angstroms) ---  2950 
Final Wavelength (Angstoms) -------  2984 
Wavelength Increment (Angstroms) --  .25 
Filter Wheel #1 Position ---------- (1) Ground quartz diffuser (ND=2.32)
Filter Wheel #2 Position ---------- (1) Neutral Density 0.494



************************************************************
HS scan start time = 02:19:26
Dark Count =  5.4 


Time (GMT)  Wavelength (Ang)  Step Number  Raw Counts  Counts/Second

  139.81        2950.00           1222          56.00       220.58
  139.87        2950.25           1226          52.00       203.14
  139.90        2950.50           1229          61.00       242.37
  139.93        2950.75           1232          49.00       190.06
  139.96        2951.00           1236          55.00       216.22
  140.00        2951.25           1239          53.00       207.50
  140.03        2951.50           1242          48.00       185.70
  140.06        2951.75           1246          52.00       203.14
  140.09        2952.00           1249          47.00       181.34
  140.12        2952.25           1252          53.00       207.50
  140.15        2952.50           1256          55.00       216.22
  140.18        2952.75           1259          46.00       176.98
  140.21        2953.00           1262          46.00       176.98
  140.24        2953.25           1266          53.00       207.50
  140.27        2953.50           1269          53.00       207.50
  140.30        2953.75           1272          50.00       194.42
  140.33        2954.00           1276          50.00       194.42
  140.36        2954.25           1279          61.00       242.37
  140.39        2954.50           1282          54.00       211.86
  140.42        2954.75           1286          51.00       198.78
  140.46        2955.00           1289          51.00       198.78
  140.49        2955.25           1292          58.00       229.30
  140.52        2955.50           1296          54.00       211.86
  140.55        2955.75           1299          59.00       233.65
  140.58        2956.00           1302          55.00       216.22
  140.61        2956.25           1306          48.00       185.70
  140.64        2956.50           1309          45.00       172.63
  140.67        2956.75           1312          44.00       168.27
  140.70        2957.00           1316          53.00       207.50
  140.73        2957.25           1319          47.00       181.34
  140.76        2957.50           1322          50.00       194.42
  140.79        2957.75           1326          56.00       220.58
  140.82        2958.00           1329          51.00       198.78
  140.85        2958.25           1332          51.00       198.78
  140.88        2958.50           1336          53.00       207.50
  140.91        2958.75           1339          59.00       233.65
  140.95        2959.00           1342          57.00       224.94
  140.98        2959.25           1346          55.00       216.22
  141.01        2959.50           1349          62.00       246.73
  141.04        2959.75           1352          81.00       329.56
  141.07        2960.00           1356          96.00       394.95
  141.10        2960.25           1359         129.00       538.81
  141.13        2960.50           1362         172.00       726.26
  141.16        2960.75           1366         208.00       883.20
  141.19        2961.00           1369         239.00      1018.34
  141.22        2961.25           1372         286.00      1223.24
  141.25        2961.50           1376         362.00      1554.56
  141.29        2961.75           1379         575.00      2483.18
  141.32        2962.00           1382        1251.00      5430.70
  141.35        2962.25           1386        2755.00     11990.36
  141.38        2962.50           1389        4103.00     17871.83
  141.41        2962.75           1392        5553.00     24200.65
  141.44        2963.00           1396        7282.00     31750.37
  141.47        2963.25           1399        8495.00     37049.01
  141.50        2963.50           1402        9946.00     43389.49
  141.53        2963.75           1406       11709.00     51096.58
  141.56        2964.00           1409       13127.00     57298.06
  141.59        2964.25           1412       14490.00     63261.18
  141.62        2964.50           1416       16286.00     71121.96
  141.65        2964.75           1419       17579.00     76783.46
  141.68        2965.00           1422       18913.00     82626.53
  141.72        2965.25           1426       20881.00     91250.33
  141.75        2965.50           1429       22170.00     96901.16
  141.78        2965.75           1432       23386.00    102233.70
  141.81        2966.00           1436       25389.00    111021.30
  141.84        2966.25           1439       26481.00    115814.10
  141.87        2966.50           1442       27511.00    120336.00
  141.90        2966.75           1446       28629.00    125245.60
  141.93        2967.00           1449       28958.00    126690.70
  141.96        2967.25           1452       28911.00    126484.30
  141.99        2967.50           1456       28845.00    126194.40
  142.03        2967.75           1459       28831.00    126132.90
  142.06        2968.00           1462       28654.00    125355.50
  142.09        2968.25           1466       27441.00    120028.60
  142.12        2968.50           1469       26108.00    114176.80
  142.15        2968.75           1472       24997.00    109301.20
  142.18        2969.00           1476       23289.00    101808.30
  142.21        2969.25           1479       21883.00     95642.82
  142.24        2969.50           1482       20622.00     90115.14
  142.27        2969.75           1486       18810.00     82175.31
  142.31        2970.00           1489       17379.00     75907.63
  142.34        2970.25           1492       16110.00     70351.46
  142.37        2970.50           1496       14410.00     62911.13
  142.40        2970.75           1499       13050.00     56961.25
  142.43        2971.00           1502       11683.00     50982.89
  142.46        2971.25           1506        9913.00     43245.26
  142.49        2971.50           1509        8446.00     36834.93
  142.52        2971.75           1513        6780.00     29558.02
  142.55        2972.00           1516        5481.00     23886.34
  142.58        2972.25           1519        4132.00     17998.38
  142.61        2972.50           1523        2522.00     10973.97
  142.65        2972.75           1526        1355.00      5884.21
  142.68        2973.00           1529         566.00      2443.95
  142.71        2973.25           1533         322.00      1380.18
  142.74        2973.50           1536         261.00      1114.25
  142.77        2973.75           1539         235.00      1000.90
  142.80        2974.00           1543         193.00       817.81
  142.83        2974.25           1546         139.00       582.40
  142.86        2974.50           1549         115.00       477.77
  142.89        2974.75           1553          79.00       320.84
  142.92        2975.00           1556          65.00       259.81
  142.95        2975.25           1559          54.00       211.86
  142.98        2975.50           1563          53.00       207.50
  143.02        2975.75           1566          44.00       168.27
  143.05        2976.00           1569          46.00       176.98
  143.08        2976.25           1573          48.00       185.70
  143.11        2976.50           1576          45.00       172.63
  143.14        2976.75           1579          62.00       246.73
  143.17        2977.00           1583          55.00       216.22
  143.20        2977.25           1586          51.00       198.78
  143.23        2977.50           1590          50.00       194.42
  143.26        2977.75           1593          47.00       181.34
  143.29        2978.00           1596          44.00       168.27
  143.32        2978.25           1600          53.00       207.50
  143.36        2978.50           1603          54.00       211.86
  143.39        2978.75           1606          45.00       172.63
  143.42        2979.00           1610          50.00       194.42
  143.45        2979.25           1613          48.00       185.70
  143.48        2979.50           1616          56.00       220.58
  143.51        2979.75           1620          51.00       198.78
  143.54        2980.00           1623          46.00       176.98
  143.57        2980.25           1626          48.00       185.70
  143.60        2980.50           1630          47.00       181.34
  143.63        2980.75           1633          50.00       194.42
  143.66        2981.00           1637          43.00       163.91
  143.69        2981.25           1640          48.00       185.70
  143.72        2981.50           1643          49.00       190.06
  143.75        2981.75           1647          47.00       181.34
  143.79        2982.00           1650          46.00       176.98
  143.82        2982.25           1653          53.00       207.50
  143.85        2982.50           1657          50.00       194.42
  143.88        2982.75           1660          51.00       198.78
  143.91        2983.00           1663          51.00       198.78
  143.94        2983.25           1667          44.00       168.27
  143.97        2983.50           1670          46.00       176.98
  144.00        2983.75           1673          48.00       185.70
  144.03        2984.00           1677          50.00       194.42
HS scan finished at 02:24:15
end
************************************************************
  HS Scan of (1) Internal mercury lamp
************************************************************
Integration time is 0.2294 seconds per sample
dh090818Manchester 53.47 2.23 2.857833pr1000
************************************************************
Dead Time -------------------------  3E-08 
Number of Cycles Used -------------  4 
Starting Wavelength (Angstroms) ---  2950 
Final Wavelength (Angstoms) -------  2984 
Wavelength Increment (Angstroms) --  .25 
Filter Wheel #1 Position ---------- (1) Ground quartz diffuser (ND=2.32)
Filter Wheel #2 Position ---------- (1) Neutral Density 0.494



************************************************************
HS scan start time = 20:42:03
Dark Count =  4.4 


Time (GMT)  Wavelength (Ang)  Step Number  Raw Counts  Counts/Second

 1242.43        2950.00           1222          53.00       211.86
 1242.49        2950.25           1226          47.00       185.70
 1242.52        2950.50           1229          53.00       211.86
 1242.56        2950.75           1232          51.00       203.14
 1242.59        2951.00           1236          55.00       220.58
 1242.62        2951.25           1239          62.00       251.09
 1242.65        2951.50           1242          52.00       207.50
 1242.68        2951.75           1246          54.00       216.22
 1242.71        2952.00           1249          52.00       207.50
 1242.74        2952.25           1252          54.00       216.22
 1242.77        2952.50           1256          51.00       203.14
 1242.81        2952.75           1259          51.00       203.14
 1242.84        2953.00           1262          53.00       211.86
 1242.87        2953.25           1266          53.00       211.86
 1242.90        2953.50           1269          51.00       203.14
 1242.93        2953.75           1272          45.00       176.98
 1242.96        2954.00           1276          58.00       233.65
 1242.99        2954.25           1279          55.00       220.58
 1243.02        2954.50           1282          52.00       207.50
 1243.06        2954.75           1286          57.00       229.30
 1243.09        2955.00           1289          54.00       216.22
 1243.12        2955.25           1292          50.00       198.78
 1243.15        2955.50           1296          62.00       251.09
 1243.18        2955.75           1299          46.00       181.34
 1243.21        2956.00           1302          48.00       190.06
 1243.24        2956.25           1306          58.00       233.65
 1243.27        2956.50           1309          56.00       224.94
 1243.30        2956.75           1312          59.00       238.01
 1243.34        2957.00           1316          53.00       211.86
 1243.37        2957.25           1319          54.00       216.22
 1243.40        2957.50           1322          52.00       207.50
 1243.43        2957.75           1326          59.00       238.01
 1243.46        2958.00           1329          53.00       211.86
 1243.49        2958.25           1332          55.00       220.58
 1243.52        2958.50           1336          56.00       224.94
 1243.55        2958.75           1339          55.00       220.58
 1243.58        2959.00           1342          58.00       233.65
 1243.61        2959.25           1346          53.00       211.86
 1243.64        2959.50           1349          61.00       246.73
 1243.68        2959.75           1352          65.00       264.17
 1243.71        2960.00           1356          97.00       403.67
 1243.74        2960.25           1359         121.00       508.29
 1243.77        2960.50           1362         152.00       643.43
 1243.80        2960.75           1366         189.00       804.73
 1243.83        2961.00           1369         230.00       983.46
 1243.86        2961.25           1372         268.00      1149.12
 1243.89        2961.50           1376         339.00      1458.65
 1243.92        2961.75           1379         499.00      2156.20
 1243.96        2962.00           1382        1117.00      4850.75
 1243.99        2962.25           1386        2582.00     11240.06
 1244.02        2962.50           1389        3959.00     17247.81
 1244.05        2962.75           1392        5277.00     23000.17
 1244.08        2963.00           1396        6943.00     30274.22
 1244.11        2963.25           1399        8265.00     36048.56
 1244.14        2963.50           1402        9599.00     41877.34
 1244.17        2963.75           1406       11393.00     49719.27
 1244.20        2964.00           1409       12554.00     54796.20
 1244.24        2964.25           1412       14035.00     61274.69
 1244.27        2964.50           1416       15891.00     69397.18
 1244.30        2964.75           1419       17260.00     75390.90
 1244.33        2965.00           1422       18407.00     80414.34
 1244.36        2965.25           1426       20479.00     89492.78
 1244.39        2965.50           1429       21973.00     96041.81
 1244.42        2965.75           1432       23030.00    100676.80
 1244.45        2966.00           1436       25058.00    109573.20
 1244.48        2966.25           1439       26148.00    114356.80
 1244.52        2966.50           1442       27560.00    120555.50
 1244.55        2966.75           1446       28867.00    126295.40
 1244.58        2967.00           1449       29083.00    127244.20
 1244.61        2967.25           1452       28997.00    126866.40
 1244.64        2967.50           1456       29071.00    127191.50
 1244.67        2967.75           1459       29147.00    127525.30
 1244.70        2968.00           1462       29002.00    126888.40
 1244.73        2968.25           1466       28067.00    122781.90
 1244.76        2968.50           1469       26959.00    117916.80
 1244.80        2968.75           1472       25565.00    111798.10
 1244.83        2969.00           1476       23939.00    104663.80
 1244.86        2969.25           1479       22693.00     99198.87
 1244.89        2969.50           1482       21354.00     93328.08
 1244.92        2969.75           1486       19697.00     86065.87
 1244.95        2970.00           1489       18406.00     80409.96
 1244.98        2970.25           1492       17024.00     74357.50
 1245.01        2970.50           1496       15176.00     66267.62
 1245.05        2970.75           1499       13740.00     59984.05
 1245.08        2971.00           1502       12514.00     54621.25
 1245.11        2971.25           1506       10496.00     45797.84
 1245.14        2971.50           1509        9301.00     40575.08
 1245.17        2971.75           1513        7388.00     32217.70
 1245.20        2972.00           1516        6058.00     26409.76
 1245.23        2972.25           1519        4757.00     20730.41
 1245.26        2972.50           1523        3009.00     13102.80
 1245.29        2972.75           1526        1767.00      7685.29
 1245.32        2973.00           1529         820.00      3555.74
 1245.36        2973.25           1533         354.00      1524.05
 1245.39        2973.50           1536         291.00      1249.39
 1245.42        2973.75           1539         235.00      1005.26
 1245.45        2974.00           1543         200.00       852.68
 1245.48        2974.25           1546         151.00       639.07
 1245.51        2974.50           1549         119.00       499.57
 1245.54        2974.75           1553          86.00       355.71
 1245.57        2975.00           1556          74.00       303.40
 1245.60        2975.25           1559          55.00       220.58
 1245.63        2975.50           1563          52.00       207.50
 1245.67        2975.75           1566          45.00       176.98
 1245.70        2976.00           1569          47.00       185.70
 1245.73        2976.25           1573          49.00       194.42
 1245.76        2976.50           1576          48.00       190.06
 1245.79        2976.75           1579          54.00       216.22
 1245.82        2977.00           1583          47.00       185.70
 1245.85        2977.25           1586          44.00       172.63
 1245.88        2977.50           1590          60.00       242.37
 1245.91        2977.75           1593          51.00       203.14
 1245.94        2978.00           1596          49.00       194.42
 1245.98        2978.25           1600          58.00       233.65
 1246.01        2978.50           1603          46.00       181.34
 1246.04        2978.75           1606          44.00       172.63
 1246.07        2979.00           1610          51.00       203.14
 1246.10        2979.25           1613          52.00       207.50
 1246.13        2979.50           1616          47.00       185.70
 1246.16        2979.75           1620          57.00       229.30
 1246.19        2980.00           1623          48.00       190.06
 1246.22        2980.25           1626          46.00       181.34
 1246.25        2980.50           1630          48.00       190.06
 1246.28        2980.75           1633          48.00       190.06
 1246.31        2981.00           1637          49.00       194.42
 1246.34        2981.25           1640          53.00       211.86
 1246.38        2981.50           1643          49.00       194.42
 1246.41        2981.75           1647          45.00       176.98
 1246.44        2982.00           1650          55.00       220.58
 1246.47        2982.25           1653          48.00       190.06
 1246.50        2982.50           1657          46.00       181.34
 1246.53        2982.75           1660          47.00       185.70
 1246.56        2983.00           1663          47.00       185.70
 1246.59        2983.25           1667          49.00       194.42
 1246.62        2983.50           1670          41.00       159.55
 1246.65        2983.75           1673          49.00       194.42
 1246.69        2984.00           1677          52.00       207.50
HS scan finished at 20:46:54
end
