************************************************************
  HS Scan of (1) Internal mercury lamp
************************************************************
Integration time is 0.2294 seconds per sample
dh140818Manchester 53.47 2.23 2.911481pr1000
************************************************************
Dead Time -------------------------  3E-08 
Number of Cycles Used -------------  4 
Starting Wavelength (Angstroms) ---  2950 
Final Wavelength (Angstoms) -------  2984 
Wavelength Increment (Angstroms) --  .25 
Filter Wheel #1 Position ---------- (1) Ground quartz diffuser (ND=2.32)
Filter Wheel #2 Position ---------- (1) Neutral Density 0.494



************************************************************
HS scan start time = 01:40:37
Dark Count =  7.7 


Time (GMT)  Wavelength (Ang)  Step Number  Raw Counts  Counts/Second

  100.98        2950.00           1222          55.00       206.19
  101.05        2950.25           1226          55.00       206.19
  101.08        2950.50           1229          46.00       166.96
  101.11        2950.75           1232          57.00       214.91
  101.14        2951.00           1236          55.00       206.19
  101.17        2951.25           1239          51.00       188.75
  101.20        2951.50           1242          50.00       184.40
  101.23        2951.75           1246          50.00       184.40
  101.26        2952.00           1249          55.00       206.19
  101.30        2952.25           1252          49.00       180.04
  101.33        2952.50           1256          57.00       214.91
  101.36        2952.75           1259          54.00       201.83
  101.39        2953.00           1262          46.00       166.96
  101.42        2953.25           1266          58.00       219.27
  101.45        2953.50           1269          42.00       149.52
  101.48        2953.75           1272          55.00       206.19
  101.51        2954.00           1276          46.00       166.96
  101.54        2954.25           1279          52.00       193.11
  101.57        2954.50           1282          49.00       180.04
  101.61        2954.75           1286          63.00       241.07
  101.64        2955.00           1289          50.00       184.40
  101.67        2955.25           1292          50.00       184.40
  101.70        2955.50           1296          57.00       214.91
  101.73        2955.75           1299          52.00       193.11
  101.76        2956.00           1302          62.00       236.71
  101.79        2956.25           1306          58.00       219.27
  101.82        2956.50           1309          53.00       197.47
  101.85        2956.75           1312          47.00       171.32
  101.88        2957.00           1316          52.00       193.11
  101.91        2957.25           1319          52.00       193.11
  101.94        2957.50           1322          51.00       188.75
  101.98        2957.75           1326          53.00       197.47
  102.01        2958.00           1329          61.00       232.35
  102.04        2958.25           1332          57.00       214.91
  102.07        2958.50           1336          55.00       206.19
  102.10        2958.75           1339          53.00       197.47
  102.13        2959.00           1342          52.00       193.11
  102.16        2959.25           1346          57.00       214.91
  102.19        2959.50           1349          60.00       227.99
  102.22        2959.75           1352          69.00       267.22
  102.25        2960.00           1356          94.00       376.20
  102.28        2960.25           1359         123.00       502.62
  102.31        2960.50           1362         163.00       677.00
  102.35        2960.75           1366         219.00       921.12
  102.38        2961.00           1369         259.00      1095.50
  102.41        2961.25           1372         295.00      1252.44
  102.44        2961.50           1376         438.00      1875.87
  102.47        2961.75           1379         929.00      4016.61
  102.50        2962.00           1382        2058.00      8940.06
  102.53        2962.25           1386        3778.00     16443.59
  102.56        2962.50           1389        5063.00     22051.64
  102.59        2962.75           1392        6368.00     27748.90
  102.62        2963.00           1396        8088.00     35260.90
  102.65        2963.25           1399        9457.00     41242.36
  102.69        2963.50           1402       10907.00     47580.07
  102.72        2963.75           1406       12699.00     55415.94
  102.75        2964.00           1409       13962.00     60940.87
  102.78        2964.25           1412       15256.00     66603.31
  102.81        2964.50           1416       17273.00     75433.38
  102.84        2964.75           1419       18697.00     81670.21
  102.87        2965.00           1422       20024.00     87484.32
  102.90        2965.25           1426       21997.00     96132.56
  102.93        2965.50           1429       23383.00    102210.50
  102.97        2965.75           1432       24759.00    108246.80
  103.00        2966.00           1436       26614.00    116387.80
  103.03        2966.25           1439       27781.00    121511.50
  103.06        2966.50           1442       29001.00    126869.50
  103.09        2966.75           1446       29544.00    129254.80
  103.12        2967.00           1449       29845.00    130577.20
  103.15        2967.25           1452       29788.00    130326.80
  103.18        2967.50           1456       29756.00    130186.20
  103.21        2967.75           1459       29769.00    130243.30
  103.24        2968.00           1462       29536.00    129219.70
  103.28        2968.25           1466       27747.00    121362.20
  103.31        2968.50           1469       26772.00    117081.40
  103.34        2968.75           1472       25297.00    110607.50
  103.37        2969.00           1476       23560.00    102986.80
  103.40        2969.25           1479       22233.00     97167.32
  103.43        2969.50           1482       20742.00     90631.01
  103.46        2969.75           1486       18998.00     82988.85
  103.49        2970.00           1489       17772.00     77618.63
  103.52        2970.25           1492       16415.00     71676.63
  103.55        2970.50           1496       14686.00     64108.80
  103.58        2970.75           1499       13151.00     57392.98
  103.62        2971.00           1502       11697.00     51034.05
  103.65        2971.25           1506        9746.00     42505.35
  103.68        2971.50           1509        8491.00     37021.48
  103.71        2971.75           1513        6735.00     29351.47
  103.74        2972.00           1516        5264.00     22929.02
  103.77        2972.25           1519        3974.00     17298.86
  103.80        2972.50           1523        2242.00      9742.60
  103.83        2972.75           1526        1078.00      4666.30
  103.86        2973.00           1529         534.00      2294.40
  103.89        2973.25           1533         349.00      1487.86
  103.92        2973.50           1536         296.00      1256.80
  103.96        2973.75           1539         260.00      1099.86
  103.99        2974.00           1543         205.00       860.09
  104.02        2974.25           1546         161.00       668.28
  104.05        2974.50           1549         127.00       520.06
  104.08        2974.75           1553          81.00       319.53
  104.11        2975.00           1556          73.00       284.66
  104.14        2975.25           1559          49.00       180.04
  104.17        2975.50           1563          54.00       201.83
  104.20        2975.75           1566          49.00       180.04
  104.23        2976.00           1569          42.00       149.52
  104.26        2976.25           1573          55.00       206.19
  104.29        2976.50           1576          50.00       184.40
  104.32        2976.75           1579          49.00       180.04
  104.35        2977.00           1583          48.00       175.68
  104.38        2977.25           1586          55.00       206.19
  104.42        2977.50           1590          53.00       197.47
  104.45        2977.75           1593          52.00       193.11
  104.48        2978.00           1596          53.00       197.47
  104.51        2978.25           1600          46.00       166.96
  104.54        2978.50           1603          54.00       201.83
  104.57        2978.75           1606          50.00       184.40
  104.60        2979.00           1610          53.00       197.47
  104.63        2979.25           1613          45.00       162.60
  104.66        2979.50           1616          49.00       180.04
  104.69        2979.75           1620          51.00       188.75
  104.72        2980.00           1623          48.00       175.68
  104.76        2980.25           1626          48.00       175.68
  104.79        2980.50           1630          53.00       197.47
  104.82        2980.75           1633          52.00       193.11
  104.85        2981.00           1637          46.00       166.96
  104.88        2981.25           1640          48.00       175.68
  104.91        2981.50           1643          55.00       206.19
  104.94        2981.75           1647          51.00       188.75
  104.97        2982.00           1650          42.00       149.52
  105.00        2982.25           1653          44.00       158.24
  105.03        2982.50           1657          63.00       241.07
  105.06        2982.75           1660          51.00       188.75
  105.09        2983.00           1663          47.00       171.32
  105.13        2983.25           1667          50.00       184.40
  105.16        2983.50           1670          51.00       188.75
  105.19        2983.75           1673          50.00       184.40
  105.22        2984.00           1677          51.00       188.75
HS scan finished at 01:45:26
end
************************************************************
  HS Scan of (1) Internal mercury lamp
************************************************************
Integration time is 0.2294 seconds per sample
dh140818Manchester 53.47 2.23 3.072425pr1000
************************************************************
Dead Time -------------------------  3E-08 
Number of Cycles Used -------------  4 
Starting Wavelength (Angstroms) ---  2950 
Final Wavelength (Angstoms) -------  2984 
Wavelength Increment (Angstroms) --  .25 
Filter Wheel #1 Position ---------- (1) Ground quartz diffuser (ND=2.32)
Filter Wheel #2 Position ---------- (1) Neutral Density 0.494



************************************************************
HS scan start time = 20:42:08
Dark Count =  7.5 


Time (GMT)  Wavelength (Ang)  Step Number  Raw Counts  Counts/Second

 1242.50        2950.00           1222          55.00       207.06
 1242.57        2950.25           1226          57.00       215.78
 1242.60        2950.50           1229          50.00       185.27
 1242.63        2950.75           1232          57.00       215.78
 1242.66        2951.00           1236          54.00       202.70
 1242.69        2951.25           1239          51.00       189.63
 1242.72        2951.50           1242          60.00       228.86
 1242.75        2951.75           1246          52.00       193.99
 1242.78        2952.00           1249          51.00       189.63
 1242.81        2952.25           1252          51.00       189.63
 1242.85        2952.50           1256          50.00       185.27
 1242.88        2952.75           1259          55.00       207.06
 1242.91        2953.00           1262          53.00       198.34
 1242.94        2953.25           1266          44.00       159.11
 1242.97        2953.50           1269          47.00       172.19
 1243.00        2953.75           1272          53.00       198.34
 1243.03        2954.00           1276          55.00       207.06
 1243.06        2954.25           1279          56.00       211.42
 1243.09        2954.50           1282          49.00       180.91
 1243.12        2954.75           1286          53.00       198.34
 1243.15        2955.00           1289          49.00       180.91
 1243.18        2955.25           1292          52.00       193.99
 1243.22        2955.50           1296          56.00       211.42
 1243.25        2955.75           1299          55.00       207.06
 1243.28        2956.00           1302          48.00       176.55
 1243.31        2956.25           1306          51.00       189.63
 1243.34        2956.50           1309          50.00       185.27
 1243.37        2956.75           1312          52.00       193.99
 1243.40        2957.00           1316          46.00       167.83
 1243.43        2957.25           1319          44.00       159.11
 1243.46        2957.50           1322          50.00       185.27
 1243.49        2957.75           1326          54.00       202.70
 1243.52        2958.00           1329          46.00       167.83
 1243.55        2958.25           1332          51.00       189.63
 1243.58        2958.50           1336          53.00       198.34
 1243.62        2958.75           1339          55.00       207.06
 1243.65        2959.00           1342          55.00       207.06
 1243.68        2959.25           1346          58.00       220.14
 1243.71        2959.50           1349          64.00       246.30
 1243.74        2959.75           1352          90.00       359.64
 1243.77        2960.00           1356         118.00       481.70
 1243.80        2960.25           1359         160.00       664.79
 1243.83        2960.50           1362         189.00       791.21
 1243.86        2960.75           1366         255.00      1078.94
 1243.90        2961.00           1369         298.00      1266.40
 1243.93        2961.25           1372         308.00      1309.99
 1243.96        2961.50           1376         389.00      1663.12
 1243.99        2961.75           1379         541.00      2325.79
 1244.02        2962.00           1382        1177.00      5098.86
 1244.05        2962.25           1386        2720.00     11828.52
 1244.08        2962.50           1389        4119.00     17932.49
 1244.11        2962.75           1392        5464.00     23802.96
 1244.14        2963.00           1396        7444.00     32448.75
 1244.17        2963.25           1399        8795.00     38350.55
 1244.21        2963.50           1402       10208.00     44525.44
 1244.24        2963.75           1406       12478.00     54450.25
 1244.27        2964.00           1409       13990.00     61064.25
 1244.30        2964.25           1412       15656.00     68354.95
 1244.33        2964.50           1416       17519.00     76511.52
 1244.36        2964.75           1419       18935.00     82713.71
 1244.39        2965.00           1422       20509.00     89610.69
 1244.42        2965.25           1426       22512.00     98391.57
 1244.46        2965.50           1429       23827.00    104158.90
 1244.49        2965.75           1432       25361.00    110889.20
 1244.52        2966.00           1436       27152.00    118750.60
 1244.55        2966.25           1439       28687.00    125491.20
 1244.58        2966.50           1442       30077.00    131597.40
 1244.61        2966.75           1446       31295.00    136949.90
 1244.64        2967.00           1449       31598.00    138281.70
 1244.67        2967.25           1452       31577.00    138189.40
 1244.70        2967.50           1456       31685.00    138664.10
 1244.74        2967.75           1459       31618.00    138369.60
 1244.77        2968.00           1462       31430.00    137543.30
 1244.80        2968.25           1466       30476.00    133350.60
 1244.83        2968.50           1469       29149.00    127520.50
 1244.86        2968.75           1472       27794.00    121569.40
 1244.89        2969.00           1476       25874.00    113140.60
 1244.92        2969.25           1479       24417.00    106747.20
 1244.95        2969.50           1482       23003.00    100544.80
 1244.98        2969.75           1486       21026.00     91876.69
 1245.01        2970.00           1489       19446.00     84952.50
 1245.04        2970.25           1492       18037.00     78780.13
 1245.07        2970.50           1496       16122.00     70394.80
 1245.11        2970.75           1499       14808.00     64643.55
 1245.14        2971.00           1502       13281.00     57962.52
 1245.17        2971.25           1506       11364.00     49578.92
 1245.20        2971.50           1509        9817.00     42816.52
 1245.23        2971.75           1513        8005.00     34899.21
 1245.26        2972.00           1516        6539.00     28496.45
 1245.29        2972.25           1519        5191.00     22611.24
 1245.32        2972.50           1523        3136.00     13643.33
 1245.35        2972.75           1526        1752.00      7606.36
 1245.39        2973.00           1529         761.00      3284.98
 1245.42        2973.25           1533         386.00      1650.04
 1245.45        2973.50           1536         311.00      1323.07
 1245.48        2973.75           1539         251.00      1061.50
 1245.51        2974.00           1543         201.00       843.53
 1245.54        2974.25           1546         151.00       625.56
 1245.57        2974.50           1549         127.00       520.93
 1245.60        2974.75           1553          81.00       320.40
 1245.63        2975.00           1556          72.00       281.17
 1245.66        2975.25           1559          56.00       211.42
 1245.69        2975.50           1563          49.00       180.91
 1245.72        2975.75           1566          52.00       193.99
 1245.75        2976.00           1569          50.00       185.27
 1245.78        2976.25           1573          53.00       198.34
 1245.82        2976.50           1576          57.00       215.78
 1245.85        2976.75           1579          49.00       180.91
 1245.88        2977.00           1583          53.00       198.34
 1245.91        2977.25           1586          57.00       215.78
 1245.94        2977.50           1590          48.00       176.55
 1245.97        2977.75           1593          47.00       172.19
 1246.00        2978.00           1596          58.00       220.14
 1246.03        2978.25           1600          48.00       176.55
 1246.06        2978.50           1603          47.00       172.19
 1246.09        2978.75           1606          46.00       167.83
 1246.12        2979.00           1610          48.00       176.55
 1246.15        2979.25           1613          54.00       202.70
 1246.19        2979.50           1616          43.00       154.75
 1246.22        2979.75           1620          43.00       154.75
 1246.25        2980.00           1623          41.00       146.03
 1246.28        2980.25           1626          53.00       198.34
 1246.31        2980.50           1630          46.00       167.83
 1246.34        2980.75           1633          54.00       202.70
 1246.37        2981.00           1637          59.00       224.50
 1246.40        2981.25           1640          51.00       189.63
 1246.43        2981.50           1643          47.00       172.19
 1246.46        2981.75           1647          48.00       176.55
 1246.50        2982.00           1650          50.00       185.27
 1246.53        2982.25           1653          53.00       198.34
 1246.56        2982.50           1657          53.00       198.34
 1246.59        2982.75           1660          42.00       150.39
 1246.62        2983.00           1663          50.00       185.27
 1246.65        2983.25           1667          60.00       228.86
 1246.68        2983.50           1670          47.00       172.19
 1246.71        2983.75           1673          55.00       207.06
 1246.74        2984.00           1677          40.00       141.67
HS scan finished at 20:46:57
end
