************************************************************
  HS Scan of (1) Internal mercury lamp
************************************************************
Integration time is 0.2294 seconds per sample
dh080818Manchester 53.47 2.23 2.857833pr1000
************************************************************
Dead Time -------------------------  3E-08 
Number of Cycles Used -------------  4 
Starting Wavelength (Angstroms) ---  2950 
Final Wavelength (Angstoms) -------  2984 
Wavelength Increment (Angstroms) --  .25 
Filter Wheel #1 Position ---------- (1) Ground quartz diffuser (ND=2.32)
Filter Wheel #2 Position ---------- (1) Neutral Density 0.494



************************************************************
HS scan start time = 01:42:51
Dark Count =  8.5 


Time (GMT)  Wavelength (Ang)  Step Number  Raw Counts  Counts/Second

  103.22        2950.00           1222          58.00       215.78
  103.29        2950.25           1226          54.00       198.34
  103.32        2950.50           1229          56.00       207.06
  103.35        2950.75           1232          52.00       189.63
  103.38        2951.00           1236          50.00       180.91
  103.41        2951.25           1239          56.00       207.06
  103.44        2951.50           1242          50.00       180.91
  103.47        2951.75           1246          55.00       202.70
  103.50        2952.00           1249          51.00       185.27
  103.53        2952.25           1252          57.00       211.42
  103.57        2952.50           1256          61.00       228.86
  103.60        2952.75           1259          49.00       176.55
  103.63        2953.00           1262          60.00       224.50
  103.66        2953.25           1266          53.00       193.99
  103.69        2953.50           1269          52.00       189.63
  103.72        2953.75           1272          53.00       193.99
  103.75        2954.00           1276          48.00       172.19
  103.78        2954.25           1279          58.00       215.78
  103.81        2954.50           1282          56.00       207.06
  103.84        2954.75           1286          55.00       202.70
  103.87        2955.00           1289          61.00       228.86
  103.90        2955.25           1292          58.00       215.78
  103.94        2955.50           1296          50.00       180.91
  103.97        2955.75           1299          50.00       180.91
  104.00        2956.00           1302          48.00       172.19
  104.03        2956.25           1306          54.00       198.34
  104.06        2956.50           1309          53.00       193.99
  104.09        2956.75           1312          59.00       220.14
  104.12        2957.00           1316          52.00       189.63
  104.15        2957.25           1319          56.00       207.06
  104.18        2957.50           1322          59.00       220.14
  104.21        2957.75           1326          50.00       180.91
  104.24        2958.00           1329          54.00       198.34
  104.27        2958.25           1332          59.00       220.14
  104.30        2958.50           1336          55.00       202.70
  104.34        2958.75           1339          54.00       198.34
  104.37        2959.00           1342          53.00       193.99
  104.40        2959.25           1346          57.00       211.42
  104.43        2959.50           1349          62.00       233.22
  104.46        2959.75           1352          68.00       259.37
  104.49        2960.00           1356          89.00       350.92
  104.52        2960.25           1359         118.00       477.34
  104.55        2960.50           1362         152.00       625.56
  104.58        2960.75           1366         195.00       813.01
  104.61        2961.00           1369         228.00       956.87
  104.64        2961.25           1372         245.00      1030.98
  104.67        2961.50           1376         345.00      1466.93
  104.71        2961.75           1379         409.00      1745.95
  104.74        2962.00           1382         702.00      3023.38
  104.77        2962.25           1386        1984.00      8613.82
  104.80        2962.50           1389        3248.00     14127.61
  104.83        2962.75           1392        4509.00     19630.13
  104.86        2963.00           1396        6307.00     27479.05
  104.89        2963.25           1399        7625.00     33234.95
  104.92        2963.50           1402        9009.00     39281.22
  104.95        2963.75           1406       10916.00     47615.93
  104.98        2964.00           1409       12275.00     53558.09
  105.02        2964.25           1412       13745.00     59987.99
  105.05        2964.50           1416       15639.00     68276.15
  105.08        2964.75           1419       16896.00     73779.08
  105.11        2965.00           1422       18182.00     79410.84
  105.14        2965.25           1426       20067.00     87669.25
  105.17        2965.50           1429       21325.00     93182.97
  105.20        2965.75           1432       22878.00     99992.19
  105.23        2966.00           1436       24654.00    107782.60
  105.26        2966.25           1439       26031.00    113825.30
  105.29        2966.50           1442       27237.00    119119.40
  105.33        2966.75           1446       28689.00    125495.60
  105.36        2967.00           1449       29346.00    128381.50
  105.39        2967.25           1452       29177.00    127639.10
  105.42        2967.50           1456       29216.00    127810.40
  105.45        2967.75           1459       29415.00    128684.60
  105.48        2968.00           1462       29265.00    128025.70
  105.51        2968.25           1466       28735.00    125697.60
  105.54        2968.50           1469       27808.00    121626.50
  105.57        2968.75           1472       26466.00    115734.60
  105.61        2969.00           1476       24763.00    108260.80
  105.64        2969.25           1479       23456.00    102527.20
  105.67        2969.50           1482       22068.00     96440.34
  105.70        2969.75           1486       20179.00     88160.06
  105.73        2970.00           1489       18956.00     82801.34
  105.76        2970.25           1492       17590.00     76818.06
  105.79        2970.50           1496       15804.00     68998.38
  105.82        2970.75           1499       14440.00     63028.84
  105.85        2971.00           1502       13122.00     57262.63
  105.88        2971.25           1506       11338.00     49460.87
  105.91        2971.50           1509        9970.00     43480.83
  105.95        2971.75           1513        8378.00     36524.31
  105.98        2972.00           1516        6987.00     30448.47
  106.01        2972.25           1519        5615.00     24457.78
  106.04        2972.50           1523        3873.00     16854.64
  106.07        2972.75           1526        2552.00     11091.31
  106.10        2973.00           1529        1379.00      5975.35
  106.13        2973.25           1533         461.00      1972.65
  106.16        2973.50           1536         307.00      1301.27
  106.19        2973.75           1539         267.00      1126.89
  106.22        2974.00           1543         217.00       908.92
  106.25        2974.25           1546         173.00       717.10
  106.29        2974.50           1549         139.00       568.89
  106.32        2974.75           1553          92.00       364.00
  106.35        2975.00           1556          79.00       307.33
  106.38        2975.25           1559          58.00       215.78
  106.41        2975.50           1563          58.00       215.78
  106.44        2975.75           1566          56.00       207.06
  106.47        2976.00           1569          48.00       172.19
  106.50        2976.25           1573          52.00       189.63
  106.53        2976.50           1576          51.00       185.27
  106.56        2976.75           1579          52.00       189.63
  106.60        2977.00           1583          60.00       224.50
  106.63        2977.25           1586          52.00       189.63
  106.66        2977.50           1590          47.00       167.83
  106.69        2977.75           1593          52.00       189.63
  106.72        2978.00           1596          48.00       172.19
  106.75        2978.25           1600          56.00       207.06
  106.78        2978.50           1603          55.00       202.70
  106.81        2978.75           1606          48.00       172.19
  106.84        2979.00           1610          53.00       193.99
  106.87        2979.25           1613          49.00       176.55
  106.90        2979.50           1616          49.00       176.55
  106.93        2979.75           1620          52.00       189.63
  106.97        2980.00           1623          56.00       207.06
  107.00        2980.25           1626          48.00       172.19
  107.03        2980.50           1630          62.00       233.22
  107.06        2980.75           1633          52.00       189.63
  107.09        2981.00           1637          52.00       189.63
  107.12        2981.25           1640          47.00       167.83
  107.15        2981.50           1643          55.00       202.70
  107.18        2981.75           1647          47.00       167.83
  107.21        2982.00           1650          47.00       167.83
  107.24        2982.25           1653          50.00       180.91
  107.28        2982.50           1657          47.00       167.83
  107.31        2982.75           1660          53.00       193.99
  107.34        2983.00           1663          44.00       154.75
  107.37        2983.25           1667          50.00       180.91
  107.40        2983.50           1670          51.00       185.27
  107.43        2983.75           1673          51.00       185.27
  107.46        2984.00           1677          47.00       167.83
HS scan finished at 01:47:41
end
************************************************************
  HS Scan of (1) Internal mercury lamp
************************************************************
Integration time is 0.2294 seconds per sample
dh080818Manchester 53.47 2.23 2.857833pr1000
************************************************************
Dead Time -------------------------  3E-08 
Number of Cycles Used -------------  4 
Starting Wavelength (Angstroms) ---  2950 
Final Wavelength (Angstoms) -------  2984 
Wavelength Increment (Angstroms) --  .25 
Filter Wheel #1 Position ---------- (1) Ground quartz diffuser (ND=2.32)
Filter Wheel #2 Position ---------- (1) Neutral Density 0.494



************************************************************
HS scan start time = 20:42:06
Dark Count =  6.3 


Time (GMT)  Wavelength (Ang)  Step Number  Raw Counts  Counts/Second

 1242.46        2950.00           1222          57.00       221.01
 1242.53        2950.25           1226          51.00       194.86
 1242.56        2950.50           1229          48.00       181.78
 1242.59        2950.75           1232          57.00       221.01
 1242.62        2951.00           1236          54.00       207.94
 1242.66        2951.25           1239          47.00       177.42
 1242.69        2951.50           1242          51.00       194.86
 1242.72        2951.75           1246          52.00       199.22
 1242.75        2952.00           1249          51.00       194.86
 1242.78        2952.25           1252          48.00       181.78
 1242.81        2952.50           1256          51.00       194.86
 1242.84        2952.75           1259          55.00       212.29
 1242.87        2953.00           1262          54.00       207.94
 1242.90        2953.25           1266          53.00       203.58
 1242.94        2953.50           1269          54.00       207.94
 1242.97        2953.75           1272          53.00       203.58
 1243.00        2954.00           1276          58.00       225.37
 1243.03        2954.25           1279          54.00       207.94
 1243.06        2954.50           1282          65.00       255.89
 1243.09        2954.75           1286          46.00       173.06
 1243.12        2955.00           1289          55.00       212.29
 1243.15        2955.25           1292          61.00       238.45
 1243.18        2955.50           1296          56.00       216.65
 1243.21        2955.75           1299          50.00       190.50
 1243.24        2956.00           1302          59.00       229.73
 1243.28        2956.25           1306          60.00       234.09
 1243.31        2956.50           1309          54.00       207.94
 1243.34        2956.75           1312          51.00       194.86
 1243.37        2957.00           1316          52.00       199.22
 1243.40        2957.25           1319          47.00       177.42
 1243.43        2957.50           1322          50.00       190.50
 1243.46        2957.75           1326          57.00       221.01
 1243.49        2958.00           1329          53.00       203.58
 1243.52        2958.25           1332          55.00       212.29
 1243.55        2958.50           1336          49.00       186.14
 1243.59        2958.75           1339          55.00       212.29
 1243.62        2959.00           1342          53.00       203.58
 1243.65        2959.25           1346          58.00       225.37
 1243.68        2959.50           1349          58.00       225.37
 1243.71        2959.75           1352          77.00       308.20
 1243.74        2960.00           1356         104.00       425.90
 1243.77        2960.25           1359         143.00       595.91
 1243.80        2960.50           1362         163.00       683.10
 1243.83        2960.75           1366         214.00       905.43
 1243.87        2961.00           1369         257.00      1092.89
 1243.90        2961.25           1372         311.00      1328.30
 1243.93        2961.50           1376         355.00      1520.12
 1243.96        2961.75           1379         477.00      2052.00
 1243.99        2962.00           1382        1051.00      4554.68
 1244.02        2962.25           1386        2530.00     11004.94
 1244.05        2962.50           1389        3814.00     16606.79
 1244.08        2962.75           1392        5162.00     22489.89
 1244.11        2963.00           1396        6914.00     30139.27
 1244.15        2963.25           1399        8213.00     35813.09
 1244.18        2963.50           1402        9549.00     41650.53
 1244.21        2963.75           1406       11416.00     49811.53
 1244.24        2964.00           1409       12797.00     55850.70
 1244.27        2964.25           1412       14313.00     62482.75
 1244.30        2964.50           1416       16361.00     71446.35
 1244.33        2964.75           1419       17593.00     76840.84
 1244.36        2965.00           1422       18990.00     82959.93
 1244.39        2965.25           1426       21010.00     91811.81
 1244.42        2965.50           1429       22250.00     97247.99
 1244.46        2965.75           1432       23607.00    103199.10
 1244.49        2966.00           1436       25442.00    111249.90
 1244.52        2966.25           1439       26533.00    116038.40
 1244.55        2966.50           1442       27917.00    122114.80
 1244.58        2966.75           1446       29327.00    128307.70
 1244.61        2967.00           1449       29513.00    129124.80
 1244.64        2967.25           1452       29542.00    129252.20
 1244.67        2967.50           1456       29677.00    129845.30
 1244.70        2967.75           1459       29577.00    129405.90
 1244.74        2968.00           1462       29354.00    128426.30
 1244.77        2968.25           1466       28431.00    124372.10
 1244.80        2968.50           1469       27451.00    120068.60
 1244.83        2968.75           1472       26196.00    114559.10
 1244.86        2969.00           1476       24501.00    107120.90
 1244.89        2969.25           1479       23172.00    101291.20
 1244.92        2969.50           1482       21766.00     95125.91
 1244.95        2969.75           1486       19818.00     86587.75
 1244.98        2970.00           1489       18568.00     81111.25
 1245.01        2970.25           1492       17158.00     74935.93
 1245.04        2970.50           1496       15585.00     68049.43
 1245.08        2970.75           1499       14097.00     61537.66
 1245.11        2971.00           1502       12680.00     55338.96
 1245.14        2971.25           1506       10894.00     47529.37
 1245.17        2971.50           1509        9466.00     41287.82
 1245.20        2971.75           1513        7731.00     33707.56
 1245.23        2972.00           1516        6373.00     27776.85
 1245.26        2972.25           1519        5068.00     22079.57
 1245.29        2972.50           1523        3300.00     14364.08
 1245.33        2972.75           1526        1979.00      8601.61
 1245.36        2973.00           1529         883.00      3822.15
 1245.39        2973.25           1533         375.00      1607.31
 1245.42        2973.50           1536         297.00      1267.27
 1245.45        2973.75           1539         241.00      1023.14
 1245.48        2974.00           1543         211.00       892.35
 1245.51        2974.25           1546         162.00       678.74
 1245.54        2974.50           1549         122.00       504.37
 1245.57        2974.75           1553          85.00       343.07
 1245.60        2975.00           1556          59.00       229.73
 1245.64        2975.25           1559          62.00       242.81
 1245.67        2975.50           1563          56.00       216.65
 1245.70        2975.75           1566          56.00       216.65
 1245.73        2976.00           1569          61.00       238.45
 1245.76        2976.25           1573          56.00       216.65
 1245.79        2976.50           1576          53.00       203.58
 1245.82        2976.75           1579          47.00       177.42
 1245.85        2977.00           1583          48.00       181.78
 1245.88        2977.25           1586          50.00       190.50
 1245.91        2977.50           1590          50.00       190.50
 1245.94        2977.75           1593          52.00       199.22
 1245.97        2978.00           1596          56.00       216.65
 1246.01        2978.25           1600          52.00       199.22
 1246.04        2978.50           1603          45.00       168.70
 1246.07        2978.75           1606          55.00       212.29
 1246.10        2979.00           1610          50.00       190.50
 1246.13        2979.25           1613          46.00       173.06
 1246.16        2979.50           1616          48.00       181.78
 1246.19        2979.75           1620          56.00       216.65
 1246.22        2980.00           1623          46.00       173.06
 1246.25        2980.25           1626          54.00       207.94
 1246.28        2980.50           1630          50.00       190.50
 1246.32        2980.75           1633          43.00       159.98
 1246.35        2981.00           1637          54.00       207.94
 1246.38        2981.25           1640          53.00       203.58
 1246.41        2981.50           1643          51.00       194.86
 1246.44        2981.75           1647          48.00       181.78
 1246.47        2982.00           1650          49.00       186.14
 1246.50        2982.25           1653          47.00       177.42
 1246.53        2982.50           1657          52.00       199.22
 1246.56        2982.75           1660          48.00       181.78
 1246.60        2983.00           1663          52.00       199.22
 1246.63        2983.25           1667          41.00       151.26
 1246.66        2983.50           1670          56.00       216.65
 1246.69        2983.75           1673          45.00       168.70
 1246.72        2984.00           1677          50.00       190.50
HS scan finished at 20:46:56
end
