************************************************************
  HS Scan of (1) Internal mercury lamp
************************************************************
Integration time is 0.2294 seconds per sample
dh120817Manchester 53.47 2.23 2.911481pr1000
************************************************************
Dead Time -------------------------  3E-08 
Number of Cycles Used -------------  4 
Starting Wavelength (Angstroms) ---  2950 
Final Wavelength (Angstoms) -------  2984 
Wavelength Increment (Angstroms) --  .25 
Filter Wheel #1 Position ---------- (1) Ground quartz diffuser (ND=2.32)
Filter Wheel #2 Position ---------- (1) Neutral Density 0.494



************************************************************
HS scan start time = 01:30:10
Dark Count =  5.9 


Time (GMT)  Wavelength (Ang)  Step Number  Raw Counts  Counts/Second

   90.54        2950.00           1222          84.00       340.46
   90.60        2950.25           1226          93.00       379.69
   90.63        2950.50           1229          84.00       340.46
   90.67        2950.75           1232          89.00       362.25
   90.70        2951.00           1236          95.00       388.41
   90.73        2951.25           1239          88.00       357.89
   90.76        2951.50           1242          93.00       379.69
   90.79        2951.75           1246          83.00       336.10
   90.82        2952.00           1249          85.00       344.82
   90.85        2952.25           1252          93.00       379.69
   90.88        2952.50           1256          79.00       318.66
   90.91        2952.75           1259          85.00       344.82
   90.94        2953.00           1262          97.00       397.13
   90.97        2953.25           1266          79.00       318.66
   91.00        2953.50           1269          95.00       388.41
   91.03        2953.75           1272          82.00       331.74
   91.07        2954.00           1276          81.00       327.38
   91.10        2954.25           1279          90.00       366.61
   91.13        2954.50           1282          77.00       309.94
   91.16        2954.75           1286          91.00       370.97
   91.19        2955.00           1289          90.00       366.61
   91.22        2955.25           1292          97.00       397.13
   91.25        2955.50           1296          84.00       340.46
   91.28        2955.75           1299          89.00       362.25
   91.31        2956.00           1302          81.00       327.38
   91.34        2956.25           1306          96.00       392.77
   91.37        2956.50           1309          87.00       353.53
   91.40        2956.75           1312          89.00       362.25
   91.43        2957.00           1316          86.00       349.18
   91.46        2957.25           1319          83.00       336.10
   91.49        2957.50           1322          82.00       331.74
   91.53        2957.75           1326          88.00       357.89
   91.56        2958.00           1329          86.00       349.18
   91.59        2958.25           1332          84.00       340.46
   91.62        2958.50           1336          85.00       344.82
   91.65        2958.75           1339          89.00       362.25
   91.68        2959.00           1342          87.00       353.53
   91.71        2959.25           1346          83.00       336.10
   91.74        2959.50           1349          90.00       366.61
   91.77        2959.75           1352         102.00       418.92
   91.80        2960.00           1356         133.00       554.06
   91.83        2960.25           1359         153.00       641.25
   91.87        2960.50           1362         194.00       819.99
   91.90        2960.75           1366         271.00      1155.66
   91.93        2961.00           1369         299.00      1277.73
   91.96        2961.25           1372         337.00      1443.39
   91.99        2961.50           1376         411.00      1766.00
   92.02        2961.75           1379         501.00      2158.38
   92.05        2962.00           1382         997.00      4320.96
   92.08        2962.25           1386        2573.00     11194.26
   92.11        2962.50           1389        4246.00     18493.69
   92.14        2962.75           1392        5744.00     25032.31
   92.18        2963.00           1396        8023.00     34984.83
   92.21        2963.25           1399        9734.00     42460.76
   92.24        2963.50           1402       11330.00     49437.26
   92.27        2963.75           1406       13888.00     60624.99
   92.30        2964.00           1409       15726.00     68668.35
   92.33        2964.25           1412       17541.00     76614.86
   92.36        2964.50           1416       19780.00     86422.99
   92.39        2964.75           1419       21667.00     94693.64
   92.42        2965.00           1422       23418.00    102371.90
   92.45        2965.25           1426       25786.00    112761.40
   92.49        2965.50           1429       27515.00    120351.40
   92.52        2965.75           1432       29101.00    127316.70
   92.55        2966.00           1436       31249.00    136754.80
   92.58        2966.25           1439       33062.00    144725.10
   92.61        2966.50           1442       34814.00    152430.90
   92.64        2966.75           1446       36646.00    160492.40
   92.67        2967.00           1449       37063.00    162327.90
   92.70        2967.25           1452       37376.00    163705.70
   92.73        2967.50           1456       37350.00    163591.20
   92.77        2967.75           1459       37392.00    163776.10
   92.80        2968.00           1462       37090.00    162446.70
   92.83        2968.25           1466       36404.00    159427.20
   92.86        2968.50           1469       35165.00    153975.10
   92.89        2968.75           1472       33442.00    146396.10
   92.92        2969.00           1476       31347.00    137185.50
   92.95        2969.25           1479       29360.00    128454.40
   92.98        2969.50           1482       27913.00    122099.00
   93.01        2969.75           1486       25455.00    111308.70
   93.04        2970.00           1489       23698.00    103600.00
   93.07        2970.25           1492       22142.00     96776.21
   93.11        2970.50           1496       19738.00     86238.96
   93.14        2970.75           1499       17989.00     78576.91
   93.17        2971.00           1502       16464.00     71899.04
   93.20        2971.25           1506       14262.00     62261.35
   93.23        2971.50           1509       12365.00     53963.05
   93.26        2971.75           1513       10113.00     44117.20
   93.29        2972.00           1516        8512.00     37121.09
   93.32        2972.25           1519        6813.00     29699.95
   93.35        2972.50           1523        4519.00     19685.12
   93.39        2972.75           1526        2794.00     12158.32
   93.42        2973.00           1529        1366.00      5930.00
   93.45        2973.25           1533         552.00      2380.73
   93.48        2973.50           1536         377.00      1617.78
   93.51        2973.75           1539         338.00      1447.75
   93.54        2974.00           1543         298.00      1273.37
   93.57        2974.25           1546         215.00       911.53
   93.60        2974.50           1549         162.00       680.48
   93.63        2974.75           1553         131.00       545.34
   93.66        2975.00           1556         104.00       427.64
   93.69        2975.25           1559          84.00       340.46
   93.72        2975.50           1563          81.00       327.38
   93.76        2975.75           1566          81.00       327.38
   93.79        2976.00           1569          82.00       331.74
   93.82        2976.25           1573          68.00       270.71
   93.85        2976.50           1576          75.00       301.22
   93.88        2976.75           1579          78.00       314.30
   93.91        2977.00           1583          82.00       331.74
   93.94        2977.25           1586          84.00       340.46
   93.97        2977.50           1590          80.00       323.02
   94.00        2977.75           1593          79.00       318.66
   94.03        2978.00           1596          81.00       327.38
   94.06        2978.25           1600          72.00       288.15
   94.09        2978.50           1603          72.00       288.15
   94.12        2978.75           1606          87.00       353.53
   94.15        2979.00           1610          75.00       301.22
   94.18        2979.25           1613          73.00       292.50
   94.22        2979.50           1616          74.00       296.86
   94.25        2979.75           1620          70.00       279.43
   94.28        2980.00           1623          79.00       318.66
   94.31        2980.25           1626          90.00       366.61
   94.34        2980.50           1630          87.00       353.53
   94.37        2980.75           1633          73.00       292.50
   94.40        2981.00           1637          76.00       305.58
   94.43        2981.25           1640          81.00       327.38
   94.46        2981.50           1643          76.00       305.58
   94.49        2981.75           1647          72.00       288.15
   94.52        2982.00           1650          78.00       314.30
   94.55        2982.25           1653          83.00       336.10
   94.58        2982.50           1657          80.00       323.02
   94.61        2982.75           1660          68.00       270.71
   94.64        2983.00           1663          80.00       323.02
   94.68        2983.25           1667          72.00       288.15
   94.71        2983.50           1670          78.00       314.30
   94.74        2983.75           1673          74.00       296.86
   94.77        2984.00           1677          73.00       292.50
HS scan finished at 01:34:59
end
************************************************************
  HS Scan of (1) Internal mercury lamp
************************************************************
Integration time is 0.2294 seconds per sample
dh120817Manchester 53.47 2.23 2.804185pr1000
************************************************************
Dead Time -------------------------  3E-08 
Number of Cycles Used -------------  4 
Starting Wavelength (Angstroms) ---  2950 
Final Wavelength (Angstoms) -------  2984 
Wavelength Increment (Angstroms) --  .25 
Filter Wheel #1 Position ---------- (1) Ground quartz diffuser (ND=2.32)
Filter Wheel #2 Position ---------- (1) Neutral Density 0.494



************************************************************
HS scan start time = 20:42:02
Dark Count =  7.2 


Time (GMT)  Wavelength (Ang)  Step Number  Raw Counts  Counts/Second

 1242.41        2950.00           1222          89.00       356.59
 1242.47        2950.25           1226          77.00       304.27
 1242.50        2950.50           1229          89.00       356.59
 1242.54        2950.75           1232          81.00       321.71
 1242.57        2951.00           1236          95.00       382.74
 1242.60        2951.25           1239          88.00       352.23
 1242.63        2951.50           1242          84.00       334.79
 1242.66        2951.75           1246          85.00       339.15
 1242.69        2952.00           1249          87.00       347.87
 1242.72        2952.25           1252         100.00       404.54
 1242.75        2952.50           1256          85.00       339.15
 1242.78        2952.75           1259          88.00       352.23
 1242.81        2953.00           1262          81.00       321.71
 1242.84        2953.25           1266          96.00       387.10
 1242.87        2953.50           1269          93.00       374.02
 1242.90        2953.75           1272          77.00       304.27
 1242.93        2954.00           1276          89.00       356.59
 1242.96        2954.25           1279          88.00       352.23
 1243.00        2954.50           1282          80.00       317.35
 1243.03        2954.75           1286          84.00       334.79
 1243.06        2955.00           1289          80.00       317.35
 1243.09        2955.25           1292          82.00       326.07
 1243.12        2955.50           1296          90.00       360.95
 1243.15        2955.75           1299          86.00       343.51
 1243.18        2956.00           1302          86.00       343.51
 1243.21        2956.25           1306          84.00       334.79
 1243.24        2956.50           1309          82.00       326.07
 1243.27        2956.75           1312          85.00       339.15
 1243.30        2957.00           1316          83.00       330.43
 1243.33        2957.25           1319          88.00       352.23
 1243.37        2957.50           1322          82.00       326.07
 1243.40        2957.75           1326          85.00       339.15
 1243.43        2958.00           1329          84.00       334.79
 1243.46        2958.25           1332          84.00       334.79
 1243.49        2958.50           1336          82.00       326.07
 1243.52        2958.75           1339          81.00       321.71
 1243.55        2959.00           1342          87.00       347.87
 1243.58        2959.25           1346          94.00       378.38
 1243.61        2959.50           1349          94.00       378.38
 1243.64        2959.75           1352         120.00       491.72
 1243.68        2960.00           1356         152.00       631.22
 1243.71        2960.25           1359         196.00       823.04
 1243.74        2960.50           1362         219.00       923.30
 1243.77        2960.75           1366         283.00      1202.31
 1243.80        2961.00           1369         318.00      1354.89
 1243.83        2961.25           1372         359.00      1533.64
 1243.86        2961.50           1376         462.00      1982.68
 1243.89        2961.75           1379         653.00      2815.41
 1243.92        2962.00           1382        1300.00      5636.52
 1243.95        2962.25           1386        3091.00     13448.32
 1243.98        2962.50           1389        4598.00     20024.23
 1244.02        2962.75           1392        6149.00     26794.85
 1244.05        2963.00           1396        8301.00     36193.60
 1244.08        2963.25           1399        9967.00     43473.40
 1244.11        2963.50           1402       11675.00     50940.04
 1244.14        2963.75           1406       13989.00     61061.19
 1244.17        2964.00           1409       15492.00     67638.43
 1244.20        2964.25           1412       17422.00     76088.05
 1244.23        2964.50           1416       19660.00     85891.49
 1244.26        2964.75           1419       21139.00     92373.34
 1244.30        2965.00           1422       22883.00    100019.80
 1244.33        2965.25           1426       25026.00    109420.50
 1244.36        2965.50           1429       26694.00    116741.20
 1244.39        2965.75           1432       28704.00    125567.20
 1244.42        2966.00           1436       30647.00    134103.40
 1244.45        2966.25           1439       32205.00    140951.40
 1244.48        2966.50           1442       33754.00    147762.60
 1244.51        2966.75           1446       35207.00    154154.20
 1244.55        2967.00           1449       35347.00    154770.10
 1244.58        2967.25           1452       35464.00    155284.90
 1244.61        2967.50           1456       35392.00    154968.10
 1244.64        2967.75           1459       35435.00    155157.40
 1244.67        2968.00           1462       35057.00    153494.20
 1244.70        2968.25           1466       34097.00    149271.20
 1244.73        2968.50           1469       32416.00    141879.00
 1244.76        2968.75           1472       31012.00    135707.40
 1244.79        2969.00           1476       28686.00    125488.10
 1244.82        2969.25           1479       27169.00    118826.50
 1244.85        2969.50           1482       25561.00    111768.20
 1244.89        2969.75           1486       23241.00    101589.90
 1244.92        2970.00           1489       21693.00     94801.94
 1244.95        2970.25           1492       20044.00     87574.16
 1244.98        2970.50           1496       17968.00     78479.24
 1245.01        2970.75           1499       16452.00     71840.81
 1245.04        2971.00           1502       14829.00     64736.76
 1245.07        2971.25           1506       12828.00     55982.35
 1245.10        2971.50           1509       11011.00     48036.92
 1245.13        2971.75           1513        8740.00     38111.56
 1245.17        2972.00           1516        7048.00     30720.54
 1245.20        2972.25           1519        5341.00     23267.33
 1245.23        2972.50           1523        3342.00     14543.40
 1245.26        2972.75           1526        1895.00      8231.33
 1245.29        2973.00           1529         865.00      3739.74
 1245.32        2973.25           1533         433.00      1856.25
 1245.35        2973.50           1536         359.00      1533.64
 1245.38        2973.75           1539         313.00      1333.10
 1245.41        2974.00           1543         258.00      1093.32
 1245.45        2974.25           1546         177.00       740.21
 1245.48        2974.50           1549         134.00       552.76
 1245.51        2974.75           1553          99.00       400.18
 1245.54        2975.00           1556          90.00       360.95
 1245.57        2975.25           1559          77.00       304.27
 1245.60        2975.50           1563          93.00       374.02
 1245.63        2975.75           1566          81.00       321.71
 1245.66        2976.00           1569          77.00       304.27
 1245.69        2976.25           1573          86.00       343.51
 1245.72        2976.50           1576          70.00       273.76
 1245.75        2976.75           1579          78.00       308.63
 1245.79        2977.00           1583          74.00       291.20
 1245.82        2977.25           1586          69.00       269.40
 1245.85        2977.50           1590          75.00       295.56
 1245.88        2977.75           1593          80.00       317.35
 1245.91        2978.00           1596          79.00       312.99
 1245.94        2978.25           1600          70.00       273.76
 1245.97        2978.50           1603          85.00       339.15
 1246.00        2978.75           1606          79.00       312.99
 1246.03        2979.00           1610          76.00       299.92
 1246.06        2979.25           1613          70.00       273.76
 1246.10        2979.50           1616          70.00       273.76
 1246.13        2979.75           1620          74.00       291.20
 1246.16        2980.00           1623          74.00       291.20
 1246.19        2980.25           1626          74.00       291.20
 1246.22        2980.50           1630          80.00       317.35
 1246.25        2980.75           1633          82.00       326.07
 1246.28        2981.00           1637          82.00       326.07
 1246.31        2981.25           1640          80.00       317.35
 1246.34        2981.50           1643          65.00       251.96
 1246.37        2981.75           1647          80.00       317.35
 1246.40        2982.00           1650          76.00       299.92
 1246.43        2982.25           1653          77.00       304.27
 1246.47        2982.50           1657          73.00       286.84
 1246.50        2982.75           1660          79.00       312.99
 1246.53        2983.00           1663          69.00       269.40
 1246.56        2983.25           1667          80.00       317.35
 1246.59        2983.50           1670          73.00       286.84
 1246.62        2983.75           1673          83.00       330.43
 1246.65        2984.00           1677          72.00       282.48
HS scan finished at 20:46:52
end
