************************************************************
  HS Scan of (1) Internal mercury lamp
************************************************************
Integration time is 0.2294 seconds per sample
dh110817Manchester 53.47 2.23 2.804185pr1000
************************************************************
Dead Time -------------------------  3E-08 
Number of Cycles Used -------------  4 
Starting Wavelength (Angstroms) ---  2950 
Final Wavelength (Angstoms) -------  2984 
Wavelength Increment (Angstroms) --  .25 
Filter Wheel #1 Position ---------- (1) Ground quartz diffuser (ND=2.32)
Filter Wheel #2 Position ---------- (1) Neutral Density 0.494



************************************************************
HS scan start time = 01:28:21
Dark Count =  6.2 


Time (GMT)  Wavelength (Ang)  Step Number  Raw Counts  Counts/Second

   88.73        2950.00           1222          89.00       360.95
   88.79        2950.25           1226          86.00       347.87
   88.83        2950.50           1229          90.00       365.30
   88.86        2950.75           1232          79.00       317.35
   88.89        2951.00           1236          92.00       374.02
   88.92        2951.25           1239          95.00       387.10
   88.95        2951.50           1242          91.00       369.66
   88.98        2951.75           1246          91.00       369.66
   89.01        2952.00           1249          85.00       343.51
   89.04        2952.25           1252          89.00       360.95
   89.07        2952.50           1256          88.00       356.59
   89.10        2952.75           1259          79.00       317.35
   89.13        2953.00           1262          89.00       360.95
   89.16        2953.25           1266          90.00       365.30
   89.19        2953.50           1269          92.00       374.02
   89.22        2953.75           1272          77.00       308.63
   89.25        2954.00           1276          89.00       360.95
   89.29        2954.25           1279          82.00       330.43
   89.32        2954.50           1282          89.00       360.95
   89.35        2954.75           1286          86.00       347.87
   89.38        2955.00           1289          85.00       343.51
   89.41        2955.25           1292          83.00       334.79
   89.44        2955.50           1296          90.00       365.30
   89.47        2955.75           1299          81.00       326.07
   89.50        2956.00           1302          85.00       343.51
   89.53        2956.25           1306          90.00       365.30
   89.56        2956.50           1309          87.00       352.23
   89.59        2956.75           1312          86.00       347.87
   89.62        2957.00           1316          84.00       339.15
   89.65        2957.25           1319          94.00       382.74
   89.68        2957.50           1322          87.00       352.23
   89.71        2957.75           1326          93.00       378.38
   89.75        2958.00           1329          82.00       330.43
   89.78        2958.25           1332          88.00       356.59
   89.81        2958.50           1336          94.00       382.74
   89.84        2958.75           1339          90.00       365.30
   89.87        2959.00           1342          80.00       321.71
   89.90        2959.25           1346          86.00       347.87
   89.93        2959.50           1349          93.00       378.38
   89.96        2959.75           1352         103.00       421.98
   89.99        2960.00           1356         125.00       517.88
   90.02        2960.25           1359         162.00       679.18
   90.05        2960.50           1362         217.00       918.94
   90.08        2960.75           1366         273.00      1163.07
   90.11        2961.00           1369         292.00      1245.91
   90.14        2961.25           1372         330.00      1411.57
   90.18        2961.50           1376         412.00      1769.06
   90.21        2961.75           1379         494.00      2126.55
   90.24        2962.00           1382         810.00      3504.29
   90.27        2962.25           1386        2141.00      9308.62
   90.30        2962.50           1389        3599.00     15669.09
   90.33        2962.75           1392        5225.00     22765.33
   90.36        2963.00           1396        7350.00     32043.87
   90.39        2963.25           1399        8978.00     39155.82
   90.42        2963.50           1402       10465.00     45654.47
   90.46        2963.75           1406       12861.00     56131.06
   90.49        2964.00           1409       14672.00     64054.10
   90.52        2964.25           1412       16299.00     71175.35
   90.55        2964.50           1416       18688.00     81637.37
   90.58        2964.75           1419       20330.00     88831.88
   90.61        2965.00           1422       22192.00     96994.12
   90.64        2965.25           1426       24202.00    105809.60
   90.67        2965.50           1429       25915.00    113326.20
   90.70        2965.75           1432       27470.00    120152.50
   90.74        2966.00           1436       29648.00    129718.30
   90.77        2966.25           1439       31144.00    136292.00
   90.80        2966.50           1442       32731.00    143268.40
   90.83        2966.75           1446       34640.00    151664.10
   90.86        2967.00           1449       35429.00    155135.30
   90.89        2967.25           1452       35772.00    156644.60
   90.92        2967.50           1456       35604.00    155905.40
   90.95        2967.75           1459       35714.00    156389.40
   90.98        2968.00           1462       35823.00    156869.00
   91.02        2968.25           1466       35019.00    153331.40
   91.05        2968.50           1469       33893.00    148378.30
   91.08        2968.75           1472       32331.00    141509.70
   91.11        2969.00           1476       30015.00    131330.70
   91.14        2969.25           1479       28619.00    125198.20
   91.17        2969.50           1482       27011.00    118137.20
   91.20        2969.75           1486       24822.00    108529.80
   91.23        2970.00           1489       23255.00    101655.70
   91.26        2970.25           1492       21464.00     93802.40
   91.29        2970.50           1496       19256.00     84125.74
   91.33        2970.75           1499       17638.00     77038.35
   91.36        2971.00           1502       15912.00     69481.21
   91.39        2971.25           1506       13774.00     60124.92
   91.42        2971.50           1509       12044.00     52557.96
   91.45        2971.75           1513       10031.00     43757.49
   91.48        2972.00           1516        8459.00     36888.23
   91.51        2972.25           1519        6807.00     29672.44
   91.54        2972.50           1523        4735.00     20626.53
   91.57        2972.75           1526        3122.00     13587.93
   91.61        2973.00           1529        1523.00      6613.34
   91.64        2973.25           1533         569.00      2453.54
   91.67        2973.50           1536         394.00      1690.58
   91.70        2973.75           1539         352.00      1507.48
   91.73        2974.00           1543         291.00      1241.55
   91.76        2974.25           1546         246.00      1045.37
   91.79        2974.50           1549         173.00       727.13
   91.82        2974.75           1553         140.00       583.27
   91.85        2975.00           1556         117.00       483.01
   91.88        2975.25           1559         100.00       408.90
   91.92        2975.50           1563          80.00       321.71
   91.95        2975.75           1566          84.00       339.15
   91.98        2976.00           1569          81.00       326.07
   92.01        2976.25           1573          87.00       352.23
   92.04        2976.50           1576          77.00       308.63
   92.07        2976.75           1579          84.00       339.15
   92.10        2977.00           1583          94.00       382.74
   92.13        2977.25           1586          74.00       295.56
   92.16        2977.50           1590          72.00       286.84
   92.19        2977.75           1593          77.00       308.63
   92.22        2978.00           1596          81.00       326.07
   92.25        2978.25           1600          72.00       286.84
   92.28        2978.50           1603          82.00       330.43
   92.31        2978.75           1606          73.00       291.20
   92.34        2979.00           1610          79.00       317.35
   92.38        2979.25           1613          77.00       308.63
   92.41        2979.50           1616          82.00       330.43
   92.44        2979.75           1620          78.00       312.99
   92.47        2980.00           1623          74.00       295.56
   92.50        2980.25           1626          75.00       299.92
   92.53        2980.50           1630          75.00       299.92
   92.56        2980.75           1633          80.00       321.71
   92.59        2981.00           1637          69.00       273.76
   92.62        2981.25           1640          76.00       304.27
   92.65        2981.50           1643          70.00       278.12
   92.68        2981.75           1647          80.00       321.71
   92.71        2982.00           1650          77.00       308.63
   92.74        2982.25           1653          75.00       299.92
   92.78        2982.50           1657          68.00       269.40
   92.81        2982.75           1660          69.00       273.76
   92.84        2983.00           1663          81.00       326.07
   92.87        2983.25           1667          79.00       317.35
   92.90        2983.50           1670          70.00       278.12
   92.93        2983.75           1673          75.00       299.92
   92.96        2984.00           1677          67.00       265.04
HS scan finished at 01:33:11
end
************************************************************
  HS Scan of (1) Internal mercury lamp
************************************************************
Integration time is 0.2294 seconds per sample
dh110817Manchester 53.47 2.23 2.857833pr1000
************************************************************
Dead Time -------------------------  3E-08 
Number of Cycles Used -------------  4 
Starting Wavelength (Angstroms) ---  2950 
Final Wavelength (Angstoms) -------  2984 
Wavelength Increment (Angstroms) --  .25 
Filter Wheel #1 Position ---------- (1) Ground quartz diffuser (ND=2.32)
Filter Wheel #2 Position ---------- (1) Neutral Density 0.494



************************************************************
HS scan start time = 20:41:59
Dark Count =  7.8 


Time (GMT)  Wavelength (Ang)  Step Number  Raw Counts  Counts/Second

 1242.35        2950.00           1222          93.00       371.41
 1242.41        2950.25           1226          84.00       332.17
 1242.44        2950.50           1229          86.00       340.89
 1242.47        2950.75           1232          81.00       319.10
 1242.51        2951.00           1236          88.00       349.61
 1242.54        2951.25           1239          85.00       336.53
 1242.57        2951.50           1242          87.00       345.25
 1242.60        2951.75           1246          85.00       336.53
 1242.63        2952.00           1249          87.00       345.25
 1242.66        2952.25           1252          94.00       375.77
 1242.69        2952.50           1256          93.00       371.41
 1242.72        2952.75           1259          84.00       332.17
 1242.75        2953.00           1262          79.00       310.38
 1242.78        2953.25           1266          87.00       345.25
 1242.81        2953.50           1269          88.00       349.61
 1242.84        2953.75           1272          89.00       353.97
 1242.88        2954.00           1276          85.00       336.53
 1242.91        2954.25           1279          91.00       362.69
 1242.94        2954.50           1282          84.00       332.17
 1242.97        2954.75           1286          80.00       314.74
 1243.00        2955.00           1289          91.00       362.69
 1243.03        2955.25           1292          83.00       327.81
 1243.06        2955.50           1296          87.00       345.25
 1243.09        2955.75           1299          82.00       323.46
 1243.12        2956.00           1302          87.00       345.25
 1243.15        2956.25           1306          93.00       371.41
 1243.18        2956.50           1309          76.00       297.30
 1243.21        2956.75           1312          90.00       358.33
 1243.24        2957.00           1316          88.00       349.61
 1243.28        2957.25           1319          91.00       362.69
 1243.31        2957.50           1322          87.00       345.25
 1243.34        2957.75           1326          88.00       349.61
 1243.37        2958.00           1329          79.00       310.38
 1243.40        2958.25           1332          94.00       375.77
 1243.43        2958.50           1336          86.00       340.89
 1243.46        2958.75           1339          96.00       384.49
 1243.49        2959.00           1342          88.00       349.61
 1243.52        2959.25           1346          96.00       384.49
 1243.55        2959.50           1349          99.00       397.56
 1243.58        2959.75           1352         107.00       432.44
 1243.61        2960.00           1356         146.00       602.45
 1243.65        2960.25           1359         177.00       737.59
 1243.68        2960.50           1362         224.00       942.49
 1243.71        2960.75           1366         273.00      1156.10
 1243.74        2961.00           1369         325.00      1382.80
 1243.77        2961.25           1372         377.00      1609.49
 1243.80        2961.50           1376         443.00      1897.23
 1243.83        2961.75           1379         596.00      2564.28
 1243.86        2962.00           1382        1279.00      5542.33
 1243.89        2962.25           1386        3146.00     13685.65
 1243.92        2962.50           1389        4848.00     21112.76
 1243.95        2962.75           1392        6568.00     28621.78
 1243.98        2963.00           1396        8774.00     38257.49
 1244.02        2963.25           1399       10622.00     46333.76
 1244.05        2963.50           1402       12241.00     53412.46
 1244.08        2963.75           1406       14534.00     63443.22
 1244.11        2964.00           1409       16083.00     70222.77
 1244.14        2964.25           1412       17932.00     78318.94
 1244.17        2964.50           1416       20196.00     88237.62
 1244.20        2964.75           1419       21918.00     95785.75
 1244.23        2965.00           1422       23725.00    103710.10
 1244.26        2965.25           1426       25796.00    112796.90
 1244.30        2965.50           1429       27373.00    119719.50
 1244.33        2965.75           1432       29364.00    128463.60
 1244.36        2966.00           1436       31581.00    138205.70
 1244.39        2966.25           1439       32916.00    144074.70
 1244.42        2966.50           1442       34709.00    151960.60
 1244.45        2966.75           1446       36473.00    159722.50
 1244.48        2967.00           1449       36475.00    159731.40
 1244.51        2967.25           1452       36740.00    160897.70
 1244.54        2967.50           1456       36857.00    161412.70
 1244.57        2967.75           1459       36780.00    161073.80
 1244.61        2968.00           1462       36539.00    160013.00
 1244.64        2968.25           1466       35316.00    154631.10
 1244.67        2968.50           1469       33779.00    147869.90
 1244.70        2968.75           1472       32499.00    142241.30
 1244.73        2969.00           1476       30037.00    131420.40
 1244.76        2969.25           1479       28529.00    124795.90
 1244.79        2969.50           1482       26657.00    116576.10
 1244.82        2969.75           1486       24360.00    106495.80
 1244.85        2970.00           1489       22680.00     99126.96
 1244.88        2970.25           1492       21167.00     92493.44
 1244.92        2970.50           1496       19065.00     83281.93
 1244.95        2970.75           1499       17341.00     75730.71
 1244.98        2971.00           1502       15584.00     68038.48
 1245.01        2971.25           1506       13347.00     58249.92
 1245.04        2971.50           1509       11537.00     50334.02
 1245.07        2971.75           1513        9434.00     41141.42
 1245.10        2972.00           1516        7797.00     33989.31
 1245.13        2972.25           1519        6067.00     26434.21
 1245.16        2972.50           1523        3726.00     16216.26
 1245.19        2972.75           1526        2176.00      9454.30
 1245.23        2973.00           1529         948.00      4099.02
 1245.26        2973.25           1533         484.00      2075.98
 1245.29        2973.50           1536         367.00      1565.90
 1245.32        2973.75           1539         324.00      1378.44
 1245.35        2974.00           1543         273.00      1156.10
 1245.38        2974.25           1546         197.00       824.78
 1245.41        2974.50           1549         148.00       611.17
 1245.44        2974.75           1553         120.00       489.11
 1245.47        2975.00           1556          99.00       397.56
 1245.50        2975.25           1559          98.00       393.20
 1245.54        2975.50           1563          88.00       349.61
 1245.57        2975.75           1566          76.00       297.30
 1245.60        2976.00           1569          74.00       288.58
 1245.63        2976.25           1573          85.00       336.53
 1245.66        2976.50           1576          80.00       314.74
 1245.69        2976.75           1579          86.00       340.89
 1245.72        2977.00           1583          81.00       319.10
 1245.75        2977.25           1586          78.00       306.02
 1245.78        2977.50           1590          92.00       367.05
 1245.81        2977.75           1593          82.00       323.46
 1245.84        2978.00           1596          82.00       323.46
 1245.87        2978.25           1600          78.00       306.02
 1245.90        2978.50           1603          80.00       314.74
 1245.93        2978.75           1606          80.00       314.74
 1245.97        2979.00           1610          75.00       292.94
 1246.00        2979.25           1613          81.00       319.10
 1246.03        2979.50           1616          75.00       292.94
 1246.06        2979.75           1620          73.00       284.22
 1246.09        2980.00           1623          75.00       292.94
 1246.12        2980.25           1626          80.00       314.74
 1246.15        2980.50           1630          77.00       301.66
 1246.18        2980.75           1633          80.00       314.74
 1246.21        2981.00           1637          75.00       292.94
 1246.24        2981.25           1640          80.00       314.74
 1246.27        2981.50           1643          78.00       306.02
 1246.30        2981.75           1647          73.00       284.22
 1246.33        2982.00           1650          84.00       332.17
 1246.37        2982.25           1653          81.00       319.10
 1246.40        2982.50           1657          75.00       292.94
 1246.43        2982.75           1660          80.00       314.74
 1246.46        2983.00           1663          74.00       288.58
 1246.49        2983.25           1667          68.00       262.43
 1246.52        2983.50           1670          72.00       279.86
 1246.55        2983.75           1673          92.00       367.05
 1246.58        2984.00           1677          73.00       284.22
HS scan finished at 20:46:48
end
