************************************************************
  HS Scan of (1) Internal mercury lamp
************************************************************
Integration time is 0.2294 seconds per sample
dh250818Manchester 53.47 2.23 2.804185pr1000
************************************************************
Dead Time -------------------------  3E-08 
Number of Cycles Used -------------  4 
Starting Wavelength (Angstroms) ---  2950 
Final Wavelength (Angstoms) -------  2984 
Wavelength Increment (Angstroms) --  .25 
Filter Wheel #1 Position ---------- (1) Ground quartz diffuser (ND=2.32)
Filter Wheel #2 Position ---------- (1) Neutral Density 0.494



************************************************************
HS scan start time = 01:25:42
Dark Count =  6.4 


Time (GMT)  Wavelength (Ang)  Step Number  Raw Counts  Counts/Second

   86.08        2950.00           1222          54.00       207.50
   86.14        2950.25           1226          54.00       207.50
   86.17        2950.50           1229          51.00       194.42
   86.20        2950.75           1232          50.00       190.06
   86.23        2951.00           1236          54.00       207.50
   86.27        2951.25           1239          45.00       168.27
   86.30        2951.50           1242          49.00       185.70
   86.33        2951.75           1246          51.00       194.42
   86.36        2952.00           1249          53.00       203.14
   86.39        2952.25           1252          51.00       194.42
   86.42        2952.50           1256          51.00       194.42
   86.45        2952.75           1259          48.00       181.34
   86.48        2953.00           1262          65.00       255.45
   86.51        2953.25           1266          59.00       229.30
   86.54        2953.50           1269          53.00       203.14
   86.57        2953.75           1272          51.00       194.42
   86.60        2954.00           1276          57.00       220.58
   86.63        2954.25           1279          56.00       216.22
   86.67        2954.50           1282          47.00       176.98
   86.70        2954.75           1286          57.00       220.58
   86.73        2955.00           1289          46.00       172.63
   86.76        2955.25           1292          51.00       194.42
   86.79        2955.50           1296          51.00       194.42
   86.82        2955.75           1299          55.00       211.86
   86.85        2956.00           1302          48.00       181.34
   86.88        2956.25           1306          51.00       194.42
   86.91        2956.50           1309          56.00       216.22
   86.94        2956.75           1312          50.00       190.06
   86.97        2957.00           1316          58.00       224.94
   87.01        2957.25           1319          55.00       211.86
   87.04        2957.50           1322          53.00       203.14
   87.07        2957.75           1326          46.00       172.63
   87.10        2958.00           1329          57.00       220.58
   87.13        2958.25           1332          53.00       203.14
   87.16        2958.50           1336          56.00       216.22
   87.19        2958.75           1339          54.00       207.50
   87.22        2959.00           1342          53.00       203.14
   87.25        2959.25           1346          53.00       203.14
   87.28        2959.50           1349          62.00       242.37
   87.31        2959.75           1352          71.00       281.61
   87.34        2960.00           1356          84.00       338.28
   87.37        2960.25           1359         109.00       447.26
   87.41        2960.50           1362         130.00       538.81
   87.44        2960.75           1366         173.00       726.26
   87.47        2961.00           1369         208.00       878.84
   87.50        2961.25           1372         228.00       966.03
   87.53        2961.50           1376         311.00      1327.86
   87.56        2961.75           1379         406.00      1742.03
   87.59        2962.00           1382         804.00      3477.26
   87.62        2962.25           1386        2114.00      9189.98
   87.65        2962.50           1389        3357.00     14612.33
   87.69        2962.75           1392        4521.00     19691.66
   87.72        2963.00           1396        6227.00     27138.92
   87.75        2963.25           1399        7590.00     33091.25
   87.78        2963.50           1402        8987.00     39194.27
   87.81        2963.75           1406       10671.00     46554.08
   87.84        2964.00           1409       12082.00     52723.26
   87.87        2964.25           1412       13317.00     58124.81
   87.90        2964.50           1416       15139.00     66096.93
   87.93        2964.75           1419       16425.00     71726.10
   87.97        2965.00           1422       17785.00     77681.26
   88.00        2965.25           1426       19441.00     84935.41
   88.03        2965.50           1429       20749.00     90667.38
   88.06        2965.75           1432       22170.00     96896.78
   88.09        2966.00           1436       23896.00    104466.40
   88.12        2966.25           1439       25122.00    109845.30
   88.15        2966.50           1442       26325.00    115124.90
   88.18        2966.75           1446       27481.00    120199.90
   88.21        2967.00           1449       27895.00    122017.80
   88.25        2967.25           1452       27857.00    121850.90
   88.28        2967.50           1456       27925.00    122149.50
   88.31        2967.75           1459       28018.00    122557.90
   88.34        2968.00           1462       27791.00    121561.10
   88.37        2968.25           1466       27179.00    118873.90
   88.40        2968.50           1469       26014.00    113759.90
   88.43        2968.75           1472       24798.00    108423.60
   88.46        2969.00           1476       23034.00    100685.50
   88.49        2969.25           1479       21769.00     95138.64
   88.53        2969.50           1482       20658.00     90268.54
   88.56        2969.75           1486       18670.00     81557.63
   88.59        2970.00           1489       17563.00     76709.03
   88.62        2970.25           1492       16220.00     70828.63
   88.65        2970.50           1496       14629.00     63865.06
   88.68        2970.75           1499       13353.00     58282.29
   88.71        2971.00           1502       12160.00     53064.36
   88.74        2971.25           1506       10422.00     45465.64
   88.78        2971.50           1509        9185.00     40059.45
   88.81        2971.75           1513        7399.00     32257.01
   88.84        2972.00           1516        6044.00     26339.90
   88.87        2972.25           1519        4744.00     20664.94
   88.90        2972.50           1523        3034.00     13203.14
   88.93        2972.75           1526        1924.00      8361.30
   88.96        2973.00           1529         935.00      4048.44
   88.99        2973.25           1533         406.00      1742.03
   89.02        2973.50           1536         319.00      1362.74
   89.05        2973.75           1539         262.00      1114.25
   89.08        2974.00           1543         210.00       887.56
   89.11        2974.25           1546         169.00       708.82
   89.14        2974.50           1549         135.00       560.60
   89.18        2974.75           1553          89.00       360.07
   89.21        2975.00           1556          68.00       268.53
   89.24        2975.25           1559          57.00       220.58
   89.27        2975.50           1563          48.00       181.34
   89.30        2975.75           1566          53.00       203.14
   89.33        2976.00           1569          54.00       207.50
   89.36        2976.25           1573          42.00       155.19
   89.39        2976.50           1576          47.00       176.98
   89.42        2976.75           1579          50.00       190.06
   89.45        2977.00           1583          47.00       176.98
   89.48        2977.25           1586          59.00       229.30
   89.51        2977.50           1590          46.00       172.63
   89.54        2977.75           1593          39.00       142.11
   89.58        2978.00           1596          49.00       185.70
   89.61        2978.25           1600          54.00       207.50
   89.64        2978.50           1603          52.00       198.78
   89.67        2978.75           1606          54.00       207.50
   89.70        2979.00           1610          39.00       142.11
   89.73        2979.25           1613          49.00       185.70
   89.76        2979.50           1616          45.00       168.27
   89.79        2979.75           1620          50.00       190.06
   89.82        2980.00           1623          50.00       190.06
   89.85        2980.25           1626          50.00       190.06
   89.88        2980.50           1630          50.00       190.06
   89.91        2980.75           1633          49.00       185.70
   89.95        2981.00           1637          49.00       185.70
   89.98        2981.25           1640          54.00       207.50
   90.01        2981.50           1643          50.00       190.06
   90.04        2981.75           1647          52.00       198.78
   90.07        2982.00           1650          52.00       198.78
   90.10        2982.25           1653          45.00       168.27
   90.13        2982.50           1657          42.00       155.19
   90.16        2982.75           1660          49.00       185.70
   90.19        2983.00           1663          45.00       168.27
   90.22        2983.25           1667          53.00       203.14
   90.25        2983.50           1670          50.00       190.06
   90.28        2983.75           1673          52.00       198.78
   90.31        2984.00           1677          45.00       168.27
HS scan finished at 01:30:32
end
************************************************************
  HS Scan of (1) Internal mercury lamp
************************************************************
Integration time is 0.2294 seconds per sample
dh250818Manchester 53.47 2.23 2.804185pr1000
************************************************************
Dead Time -------------------------  3E-08 
Number of Cycles Used -------------  4 
Starting Wavelength (Angstroms) ---  2950 
Final Wavelength (Angstoms) -------  2984 
Wavelength Increment (Angstroms) --  .25 
Filter Wheel #1 Position ---------- (1) Ground quartz diffuser (ND=2.32)
Filter Wheel #2 Position ---------- (1) Neutral Density 0.494



************************************************************
HS scan start time = 20:12:02
Dark Count =  5.6 


Time (GMT)  Wavelength (Ang)  Step Number  Raw Counts  Counts/Second

 1212.40        2950.00           1222          50.00       193.55
 1212.46        2950.25           1226          59.00       232.78
 1212.49        2950.50           1229          53.00       206.63
 1212.52        2950.75           1232          53.00       206.63
 1212.55        2951.00           1236          54.00       210.99
 1212.59        2951.25           1239          57.00       224.06
 1212.62        2951.50           1242          54.00       210.99
 1212.65        2951.75           1246          60.00       237.14
 1212.68        2952.00           1249          49.00       189.19
 1212.71        2952.25           1252          53.00       206.63
 1212.74        2952.50           1256          56.00       219.71
 1212.77        2952.75           1259          60.00       237.14
 1212.80        2953.00           1262          52.00       202.27
 1212.83        2953.25           1266          52.00       202.27
 1212.86        2953.50           1269          56.00       219.71
 1212.89        2953.75           1272          52.00       202.27
 1212.92        2954.00           1276          46.00       176.11
 1212.96        2954.25           1279          54.00       210.99
 1212.99        2954.50           1282          53.00       206.63
 1213.02        2954.75           1286          50.00       193.55
 1213.05        2955.00           1289          55.00       215.35
 1213.08        2955.25           1292          50.00       193.55
 1213.11        2955.50           1296          49.00       189.19
 1213.14        2955.75           1299          46.00       176.11
 1213.17        2956.00           1302          48.00       184.83
 1213.20        2956.25           1306          55.00       215.35
 1213.23        2956.50           1309          51.00       197.91
 1213.26        2956.75           1312          52.00       202.27
 1213.29        2957.00           1316          52.00       202.27
 1213.33        2957.25           1319          54.00       210.99
 1213.36        2957.50           1322          59.00       232.78
 1213.39        2957.75           1326          55.00       215.35
 1213.42        2958.00           1329          47.00       180.47
 1213.45        2958.25           1332          64.00       254.58
 1213.48        2958.50           1336          48.00       184.83
 1213.51        2958.75           1339          48.00       184.83
 1213.54        2959.00           1342          43.00       163.03
 1213.57        2959.25           1346          52.00       202.27
 1213.60        2959.50           1349          58.00       228.42
 1213.63        2959.75           1352          69.00       276.38
 1213.66        2960.00           1356          86.00       350.48
 1213.70        2960.25           1359         119.00       494.34
 1213.73        2960.50           1362         145.00       607.68
 1213.76        2960.75           1366         196.00       830.01
 1213.79        2961.00           1369         220.00       934.64
 1213.82        2961.25           1372         254.00      1082.86
 1213.85        2961.50           1376         318.00      1361.87
 1213.88        2961.75           1379         481.00      2072.49
 1213.91        2962.00           1382        1063.00      4610.05
 1213.94        2962.25           1386        2593.00     11282.81
 1213.97        2962.50           1389        3816.00     16618.57
 1214.01        2962.75           1392        5136.00     22379.45
 1214.04        2963.00           1396        6774.00     29530.95
 1214.07        2963.25           1399        8096.00     35305.03
 1214.10        2963.50           1402        9249.00     40342.61
 1214.13        2963.75           1406       11068.00     48293.11
 1214.16        2964.00           1409       12365.00     53964.37
 1214.19        2964.25           1412       13719.00     59886.93
 1214.22        2964.50           1416       15274.00     66691.28
 1214.25        2964.75           1419       16519.00     72141.15
 1214.28        2965.00           1422       17936.00     78346.10
 1214.32        2965.25           1426       19624.00     85740.75
 1214.35        2965.50           1429       20878.00     91236.31
 1214.38        2965.75           1432       22295.00     97448.38
 1214.41        2966.00           1436       24039.00    105097.20
 1214.44        2966.25           1439       25187.00    110134.00
 1214.47        2966.50           1442       26505.00    115918.60
 1214.50        2966.75           1446       27449.00    120062.90
 1214.53        2967.00           1449       27691.00    121125.50
 1214.56        2967.25           1452       27731.00    121301.10
 1214.60        2967.50           1456       27725.00    121274.80
 1214.63        2967.75           1459       27822.00    121700.70
 1214.66        2968.00           1462       27561.00    120554.70
 1214.69        2968.25           1466       26456.00    115703.50
 1214.72        2968.50           1469       25393.00    111038.00
 1214.75        2968.75           1472       24276.00    106136.90
 1214.78        2969.00           1476       22415.00     97974.56
 1214.81        2969.25           1479       21303.00     93099.25
 1214.84        2969.50           1482       20124.00     87931.75
 1214.87        2969.75           1486       18259.00     79760.81
 1214.90        2970.00           1489       16975.00     74137.69
 1214.94        2970.25           1492       15697.00     68542.72
 1214.97        2970.50           1496       14141.00     61733.23
 1215.00        2970.75           1499       12879.00     56212.42
 1215.03        2971.00           1502       11627.00     50737.15
 1215.06        2971.25           1506        9829.00     42877.27
 1215.09        2971.50           1509        8521.00     37161.72
 1215.12        2971.75           1513        6789.00     29596.45
 1215.15        2972.00           1516        5532.00     24108.10
 1215.18        2972.25           1519        4254.00     18529.92
 1215.21        2972.50           1523        2487.00     10820.42
 1215.24        2972.75           1526        1402.00      6088.30
 1215.28        2973.00           1529         627.00      2709.03
 1215.31        2973.25           1533         328.00      1405.46
 1215.34        2973.50           1536         268.00      1143.89
 1215.37        2973.75           1539         240.00      1021.83
 1215.40        2974.00           1543         202.00       856.17
 1215.43        2974.25           1546         151.00       633.84
 1215.46        2974.50           1549         114.00       472.54
 1215.49        2974.75           1553          96.00       394.08
 1215.52        2975.00           1556          67.00       267.66
 1215.55        2975.25           1559          63.00       250.22
 1215.58        2975.50           1563          53.00       206.63
 1215.61        2975.75           1566          55.00       215.35
 1215.64        2976.00           1569          51.00       197.91
 1215.68        2976.25           1573          50.00       193.55
 1215.71        2976.50           1576          54.00       210.99
 1215.74        2976.75           1579          51.00       197.91
 1215.77        2977.00           1583          46.00       176.11
 1215.80        2977.25           1586          57.00       224.06
 1215.83        2977.50           1590          50.00       193.55
 1215.86        2977.75           1593          45.00       171.75
 1215.89        2978.00           1596          46.00       176.11
 1215.92        2978.25           1600          44.00       167.39
 1215.95        2978.50           1603          45.00       171.75
 1215.98        2978.75           1606          51.00       197.91
 1216.01        2979.00           1610          52.00       202.27
 1216.04        2979.25           1613          42.00       158.68
 1216.07        2979.50           1616          50.00       193.55
 1216.10        2979.75           1620          46.00       176.11
 1216.14        2980.00           1623          50.00       193.55
 1216.17        2980.25           1626          52.00       202.27
 1216.20        2980.50           1630          48.00       184.83
 1216.23        2980.75           1633          43.00       163.03
 1216.26        2981.00           1637          47.00       180.47
 1216.29        2981.25           1640          49.00       189.19
 1216.32        2981.50           1643          57.00       224.06
 1216.35        2981.75           1647          48.00       184.83
 1216.38        2982.00           1650          49.00       189.19
 1216.41        2982.25           1653          51.00       197.91
 1216.44        2982.50           1657          48.00       184.83
 1216.47        2982.75           1660          52.00       202.27
 1216.51        2983.00           1663          50.00       193.55
 1216.54        2983.25           1667          43.00       163.03
 1216.57        2983.50           1670          46.00       176.11
 1216.60        2983.75           1673          46.00       176.11
 1216.63        2984.00           1677          50.00       193.55
HS scan finished at 20:16:51
end
