************************************************************
  HS Scan of (1) Internal mercury lamp
************************************************************
Integration time is 0.2294 seconds per sample
dh190817Manchester 53.47 2.23 2.804185pr1000
************************************************************
Dead Time -------------------------  3E-08 
Number of Cycles Used -------------  4 
Starting Wavelength (Angstroms) ---  2950 
Final Wavelength (Angstoms) -------  2984 
Wavelength Increment (Angstroms) --  .25 
Filter Wheel #1 Position ---------- (1) Ground quartz diffuser (ND=2.32)
Filter Wheel #2 Position ---------- (1) Neutral Density 0.494



************************************************************
HS scan start time = 01:29:11
Dark Count =  6.6 


Time (GMT)  Wavelength (Ang)  Step Number  Raw Counts  Counts/Second

   89.55        2950.00           1222          86.00       346.12
   89.62        2950.25           1226          90.00       363.56
   89.65        2950.50           1229          83.00       333.05
   89.68        2950.75           1232          86.00       346.12
   89.71        2951.00           1236          85.00       341.76
   89.74        2951.25           1239          81.00       324.33
   89.77        2951.50           1242          81.00       324.33
   89.80        2951.75           1246          88.00       354.84
   89.83        2952.00           1249          84.00       337.41
   89.86        2952.25           1252          88.00       354.84
   89.89        2952.50           1256          90.00       363.56
   89.92        2952.75           1259          74.00       293.81
   89.96        2953.00           1262          82.00       328.69
   89.99        2953.25           1266          83.00       333.05
   90.02        2953.50           1269          84.00       337.41
   90.05        2953.75           1272          89.00       359.20
   90.08        2954.00           1276          84.00       337.41
   90.11        2954.25           1279          75.00       298.17
   90.14        2954.50           1282          85.00       341.76
   90.17        2954.75           1286          86.00       346.12
   90.20        2955.00           1289          77.00       306.89
   90.23        2955.25           1292          80.00       319.97
   90.26        2955.50           1296          66.00       258.94
   90.29        2955.75           1299          80.00       319.97
   90.33        2956.00           1302          86.00       346.12
   90.36        2956.25           1306          81.00       324.33
   90.39        2956.50           1309          71.00       280.73
   90.42        2956.75           1312          84.00       337.41
   90.45        2957.00           1316          82.00       328.69
   90.48        2957.25           1319          80.00       319.97
   90.51        2957.50           1322          87.00       350.48
   90.54        2957.75           1326          79.00       315.61
   90.57        2958.00           1329          90.00       363.56
   90.60        2958.25           1332          80.00       319.97
   90.63        2958.50           1336          74.00       293.81
   90.67        2958.75           1339          80.00       319.97
   90.70        2959.00           1342          80.00       319.97
   90.73        2959.25           1346          84.00       337.41
   90.76        2959.50           1349          91.00       367.92
   90.79        2959.75           1352         101.00       411.51
   90.82        2960.00           1356         137.00       568.45
   90.85        2960.25           1359         168.00       703.59
   90.88        2960.50           1362         223.00       943.36
   90.91        2960.75           1366         262.00      1113.38
   90.94        2961.00           1369         318.00      1357.51
   90.97        2961.25           1372         344.00      1470.86
   91.01        2961.50           1376         429.00      1841.43
   91.04        2961.75           1379         572.00      2464.87
   91.07        2962.00           1382        1127.00      4884.76
   91.10        2962.25           1386        2783.00     12107.27
   91.13        2962.50           1389        4405.00     19184.53
   91.16        2962.75           1392        5920.00     25797.64
   91.19        2963.00           1396        7880.00     34357.11
   91.22        2963.25           1399        9580.00     41784.70
   91.25        2963.50           1402       11292.00     49268.07
   91.28        2963.75           1406       13644.00     59554.44
   91.32        2964.00           1409       15217.00     66437.43
   91.35        2964.25           1412       16935.00     73958.16
   91.38        2964.50           1416       19233.00     84023.22
   91.41        2964.75           1419       20894.00     91302.05
   91.44        2965.00           1422       22537.00     98505.14
   91.47        2965.25           1426       24679.00    107900.60
   91.50        2965.50           1429       26427.00    115571.80
   91.53        2965.75           1432       28168.00    123215.70
   91.56        2966.00           1436       30282.00    132502.10
   91.60        2966.25           1439       31832.00    139314.30
   91.63        2966.50           1442       33321.00    145860.90
   91.66        2966.75           1446       34754.00    152163.80
   91.69        2967.00           1449       35255.00    154368.00
   91.72        2967.25           1452       35274.00    154451.60
   91.75        2967.50           1456       35371.00    154878.40
   91.78        2967.75           1459       35547.00    155652.80
   91.81        2968.00           1462       35265.00    154412.00
   91.84        2968.25           1466       34536.00    151204.80
   91.87        2968.50           1469       33023.00    144550.50
   91.91        2968.75           1472       31437.00    137578.00
   91.94        2969.00           1476       29420.00    128714.90
   91.97        2969.25           1479       27766.00    121450.40
   92.00        2969.50           1482       25912.00    113311.30
   92.03        2969.75           1486       23826.00    104158.40
   92.06        2970.00           1489       22400.00     97904.41
   92.09        2970.25           1492       20760.00     90714.72
   92.12        2970.50           1496       18649.00     81464.77
   92.15        2970.75           1499       17047.00     74448.57
   92.19        2971.00           1502       15347.00     67006.41
   92.22        2971.25           1506       13301.00     58053.94
   92.25        2971.50           1509       11595.00     50592.87
   92.28        2971.75           1513        9612.00     41924.54
   92.31        2972.00           1516        7869.00     34309.06
   92.34        2972.25           1519        6255.00     27260.30
   92.37        2972.50           1523        3998.00     17408.39
   92.40        2972.75           1526        2543.00     11060.34
   92.43        2973.00           1529        1182.00      5124.59
   92.46        2973.25           1533         494.00      2124.81
   92.49        2973.50           1536         357.00      1527.53
   92.53        2973.75           1539         290.00      1235.44
   92.56        2974.00           1543         240.00      1017.47
   92.59        2974.25           1546         178.00       747.18
   92.62        2974.50           1549         140.00       581.53
   92.65        2974.75           1553         106.00       433.31
   92.68        2975.00           1556          96.00       389.72
   92.71        2975.25           1559          89.00       359.20
   92.74        2975.50           1563          75.00       298.17
   92.77        2975.75           1566          74.00       293.81
   92.80        2976.00           1569          81.00       324.33
   92.84        2976.25           1573          77.00       306.89
   92.87        2976.50           1576          78.00       311.25
   92.90        2976.75           1579          71.00       280.73
   92.93        2977.00           1583          71.00       280.73
   92.96        2977.25           1586          66.00       258.94
   92.99        2977.50           1590          76.00       302.53
   93.02        2977.75           1593          71.00       280.73
   93.05        2978.00           1596          69.00       272.02
   93.08        2978.25           1600          66.00       258.94
   93.11        2978.50           1603          77.00       306.89
   93.14        2978.75           1606          74.00       293.81
   93.17        2979.00           1610          86.00       346.12
   93.20        2979.25           1613          74.00       293.81
   93.24        2979.50           1616          74.00       293.81
   93.27        2979.75           1620          72.00       285.09
   93.30        2980.00           1623          63.00       245.86
   93.33        2980.25           1626          77.00       306.89
   93.36        2980.50           1630          78.00       311.25
   93.39        2980.75           1633          71.00       280.73
   93.42        2981.00           1637          78.00       311.25
   93.45        2981.25           1640          86.00       346.12
   93.48        2981.50           1643          74.00       293.81
   93.51        2981.75           1647          75.00       298.17
   93.54        2982.00           1650          72.00       285.09
   93.57        2982.25           1653          76.00       302.53
   93.61        2982.50           1657          69.00       272.02
   93.64        2982.75           1660          73.00       289.45
   93.67        2983.00           1663          75.00       298.17
   93.70        2983.25           1667          74.00       293.81
   93.73        2983.50           1670          81.00       324.33
   93.76        2983.75           1673          67.00       263.30
   93.79        2984.00           1677          70.00       276.38
HS scan finished at 01:34:00
end
************************************************************
  HS Scan of (1) Internal mercury lamp
************************************************************
Integration time is 0.2294 seconds per sample
dh190817Manchester 53.47 2.23 2.857833pr1000
************************************************************
Dead Time -------------------------  3E-08 
Number of Cycles Used -------------  4 
Starting Wavelength (Angstroms) ---  2950 
Final Wavelength (Angstoms) -------  2984 
Wavelength Increment (Angstroms) --  .25 
Filter Wheel #1 Position ---------- (1) Ground quartz diffuser (ND=2.32)
Filter Wheel #2 Position ---------- (1) Neutral Density 0.494



************************************************************
HS scan start time = 20:42:01
Dark Count =  5.3 


Time (GMT)  Wavelength (Ang)  Step Number  Raw Counts  Counts/Second

 1242.38        2950.00           1222          87.00       356.15
 1242.45        2950.25           1226          83.00       338.71
 1242.48        2950.50           1229          87.00       356.15
 1242.51        2950.75           1232          79.00       321.28
 1242.54        2951.00           1236          83.00       338.71
 1242.58        2951.25           1239          78.00       316.92
 1242.61        2951.50           1242          77.00       312.56
 1242.64        2951.75           1246          76.00       308.20
 1242.67        2952.00           1249          87.00       356.15
 1242.70        2952.25           1252          91.00       373.59
 1242.73        2952.50           1256          86.00       351.79
 1242.76        2952.75           1259          84.00       343.07
 1242.79        2953.00           1262          87.00       356.15
 1242.82        2953.25           1266          86.00       351.79
 1242.85        2953.50           1269          74.00       299.48
 1242.88        2953.75           1272          79.00       321.28
 1242.91        2954.00           1276          83.00       338.71
 1242.95        2954.25           1279          88.00       360.51
 1242.98        2954.50           1282          76.00       308.20
 1243.01        2954.75           1286          90.00       369.23
 1243.04        2955.00           1289          83.00       338.71
 1243.07        2955.25           1292          84.00       343.07
 1243.10        2955.50           1296          81.00       329.99
 1243.13        2955.75           1299          93.00       382.31
 1243.16        2956.00           1302         103.00       425.90
 1243.19        2956.25           1306          91.00       373.59
 1243.22        2956.50           1309          83.00       338.71
 1243.25        2956.75           1312          83.00       338.71
 1243.28        2957.00           1316          80.00       325.64
 1243.31        2957.25           1319          83.00       338.71
 1243.35        2957.50           1322          77.00       312.56
 1243.38        2957.75           1326          81.00       329.99
 1243.41        2958.00           1329          79.00       321.28
 1243.44        2958.25           1332          86.00       351.79
 1243.47        2958.50           1336          88.00       360.51
 1243.50        2958.75           1339          77.00       312.56
 1243.53        2959.00           1342          86.00       351.79
 1243.56        2959.25           1346          91.00       373.59
 1243.59        2959.50           1349          97.00       399.74
 1243.62        2959.75           1352         113.00       469.49
 1243.65        2960.00           1356         142.00       595.91
 1243.68        2960.25           1359         180.00       761.57
 1243.71        2960.50           1362         242.00      1031.85
 1243.74        2960.75           1366         269.00      1149.56
 1243.78        2961.00           1369         307.00      1315.22
 1243.81        2961.25           1372         360.00      1546.28
 1243.84        2961.50           1376         437.00      1881.97
 1243.87        2961.75           1379         592.00      2557.74
 1243.90        2962.00           1382        1227.00      5326.48
 1243.93        2962.25           1386        3124.00     13600.58
 1243.96        2962.50           1389        4626.00     20154.73
 1243.99        2962.75           1392        6243.00     27213.58
 1244.02        2963.00           1396        8244.00     35952.88
 1244.05        2963.25           1399        9906.00     43215.10
 1244.08        2963.50           1402       11388.00     49693.48
 1244.12        2963.75           1406       13717.00     59879.49
 1244.15        2964.00           1409       15349.00     67020.85
 1244.18        2964.25           1412       17142.00     74870.25
 1244.21        2964.50           1416       19238.00     84050.81
 1244.24        2964.75           1419       21060.00     92035.36
 1244.27        2965.00           1422       22744.00     99418.57
 1244.30        2965.25           1426       24912.00    108928.60
 1244.33        2965.50           1429       26571.00    116209.60
 1244.36        2965.75           1432       28187.00    123304.90
 1244.39        2966.00           1436       30259.00    132406.80
 1244.42        2966.25           1439       31752.00    138968.30
 1244.45        2966.50           1442       33130.00    145026.80
 1244.48        2966.75           1446       34968.00    153111.00
 1244.52        2967.00           1449       35278.00    154474.90
 1244.55        2967.25           1452       35544.00    155645.30
 1244.58        2967.50           1456       35397.00    154998.50
 1244.61        2967.75           1459       35441.00    155192.10
 1244.64        2968.00           1462       35382.00    154932.50
 1244.67        2968.25           1466       34193.00    149701.80
 1244.70        2968.50           1469       32531.00    142392.90
 1244.73        2968.75           1472       31231.00    136678.30
 1244.76        2969.00           1476       29165.00    127600.40
 1244.80        2969.25           1479       27600.00    120727.20
 1244.83        2969.50           1482       26063.00    113979.80
 1244.86        2969.75           1486       23661.00    103440.40
 1244.89        2970.00           1489       22003.00     96169.39
 1244.92        2970.25           1492       20537.00     89743.03
 1244.95        2970.50           1496       18260.00     79766.50
 1244.98        2970.75           1499       16604.00     72514.60
 1245.01        2971.00           1502       15034.00     65642.23
 1245.04        2971.25           1506       12833.00     56012.53
 1245.07        2971.50           1509       11135.00     48587.34
 1245.11        2971.75           1513        8967.00     39111.69
 1245.14        2972.00           1516        7405.00     32288.02
 1245.17        2972.25           1519        5731.00     24978.17
 1245.20        2972.50           1523        3735.00     16266.44
 1245.23        2972.75           1526        2186.00      9508.81
 1245.26        2973.00           1529         914.00      3961.67
 1245.29        2973.25           1533         458.00      1973.53
 1245.32        2973.50           1536         356.00      1528.84
 1245.35        2973.75           1539         298.00      1275.99
 1245.38        2974.00           1543         236.00      1005.70
 1245.41        2974.25           1546         190.00       805.16
 1245.45        2974.50           1549         152.00       639.51
 1245.48        2974.75           1553         106.00       438.98
 1245.51        2975.00           1556          92.00       377.95
 1245.54        2975.25           1559          75.00       303.84
 1245.57        2975.50           1563          82.00       334.35
 1245.60        2975.75           1566          83.00       338.71
 1245.63        2976.00           1569          82.00       334.35
 1245.66        2976.25           1573          77.00       312.56
 1245.69        2976.50           1576          87.00       356.15
 1245.72        2976.75           1579          77.00       312.56
 1245.75        2977.00           1583          72.00       290.76
 1245.79        2977.25           1586          77.00       312.56
 1245.82        2977.50           1590          81.00       329.99
 1245.85        2977.75           1593          79.00       321.28
 1245.88        2978.00           1596          69.00       277.68
 1245.91        2978.25           1600          69.00       277.68
 1245.94        2978.50           1603          78.00       316.92
 1245.97        2978.75           1606          75.00       303.84
 1246.00        2979.00           1610          76.00       308.20
 1246.03        2979.25           1613          80.00       325.64
 1246.06        2979.50           1616          82.00       334.35
 1246.10        2979.75           1620          67.00       268.96
 1246.13        2980.00           1623          72.00       290.76
 1246.16        2980.25           1626          70.00       282.04
 1246.19        2980.50           1630          72.00       290.76
 1246.22        2980.75           1633          76.00       308.20
 1246.25        2981.00           1637          75.00       303.84
 1246.28        2981.25           1640          82.00       334.35
 1246.31        2981.50           1643          79.00       321.28
 1246.34        2981.75           1647          75.00       303.84
 1246.38        2982.00           1650          70.00       282.04
 1246.41        2982.25           1653          68.00       273.32
 1246.44        2982.50           1657          70.00       282.04
 1246.47        2982.75           1660          70.00       282.04
 1246.50        2983.00           1663          74.00       299.48
 1246.53        2983.25           1667          67.00       268.96
 1246.56        2983.50           1670          72.00       290.76
 1246.59        2983.75           1673          64.00       255.89
 1246.62        2984.00           1677          69.00       277.68
HS scan finished at 20:46:50
end
