************************************************************
  HS Scan of (1) Internal mercury lamp
************************************************************
Integration time is 0.2294 seconds per sample
dh240818Manchester 53.47 2.23 2.804185pr1000
************************************************************
Dead Time -------------------------  3E-08 
Number of Cycles Used -------------  4 
Starting Wavelength (Angstroms) ---  2950 
Final Wavelength (Angstoms) -------  2984 
Wavelength Increment (Angstroms) --  .25 
Filter Wheel #1 Position ---------- (1) Ground quartz diffuser (ND=2.32)
Filter Wheel #2 Position ---------- (1) Neutral Density 0.494



************************************************************
HS scan start time = 01:35:25
Dark Count =  7 


Time (GMT)  Wavelength (Ang)  Step Number  Raw Counts  Counts/Second

   95.79        2950.00           1222          53.00       200.52
   95.85        2950.25           1226          54.00       204.88
   95.88        2950.50           1229          55.00       209.24
   95.91        2950.75           1232          53.00       200.52
   95.95        2951.00           1236          53.00       200.52
   95.98        2951.25           1239          45.00       165.65
   96.01        2951.50           1242          48.00       178.73
   96.04        2951.75           1246          58.00       222.32
   96.07        2952.00           1249          55.00       209.24
   96.10        2952.25           1252          48.00       178.73
   96.13        2952.50           1256          60.00       231.04
   96.16        2952.75           1259          59.00       226.68
   96.19        2953.00           1262          54.00       204.88
   96.22        2953.25           1266          63.00       244.12
   96.25        2953.50           1269          51.00       191.81
   96.29        2953.75           1272          54.00       204.88
   96.32        2954.00           1276          51.00       191.81
   96.35        2954.25           1279          43.00       156.93
   96.38        2954.50           1282          47.00       174.37
   96.41        2954.75           1286          53.00       200.52
   96.44        2955.00           1289          55.00       209.24
   96.47        2955.25           1292          52.00       196.17
   96.50        2955.50           1296          56.00       213.60
   96.53        2955.75           1299          48.00       178.73
   96.56        2956.00           1302          58.00       222.32
   96.59        2956.25           1306          48.00       178.73
   96.63        2956.50           1309          44.00       161.29
   96.66        2956.75           1312          55.00       209.24
   96.69        2957.00           1316          49.00       183.09
   96.72        2957.25           1319          51.00       191.81
   96.75        2957.50           1322          52.00       196.17
   96.78        2957.75           1326          52.00       196.17
   96.81        2958.00           1329          55.00       209.24
   96.84        2958.25           1332          51.00       191.81
   96.87        2958.50           1336          55.00       209.24
   96.90        2958.75           1339          50.00       187.45
   96.93        2959.00           1342          51.00       191.81
   96.96        2959.25           1346          65.00       252.84
   97.00        2959.50           1349          62.00       239.76
   97.03        2959.75           1352          82.00       326.94
   97.06        2960.00           1356         107.00       435.93
   97.09        2960.25           1359         150.00       623.38
   97.12        2960.50           1362         179.00       749.80
   97.15        2960.75           1366         210.00       884.94
   97.18        2961.00           1369         249.00      1054.96
   97.21        2961.25           1372         273.00      1159.59
   97.24        2961.50           1376         361.00      1543.23
   97.27        2961.75           1379         516.00      2218.98
   97.30        2962.00           1382        1068.00      4625.75
   97.34        2962.25           1386        2601.00     11311.60
   97.37        2962.50           1389        3817.00     16616.83
   97.40        2962.75           1392        5132.00     22355.88
   97.43        2963.00           1396        6903.00     30088.18
   97.46        2963.25           1399        8100.00     35316.38
   97.49        2963.50           1402        9478.00     41337.20
   97.52        2963.75           1406       11176.00     48759.16
   97.55        2964.00           1409       12729.00     55550.22
   97.58        2964.25           1412       14016.00     61180.20
   97.62        2964.50           1416       15638.00     68278.34
   97.65        2964.75           1419       16955.00     74043.98
   97.68        2965.00           1422       18181.00     79413.03
   97.71        2965.25           1426       19856.00     86751.19
   97.74        2965.50           1429       21270.00     92948.44
   97.77        2965.75           1432       22674.00     99104.15
   97.80        2966.00           1436       24428.00    106797.60
   97.83        2966.25           1439       25545.00    111698.90
   97.86        2966.50           1442       26465.00    115736.80
   97.90        2966.75           1446       27569.00    120583.70
   97.93        2967.00           1449       27801.00    121602.40
   97.96        2967.25           1452       27898.00    122028.30
   97.99        2967.50           1456       27805.00    121619.90
   98.02        2967.75           1459       27819.00    121681.40
   98.05        2968.00           1462       27797.00    121584.80
   98.08        2968.25           1466       26768.00    117066.90
   98.11        2968.50           1469       25585.00    111874.40
   98.14        2968.75           1472       24282.00    106157.10
   98.18        2969.00           1476       22556.00     98586.71
   98.21        2969.25           1479       21492.00     93921.62
   98.24        2969.50           1482       20223.00     88359.46
   98.27        2969.75           1486       18547.00     81016.20
   98.30        2970.00           1489       17183.00     75042.34
   98.33        2970.25           1492       15960.00     69687.83
   98.36        2970.50           1496       14286.00     62361.55
   98.39        2970.75           1499       13044.00     56928.01
   98.42        2971.00           1502       11743.00     51238.24
   98.46        2971.25           1506       10019.00     43701.55
   98.49        2971.50           1509        8704.00     37955.14
   98.52        2971.75           1513        6920.00     30162.42
   98.55        2972.00           1516        5733.00     24979.48
   98.58        2972.25           1519        4477.00     19497.02
   98.61        2972.50           1523        2837.00     12341.10
   98.64        2972.75           1526        1620.00      7032.87
   98.67        2973.00           1529         681.00      2938.36
   98.70        2973.25           1533         316.00      1347.05
   98.73        2973.50           1536         243.00      1028.80
   98.76        2973.75           1539         200.00       841.35
   98.79        2974.00           1543         161.00       671.33
   98.83        2974.25           1546         126.00       518.75
   98.86        2974.50           1549          97.00       392.33
   98.89        2974.75           1553          66.00       257.19
   98.92        2975.00           1556          64.00       248.48
   98.95        2975.25           1559          55.00       209.24
   98.98        2975.50           1563          55.00       209.24
   99.01        2975.75           1566          42.00       152.57
   99.04        2976.00           1569          55.00       209.24
   99.07        2976.25           1573          49.00       183.09
   99.10        2976.50           1576          54.00       204.88
   99.13        2976.75           1579          53.00       200.52
   99.16        2977.00           1583          47.00       174.37
   99.20        2977.25           1586          54.00       204.88
   99.23        2977.50           1590          48.00       178.73
   99.26        2977.75           1593          46.00       170.01
   99.29        2978.00           1596          44.00       161.29
   99.32        2978.25           1600          54.00       204.88
   99.35        2978.50           1603          52.00       196.17
   99.38        2978.75           1606          47.00       174.37
   99.41        2979.00           1610          49.00       183.09
   99.44        2979.25           1613          48.00       178.73
   99.47        2979.50           1616          45.00       165.65
   99.50        2979.75           1620          55.00       209.24
   99.53        2980.00           1623          49.00       183.09
   99.56        2980.25           1626          49.00       183.09
   99.59        2980.50           1630          48.00       178.73
   99.63        2980.75           1633          53.00       200.52
   99.66        2981.00           1637          41.00       148.21
   99.69        2981.25           1640          45.00       165.65
   99.72        2981.50           1643          44.00       161.29
   99.75        2981.75           1647          42.00       152.57
   99.78        2982.00           1650          54.00       204.88
   99.81        2982.25           1653          43.00       156.93
   99.84        2982.50           1657          46.00       170.01
   99.87        2982.75           1660          50.00       187.45
   99.90        2983.00           1663          47.00       174.37
   99.94        2983.25           1667          51.00       191.81
   99.97        2983.50           1670          46.00       170.01
  100.00        2983.75           1673          50.00       187.45
  100.03        2984.00           1677          45.00       165.65
HS scan finished at 01:40:15
end
************************************************************
  HS Scan of (1) Internal mercury lamp
************************************************************
Integration time is 0.2294 seconds per sample
dh240818Manchester 53.47 2.23 2.804185pr1000
************************************************************
Dead Time -------------------------  3E-08 
Number of Cycles Used -------------  4 
Starting Wavelength (Angstroms) ---  2950 
Final Wavelength (Angstoms) -------  2984 
Wavelength Increment (Angstroms) --  .25 
Filter Wheel #1 Position ---------- (1) Ground quartz diffuser (ND=2.32)
Filter Wheel #2 Position ---------- (1) Neutral Density 0.494



************************************************************
HS scan start time = 20:11:59
Dark Count =  5.2 


Time (GMT)  Wavelength (Ang)  Step Number  Raw Counts  Counts/Second

 1212.35        2950.00           1222          49.00       190.93
 1212.41        2950.25           1226          50.00       195.29
 1212.44        2950.50           1229          46.00       177.86
 1212.47        2950.75           1232          54.00       212.73
 1212.50        2951.00           1236          48.00       186.57
 1212.53        2951.25           1239          52.00       204.01
 1212.56        2951.50           1242          53.00       208.37
 1212.59        2951.75           1246          51.00       199.65
 1212.63        2952.00           1249          56.00       221.45
 1212.66        2952.25           1252          56.00       221.45
 1212.69        2952.50           1256          53.00       208.37
 1212.72        2952.75           1259          57.00       225.81
 1212.75        2953.00           1262          52.00       204.01
 1212.78        2953.25           1266          50.00       195.29
 1212.81        2953.50           1269          49.00       190.93
 1212.84        2953.75           1272          46.00       177.86
 1212.87        2954.00           1276          51.00       199.65
 1212.90        2954.25           1279          52.00       204.01
 1212.93        2954.50           1282          57.00       225.81
 1212.96        2954.75           1286          58.00       230.17
 1213.00        2955.00           1289          58.00       230.17
 1213.03        2955.25           1292          53.00       208.37
 1213.06        2955.50           1296          61.00       243.25
 1213.09        2955.75           1299          52.00       204.01
 1213.12        2956.00           1302          53.00       208.37
 1213.15        2956.25           1306          51.00       199.65
 1213.18        2956.50           1309          54.00       212.73
 1213.21        2956.75           1312          54.00       212.73
 1213.24        2957.00           1316          47.00       182.22
 1213.27        2957.25           1319          57.00       225.81
 1213.30        2957.50           1322          65.00       260.68
 1213.33        2957.75           1326          56.00       221.45
 1213.36        2958.00           1329          58.00       230.17
 1213.39        2958.25           1332          47.00       182.22
 1213.42        2958.50           1336          52.00       204.01
 1213.46        2958.75           1339          52.00       204.01
 1213.49        2959.00           1342          50.00       195.29
 1213.52        2959.25           1346          55.00       217.09
 1213.55        2959.50           1349          64.00       256.32
 1213.58        2959.75           1352          72.00       291.20
 1213.61        2960.00           1356          93.00       382.74
 1213.64        2960.25           1359         126.00       526.60
 1213.67        2960.50           1362         156.00       657.38
 1213.70        2960.75           1366         192.00       814.32
 1213.73        2961.00           1369         222.00       945.10
 1213.77        2961.25           1372         259.00      1106.40
 1213.80        2961.50           1376         355.00      1524.92
 1213.83        2961.75           1379         604.00      2610.49
 1213.86        2962.00           1382        1422.00      6177.26
 1213.89        2962.25           1386        2957.00     12872.45
 1213.92        2962.50           1389        4149.00     18073.44
 1213.95        2962.75           1392        5550.00     24188.43
 1213.98        2963.00           1396        7229.00     31519.77
 1214.01        2963.25           1399        8355.00     36438.24
 1214.04        2963.50           1402        9751.00     42538.12
 1214.08        2963.75           1406       11451.00     49969.37
 1214.11        2964.00           1409       12911.00     56354.13
 1214.14        2964.25           1412       14167.00     61848.74
 1214.17        2964.50           1416       15713.00     68614.50
 1214.20        2964.75           1419       17090.00     74643.00
 1214.23        2965.00           1422       18378.00     80283.81
 1214.26        2965.25           1426       20196.00     88249.02
 1214.29        2965.50           1429       21442.00     93710.34
 1214.32        2965.75           1432       22707.00     99256.77
 1214.36        2966.00           1436       24532.00    107261.80
 1214.39        2966.25           1439       25616.00    112018.40
 1214.42        2966.50           1442       26780.00    117127.50
 1214.45        2966.75           1446       27587.00    120670.60
 1214.48        2967.00           1449       27779.00    121513.70
 1214.51        2967.25           1452       27810.00    121649.80
 1214.54        2967.50           1456       27911.00    122093.30
 1214.57        2967.75           1459       27768.00    121465.40
 1214.60        2968.00           1462       27461.00    120117.30
 1214.64        2968.25           1466       26523.00    115999.30
 1214.67        2968.50           1469       25127.00    109872.50
 1214.70        2968.75           1472       24092.00    105331.50
 1214.73        2969.00           1476       22257.00     97283.52
 1214.76        2969.25           1479       21034.00     91921.84
 1214.79        2969.50           1482       19745.00     86272.71
 1214.82        2969.75           1486       17979.00     78536.18
 1214.85        2970.00           1489       16732.00     73075.46
 1214.88        2970.25           1492       15523.00     67782.86
 1214.92        2970.50           1496       13889.00     60632.43
 1214.95        2970.75           1499       12685.00     55365.65
 1214.98        2971.00           1502       11416.00     49816.33
 1215.01        2971.25           1506        9527.00     41559.19
 1215.04        2971.50           1509        8275.00     36088.75
 1215.07        2971.75           1513        6475.00     28227.03
 1215.10        2972.00           1516        5303.00     23110.18
 1215.13        2972.25           1519        3961.00     17253.04
 1215.16        2972.50           1523        2233.00      9714.25
 1215.20        2972.75           1526        1156.00      5017.32
 1215.23        2973.00           1529         520.00      2244.27
 1215.26        2973.25           1533         331.00      1420.29
 1215.29        2973.50           1536         261.00      1115.12
 1215.32        2973.75           1539         233.00       993.05
 1215.35        2974.00           1543         184.00       779.44
 1215.38        2974.25           1546         136.00       570.19
 1215.41        2974.50           1549         114.00       474.29
 1215.44        2974.75           1553          81.00       330.43
 1215.47        2975.00           1556          55.00       217.09
 1215.50        2975.25           1559          54.00       212.73
 1215.53        2975.50           1563          54.00       212.73
 1215.57        2975.75           1566          49.00       190.93
 1215.60        2976.00           1569          47.00       182.22
 1215.63        2976.25           1573          52.00       204.01
 1215.66        2976.50           1576          41.00       156.06
 1215.69        2976.75           1579          53.00       208.37
 1215.72        2977.00           1583          51.00       199.65
 1215.75        2977.25           1586          50.00       195.29
 1215.78        2977.50           1590          50.00       195.29
 1215.81        2977.75           1593          46.00       177.86
 1215.84        2978.00           1596          47.00       182.22
 1215.88        2978.25           1600          41.00       156.06
 1215.91        2978.50           1603          53.00       208.37
 1215.94        2978.75           1606          49.00       190.93
 1215.97        2979.00           1610          48.00       186.57
 1216.00        2979.25           1613          46.00       177.86
 1216.03        2979.50           1616          47.00       182.22
 1216.06        2979.75           1620          48.00       186.57
 1216.09        2980.00           1623          52.00       204.01
 1216.12        2980.25           1626          47.00       182.22
 1216.15        2980.50           1630          47.00       182.22
 1216.18        2980.75           1633          45.00       173.50
 1216.21        2981.00           1637          50.00       195.29
 1216.24        2981.25           1640          48.00       186.57
 1216.27        2981.50           1643          52.00       204.01
 1216.31        2981.75           1647          49.00       190.93
 1216.34        2982.00           1650          42.00       160.42
 1216.37        2982.25           1653          56.00       221.45
 1216.40        2982.50           1657          47.00       182.22
 1216.43        2982.75           1660          52.00       204.01
 1216.46        2983.00           1663          45.00       173.50
 1216.49        2983.25           1667          51.00       199.65
 1216.52        2983.50           1670          53.00       208.37
 1216.55        2983.75           1673          43.00       164.78
 1216.58        2984.00           1677          47.00       182.22
HS scan finished at 20:16:48
end
