************************************************************
  HS Scan of (1) Internal mercury lamp
************************************************************
Integration time is 0.2294 seconds per sample
dh260817Manchester 53.47 2.23 2.965129pr1000
************************************************************
Dead Time -------------------------  3E-08 
Number of Cycles Used -------------  4 
Starting Wavelength (Angstroms) ---  2950 
Final Wavelength (Angstoms) -------  2984 
Wavelength Increment (Angstroms) --  .25 
Filter Wheel #1 Position ---------- (1) Ground quartz diffuser (ND=2.32)
Filter Wheel #2 Position ---------- (1) Neutral Density 0.494



************************************************************
HS scan start time = 01:27:04
Dark Count =  5.8 


Time (GMT)  Wavelength (Ang)  Step Number  Raw Counts  Counts/Second

   87.44        2950.00           1222          84.00       340.89
   87.51        2950.25           1226          78.00       314.74
   87.54        2950.50           1229          76.00       306.02
   87.57        2950.75           1232          77.00       310.38
   87.60        2951.00           1236          75.00       301.66
   87.63        2951.25           1239          77.00       310.38
   87.66        2951.50           1242          83.00       336.53
   87.69        2951.75           1246          76.00       306.02
   87.72        2952.00           1249          78.00       314.74
   87.75        2952.25           1252          92.00       375.77
   87.79        2952.50           1256          81.00       327.81
   87.82        2952.75           1259          75.00       301.66
   87.85        2953.00           1262          72.00       288.58
   87.88        2953.25           1266          72.00       288.58
   87.91        2953.50           1269          88.00       358.33
   87.94        2953.75           1272          82.00       332.17
   87.97        2954.00           1276          88.00       358.33
   88.00        2954.25           1279          71.00       284.22
   88.03        2954.50           1282          74.00       297.30
   88.06        2954.75           1286          83.00       336.53
   88.09        2955.00           1289          85.00       345.25
   88.13        2955.25           1292          78.00       314.74
   88.16        2955.50           1296          87.00       353.97
   88.19        2955.75           1299          81.00       327.81
   88.22        2956.00           1302          81.00       327.81
   88.25        2956.25           1306          75.00       301.66
   88.28        2956.50           1309          82.00       332.17
   88.31        2956.75           1312          78.00       314.74
   88.34        2957.00           1316          80.00       323.46
   88.37        2957.25           1319          78.00       314.74
   88.40        2957.50           1322          74.00       297.30
   88.43        2957.75           1326          74.00       297.30
   88.46        2958.00           1329          77.00       310.38
   88.49        2958.25           1332          78.00       314.74
   88.53        2958.50           1336          82.00       332.17
   88.56        2958.75           1339          85.00       345.25
   88.59        2959.00           1342          79.00       319.10
   88.62        2959.25           1346          91.00       371.41
   88.65        2959.50           1349          93.00       380.13
   88.68        2959.75           1352         108.00       445.52
   88.71        2960.00           1356         145.00       606.81
   88.74        2960.25           1359         177.00       746.31
   88.77        2960.50           1362         222.00       942.49
   88.80        2960.75           1366         295.00      1260.73
   88.83        2961.00           1369         325.00      1391.51
   88.86        2961.25           1372         363.00      1557.18
   88.90        2961.50           1376         440.00      1892.87
   88.93        2961.75           1379         562.00      2424.76
   88.96        2962.00           1382        1022.00      4430.41
   88.99        2962.25           1386        2730.00     11879.56
   89.02        2962.50           1389        4346.00     18930.54
   89.05        2962.75           1392        5951.00     25936.48
   89.08        2963.00           1396        8266.00     36046.81
   89.11        2963.25           1399        9886.00     43125.51
   89.14        2963.50           1402       11792.00     51457.76
   89.17        2963.75           1406       14095.00     61531.09
   89.20        2964.00           1409       16058.00     70122.07
   89.24        2964.25           1412       17650.00     77092.65
   89.27        2964.50           1416       20066.00     87676.71
   89.30        2964.75           1419       21754.00     95075.50
   89.33        2965.00           1422       23752.00    103837.30
   89.36        2965.25           1426       25947.00    113468.40
   89.39        2965.50           1429       27831.00    121739.40
   89.42        2965.75           1432       29468.00    128929.30
   89.45        2966.00           1436       31723.00    138838.60
   89.48        2966.25           1439       33449.00    146427.40
   89.52        2966.50           1442       34947.00    153016.40
   89.55        2966.75           1446       36777.00    161069.40
   89.58        2967.00           1449       37242.00    163116.20
   89.61        2967.25           1452       37523.00    164353.30
   89.64        2967.50           1456       37695.00    165110.50
   89.67        2967.75           1459       37422.00    163908.60
   89.70        2968.00           1462       37512.00    164304.90
   89.73        2968.25           1466       36693.00    160699.60
   89.76        2968.50           1469       35276.00    154463.90
   89.79        2968.75           1472       33855.00    148212.90
   89.83        2969.00           1476       31392.00    137383.70
   89.86        2969.25           1479       29545.00    129267.60
   89.89        2969.50           1482       27850.00    121822.80
   89.92        2969.75           1486       25690.00    112340.50
   89.95        2970.00           1489       23871.00    104359.30
   89.98        2970.25           1492       22147.00     96798.57
   90.01        2970.50           1496       19964.00     87229.72
   90.04        2970.75           1499       18135.00     79216.80
   90.07        2971.00           1502       16487.00     72000.16
   90.10        2971.25           1506       14191.00     61951.13
   90.13        2971.50           1509       12514.00     54615.14
   90.16        2971.75           1513       10400.00     45372.09
   90.19        2972.00           1516        8549.00     37283.18
   90.23        2972.25           1519        6887.00     30023.54
   90.26        2972.50           1523        4690.00     20431.88
   90.29        2972.75           1526        2973.00     12939.64
   90.32        2973.00           1529        1542.00      6697.95
   90.35        2973.25           1533         542.00      2337.57
   90.38        2973.50           1536         419.00      1801.32
   90.41        2973.75           1539         326.00      1395.87
   90.44        2974.00           1543         267.00      1138.66
   90.47        2974.25           1546         215.00       911.97
   90.50        2974.50           1549         175.00       737.59
   90.53        2974.75           1553         126.00       523.98
   90.56        2975.00           1556          96.00       393.20
   90.60        2975.25           1559          82.00       332.17
   90.63        2975.50           1563          90.00       367.05
   90.66        2975.75           1566          78.00       314.74
   90.69        2976.00           1569          83.00       336.53
   90.72        2976.25           1573          67.00       266.79
   90.75        2976.50           1576          68.00       271.14
   90.78        2976.75           1579          75.00       301.66
   90.81        2977.00           1583          68.00       271.14
   90.84        2977.25           1586          74.00       297.30
   90.87        2977.50           1590          63.00       249.35
   90.90        2977.75           1593          71.00       284.22
   90.93        2978.00           1596          71.00       284.22
   90.96        2978.25           1600          74.00       297.30
   91.00        2978.50           1603          85.00       345.25
   91.03        2978.75           1606          73.00       292.94
   91.06        2979.00           1610          67.00       266.79
   91.09        2979.25           1613          81.00       327.81
   91.12        2979.50           1616          77.00       310.38
   91.15        2979.75           1620          75.00       301.66
   91.18        2980.00           1623          70.00       279.86
   91.21        2980.25           1626          70.00       279.86
   91.24        2980.50           1630          70.00       279.86
   91.27        2980.75           1633          67.00       266.79
   91.30        2981.00           1637          77.00       310.38
   91.33        2981.25           1640          76.00       306.02
   91.36        2981.50           1643          67.00       266.79
   91.40        2981.75           1647          69.00       275.50
   91.43        2982.00           1650          76.00       306.02
   91.46        2982.25           1653          72.00       288.58
   91.49        2982.50           1657          75.00       301.66
   91.52        2982.75           1660          78.00       314.74
   91.55        2983.00           1663          67.00       266.79
   91.58        2983.25           1667          73.00       292.94
   91.61        2983.50           1670          78.00       314.74
   91.64        2983.75           1673          69.00       275.50
   91.67        2984.00           1677          71.00       284.22
HS scan finished at 01:31:54
end
************************************************************
  HS Scan of (1) Internal mercury lamp
************************************************************
Integration time is 0.2294 seconds per sample
dh260817Manchester 53.47 2.23 2.857833pr1000
************************************************************
Dead Time -------------------------  3E-08 
Number of Cycles Used -------------  4 
Starting Wavelength (Angstroms) ---  2950 
Final Wavelength (Angstoms) -------  2984 
Wavelength Increment (Angstroms) --  .25 
Filter Wheel #1 Position ---------- (1) Ground quartz diffuser (ND=2.32)
Filter Wheel #2 Position ---------- (1) Neutral Density 0.494



************************************************************
HS scan start time = 20:12:00
Dark Count =  6 


Time (GMT)  Wavelength (Ang)  Step Number  Raw Counts  Counts/Second

 1212.37        2950.00           1222          90.00       366.18
 1212.44        2950.25           1226          69.00       274.63
 1212.47        2950.50           1229          82.00       331.30
 1212.50        2950.75           1232          83.00       335.66
 1212.53        2951.00           1236          75.00       300.79
 1212.56        2951.25           1239          83.00       335.66
 1212.59        2951.50           1242          92.00       374.90
 1212.62        2951.75           1246          77.00       309.51
 1212.65        2952.00           1249          81.00       326.94
 1212.68        2952.25           1252          80.00       322.58
 1212.71        2952.50           1256          89.00       361.82
 1212.74        2952.75           1259          85.00       344.38
 1212.77        2953.00           1262          82.00       331.30
 1212.80        2953.25           1266          79.00       318.22
 1212.83        2953.50           1269          79.00       318.22
 1212.86        2953.75           1272          84.00       340.02
 1212.89        2954.00           1276          75.00       300.79
 1212.93        2954.25           1279          85.00       344.38
 1212.96        2954.50           1282          99.00       405.41
 1212.99        2954.75           1286          80.00       322.58
 1213.02        2955.00           1289          85.00       344.38
 1213.05        2955.25           1292          78.00       313.87
 1213.08        2955.50           1296          82.00       331.30
 1213.11        2955.75           1299          86.00       348.74
 1213.14        2956.00           1302          85.00       344.38
 1213.17        2956.25           1306          79.00       318.22
 1213.20        2956.50           1309          75.00       300.79
 1213.23        2956.75           1312          86.00       348.74
 1213.26        2957.00           1316          76.00       305.15
 1213.29        2957.25           1319          72.00       287.71
 1213.32        2957.50           1322          73.00       292.07
 1213.35        2957.75           1326          73.00       292.07
 1213.39        2958.00           1329          76.00       305.15
 1213.42        2958.25           1332          87.00       353.10
 1213.45        2958.50           1336          83.00       335.66
 1213.48        2958.75           1339          85.00       344.38
 1213.51        2959.00           1342          81.00       326.94
 1213.54        2959.25           1346          90.00       366.18
 1213.57        2959.50           1349          84.00       340.02
 1213.60        2959.75           1352          98.00       401.05
 1213.63        2960.00           1356         156.00       653.89
 1213.66        2960.25           1359         167.00       701.85
 1213.69        2960.50           1362         209.00       884.94
 1213.72        2960.75           1366         258.00      1098.55
 1213.75        2961.00           1369         301.00      1286.01
 1213.78        2961.25           1372         339.00      1451.68
 1213.81        2961.50           1376         424.00      1822.24
 1213.84        2961.75           1379         638.00      2755.24
 1213.87        2962.00           1382        1449.00      6291.51
 1213.90        2962.25           1386        3267.00     14221.41
 1213.94        2962.50           1389        4934.00     21495.99
 1213.97        2962.75           1392        6460.00     28158.04
 1214.00        2963.00           1396        8644.00     37697.36
 1214.03        2963.25           1399       10213.00     44553.85
 1214.06        2963.50           1402       11877.00     51828.57
 1214.09        2963.75           1406       13952.00     60904.56
 1214.12        2964.00           1409       15648.00     68326.50
 1214.15        2964.25           1412       17344.00     75751.73
 1214.18        2964.50           1416       19397.00     84744.39
 1214.21        2964.75           1419       21017.00     91843.82
 1214.24        2965.00           1422       22745.00     99419.89
 1214.28        2965.25           1426       24776.00    108328.80
 1214.31        2965.50           1429       26396.00    115438.30
 1214.34        2965.75           1432       28201.00    123363.30
 1214.37        2966.00           1436       30455.00    133264.90
 1214.40        2966.25           1439       32219.00    141018.20
 1214.43        2966.50           1442       33410.00    146255.00
 1214.46        2966.75           1446       34935.00    152962.80
 1214.49        2967.00           1449       35353.00    154801.80
 1214.52        2967.25           1452       35443.00    155197.80
 1214.55        2967.50           1456       35567.00    155743.40
 1214.59        2967.75           1459       35389.00    154960.20
 1214.62        2968.00           1462       35068.00    153547.90
 1214.65        2968.25           1466       33918.00    148489.10
 1214.68        2968.50           1469       32339.00    141545.70
 1214.71        2968.75           1472       30827.00    134899.70
 1214.74        2969.00           1476       28816.00    126064.40
 1214.77        2969.25           1479       27307.00    119437.70
 1214.80        2969.50           1482       25383.00    110992.30
 1214.83        2969.75           1486       23188.00    101362.70
 1214.86        2970.00           1489       21872.00     95591.97
 1214.90        2970.25           1492       20289.00     88653.09
 1214.93        2970.50           1496       18106.00     79088.91
 1214.96        2970.75           1499       16543.00     72244.47
 1214.99        2971.00           1502       14949.00     65267.17
 1215.02        2971.25           1506       12760.00     55690.18
 1215.05        2971.50           1509       10876.00     47451.99
 1215.08        2971.75           1513        8761.00     38208.55
 1215.11        2972.00           1516        7091.00     30913.57
 1215.14        2972.25           1519        5624.00     24507.99
 1215.17        2972.50           1523        3410.00     14845.32
 1215.21        2972.75           1526        1855.00      8062.11
 1215.24        2973.00           1529         831.00      3596.73
 1215.27        2973.25           1533         461.00      1983.55
 1215.30        2973.50           1536         355.00      1521.43
 1215.33        2973.75           1539         313.00      1338.33
 1215.36        2974.00           1543         261.00      1111.63
 1215.39        2974.25           1546         195.00       823.91
 1215.42        2974.50           1549         146.00       610.30
 1215.45        2974.75           1553         117.00       483.88
 1215.48        2975.00           1556          90.00       366.18
 1215.51        2975.25           1559          80.00       322.58
 1215.54        2975.50           1563          78.00       313.87
 1215.57        2975.75           1566          81.00       326.94
 1215.60        2976.00           1569          76.00       305.15
 1215.63        2976.25           1573          76.00       305.15
 1215.66        2976.50           1576          75.00       300.79
 1215.69        2976.75           1579          77.00       309.51
 1215.72        2977.00           1583          64.00       252.84
 1215.76        2977.25           1586          79.00       318.22
 1215.79        2977.50           1590          73.00       292.07
 1215.82        2977.75           1593          77.00       309.51
 1215.85        2978.00           1596          79.00       318.22
 1215.88        2978.25           1600          68.00       270.27
 1215.91        2978.50           1603          65.00       257.19
 1215.94        2978.75           1606          77.00       309.51
 1215.97        2979.00           1610          73.00       292.07
 1216.00        2979.25           1613          76.00       305.15
 1216.03        2979.50           1616          77.00       309.51
 1216.06        2979.75           1620          76.00       305.15
 1216.09        2980.00           1623          71.00       283.35
 1216.12        2980.25           1626          71.00       283.35
 1216.15        2980.50           1630          69.00       274.63
 1216.18        2980.75           1633          70.00       278.99
 1216.22        2981.00           1637          75.00       300.79
 1216.25        2981.25           1640          63.00       248.48
 1216.28        2981.50           1643          77.00       309.51
 1216.31        2981.75           1647          70.00       278.99
 1216.34        2982.00           1650          71.00       283.35
 1216.37        2982.25           1653          70.00       278.99
 1216.40        2982.50           1657          71.00       283.35
 1216.43        2982.75           1660          72.00       287.71
 1216.46        2983.00           1663          69.00       274.63
 1216.49        2983.25           1667          77.00       309.51
 1216.52        2983.50           1670          69.00       274.63
 1216.55        2983.75           1673          77.00       309.51
 1216.58        2984.00           1677          70.00       278.99
HS scan finished at 20:16:48
end
