************************************************************
  HS Scan of (1) Internal mercury lamp
************************************************************
Integration time is 0.2294 seconds per sample
dh270818Manchester 53.47 2.23 2.804185pr1000
************************************************************
Dead Time -------------------------  3E-08 
Number of Cycles Used -------------  4 
Starting Wavelength (Angstroms) ---  2950 
Final Wavelength (Angstoms) -------  2984 
Wavelength Increment (Angstroms) --  .25 
Filter Wheel #1 Position ---------- (1) Ground quartz diffuser (ND=2.32)
Filter Wheel #2 Position ---------- (1) Neutral Density 0.494



************************************************************
HS scan start time = 01:37:48
Dark Count =  5.3 


Time (GMT)  Wavelength (Ang)  Step Number  Raw Counts  Counts/Second

   98.18        2950.00           1222          54.00       212.29
   98.24        2950.25           1226          58.00       229.73
   98.27        2950.50           1229          50.00       194.86
   98.30        2950.75           1232          48.00       186.14
   98.33        2951.00           1236          50.00       194.86
   98.36        2951.25           1239          58.00       229.73
   98.40        2951.50           1242          56.00       221.01
   98.43        2951.75           1246          55.00       216.65
   98.46        2952.00           1249          53.00       207.94
   98.49        2952.25           1252          52.00       203.58
   98.52        2952.50           1256          54.00       212.29
   98.55        2952.75           1259          64.00       255.89
   98.58        2953.00           1262          53.00       207.94
   98.61        2953.25           1266          52.00       203.58
   98.64        2953.50           1269          50.00       194.86
   98.67        2953.75           1272          60.00       238.45
   98.70        2954.00           1276          47.00       181.78
   98.73        2954.25           1279          44.00       168.70
   98.76        2954.50           1282          53.00       207.94
   98.80        2954.75           1286          49.00       190.50
   98.83        2955.00           1289          55.00       216.65
   98.86        2955.25           1292          49.00       190.50
   98.89        2955.50           1296          56.00       221.01
   98.92        2955.75           1299          52.00       203.58
   98.95        2956.00           1302          53.00       207.94
   98.98        2956.25           1306          55.00       216.65
   99.01        2956.50           1309          53.00       207.94
   99.04        2956.75           1312          54.00       212.29
   99.07        2957.00           1316          51.00       199.22
   99.10        2957.25           1319          63.00       251.53
   99.14        2957.50           1322          58.00       229.73
   99.17        2957.75           1326          48.00       186.14
   99.20        2958.00           1329          52.00       203.58
   99.23        2958.25           1332          51.00       199.22
   99.26        2958.50           1336          52.00       203.58
   99.29        2958.75           1339          47.00       181.78
   99.32        2959.00           1342          56.00       221.01
   99.35        2959.25           1346          58.00       229.73
   99.38        2959.50           1349          59.00       234.09
   99.41        2959.75           1352          60.00       238.45
   99.44        2960.00           1356          84.00       343.07
   99.47        2960.25           1359         104.00       430.26
   99.51        2960.50           1362         132.00       552.32
   99.54        2960.75           1366         169.00       713.62
   99.57        2961.00           1369         197.00       835.68
   99.60        2961.25           1372         242.00      1031.85
   99.63        2961.50           1376         314.00      1345.74
   99.66        2961.75           1379         412.00      1772.98
   99.69        2962.00           1382         823.00      3564.90
   99.72        2962.25           1386        2189.00      9521.90
   99.75        2962.50           1389        3363.00     14643.31
   99.78        2962.75           1392        4644.00     20233.29
   99.82        2963.00           1396        6404.00     27916.57
   99.85        2963.25           1399        7592.00     33104.79
   99.88        2963.50           1402        8837.00     38543.67
   99.91        2963.75           1406       10691.00     46646.32
   99.94        2964.00           1409       12007.00     52400.10
   99.97        2964.25           1412       13371.00     58365.84
  100.00        2964.50           1416       15106.00     65957.33
  100.03        2964.75           1419       16460.00     71884.15
  100.06        2965.00           1422       17623.00     76976.60
  100.09        2965.25           1426       19579.00     85544.89
  100.13        2965.50           1429       20787.00     90838.75
  100.16        2965.75           1432       21898.00     95709.02
  100.19        2966.00           1436       23725.00    103721.10
  100.22        2966.25           1439       24937.00    109038.30
  100.25        2966.50           1442       26101.00    114146.50
  100.28        2966.75           1446       27309.00    119449.50
  100.31        2967.00           1449       27550.00    120507.70
  100.34        2967.25           1452       27645.00    120924.80
  100.37        2967.50           1456       27641.00    120907.30
  100.40        2967.75           1459       27673.00    121047.80
  100.44        2968.00           1462       27501.00    120292.50
  100.47        2968.25           1466       26831.00    117350.90
  100.50        2968.50           1469       25721.00    112478.70
  100.53        2968.75           1472       24419.00    106765.60
  100.56        2969.00           1476       22769.00     99528.21
  100.59        2969.25           1479       21448.00     93736.19
  100.62        2969.50           1482       20297.00     88691.21
  100.65        2969.75           1486       18570.00     81124.40
  100.68        2970.00           1489       17363.00     75838.00
  100.71        2970.25           1492       16003.00     69883.50
  100.75        2970.50           1496       14414.00     62929.07
  100.78        2970.75           1499       13085.00     57114.79
  100.81        2971.00           1502       11814.00     51556.14
  100.84        2971.25           1506       10260.00     44762.34
  100.87        2971.50           1509        8970.00     39124.80
  100.90        2971.75           1513        7212.00     31445.08
  100.93        2972.00           1516        6014.00     26213.72
  100.96        2972.25           1519        4665.00     20324.95
  100.99        2972.50           1523        3088.00     13443.52
  101.03        2972.75           1526        1952.00      8488.21
  101.06        2973.00           1529         935.00      4053.24
  101.09        2973.25           1533         395.00      1698.87
  101.12        2973.50           1536         291.00      1245.47
  101.15        2973.75           1539         255.00      1088.53
  101.18        2974.00           1543         218.00       927.23
  101.21        2974.25           1546         169.00       713.62
  101.24        2974.50           1549         132.00       552.32
  101.27        2974.75           1553         109.00       452.05
  101.30        2975.00           1556          65.00       260.25
  101.34        2975.25           1559          57.00       225.37
  101.37        2975.50           1563          48.00       186.14
  101.40        2975.75           1566          44.00       168.70
  101.43        2976.00           1569          51.00       199.22
  101.46        2976.25           1573          49.00       190.50
  101.49        2976.50           1576          51.00       199.22
  101.52        2976.75           1579          49.00       190.50
  101.55        2977.00           1583          49.00       190.50
  101.58        2977.25           1586          47.00       181.78
  101.61        2977.50           1590          45.00       173.06
  101.64        2977.75           1593          46.00       177.42
  101.67        2978.00           1596          54.00       212.29
  101.71        2978.25           1600          54.00       212.29
  101.74        2978.50           1603          53.00       207.94
  101.77        2978.75           1606          51.00       199.22
  101.80        2979.00           1610          44.00       168.70
  101.83        2979.25           1613          51.00       199.22
  101.86        2979.50           1616          48.00       186.14
  101.89        2979.75           1620          44.00       168.70
  101.92        2980.00           1623          51.00       199.22
  101.95        2980.25           1626          51.00       199.22
  101.98        2980.50           1630          56.00       221.01
  102.01        2980.75           1633          40.00       151.26
  102.04        2981.00           1637          47.00       181.78
  102.07        2981.25           1640          48.00       186.14
  102.10        2981.50           1643          47.00       181.78
  102.14        2981.75           1647          48.00       186.14
  102.17        2982.00           1650          45.00       173.06
  102.20        2982.25           1653          67.00       268.96
  102.23        2982.50           1657          52.00       203.58
  102.26        2982.75           1660          45.00       173.06
  102.29        2983.00           1663          50.00       194.86
  102.32        2983.25           1667          54.00       212.29
  102.35        2983.50           1670          48.00       186.14
  102.38        2983.75           1673          47.00       181.78
  102.41        2984.00           1677          44.00       168.70
HS scan finished at 01:42:38
end
************************************************************
  HS Scan of (1) Internal mercury lamp
************************************************************
Integration time is 0.2294 seconds per sample
dh270818Manchester 53.47 2.23 2.857833pr1000
************************************************************
Dead Time -------------------------  3E-08 
Number of Cycles Used -------------  4 
Starting Wavelength (Angstroms) ---  2950 
Final Wavelength (Angstoms) -------  2984 
Wavelength Increment (Angstroms) --  .25 
Filter Wheel #1 Position ---------- (1) Ground quartz diffuser (ND=2.32)
Filter Wheel #2 Position ---------- (1) Neutral Density 0.494



************************************************************
HS scan start time = 20:12:02
Dark Count =  7.2 


Time (GMT)  Wavelength (Ang)  Step Number  Raw Counts  Counts/Second

 1212.41        2950.00           1222          53.00       199.65
 1212.47        2950.25           1226          51.00       190.93
 1212.50        2950.50           1229          59.00       225.81
 1212.53        2950.75           1232          64.00       247.60
 1212.56        2951.00           1236          54.00       204.01
 1212.60        2951.25           1239          51.00       190.93
 1212.63        2951.50           1242          53.00       199.65
 1212.66        2951.75           1246          49.00       182.22
 1212.69        2952.00           1249          45.00       164.78
 1212.72        2952.25           1252          57.00       217.09
 1212.75        2952.50           1256          56.00       212.73
 1212.78        2952.75           1259          56.00       212.73
 1212.81        2953.00           1262          49.00       182.22
 1212.84        2953.25           1266          58.00       221.45
 1212.87        2953.50           1269          50.00       186.57
 1212.90        2953.75           1272          50.00       186.57
 1212.93        2954.00           1276          55.00       208.37
 1212.96        2954.25           1279          54.00       204.01
 1213.00        2954.50           1282          60.00       230.17
 1213.03        2954.75           1286          50.00       186.57
 1213.06        2955.00           1289          47.00       173.50
 1213.09        2955.25           1292          44.00       160.42
 1213.12        2955.50           1296          52.00       195.29
 1213.15        2955.75           1299          60.00       230.17
 1213.18        2956.00           1302          48.00       177.86
 1213.21        2956.25           1306          58.00       221.45
 1213.24        2956.50           1309          52.00       195.29
 1213.27        2956.75           1312          54.00       204.01
 1213.30        2957.00           1316          49.00       182.22
 1213.33        2957.25           1319          49.00       182.22
 1213.36        2957.50           1322          52.00       195.29
 1213.40        2957.75           1326          58.00       221.45
 1213.43        2958.00           1329          50.00       186.57
 1213.46        2958.25           1332          52.00       195.29
 1213.49        2958.50           1336          50.00       186.57
 1213.52        2958.75           1339          55.00       208.37
 1213.55        2959.00           1342          58.00       221.45
 1213.58        2959.25           1346          53.00       199.65
 1213.61        2959.50           1349          60.00       230.17
 1213.64        2959.75           1352          64.00       247.60
 1213.67        2960.00           1356          96.00       387.10
 1213.71        2960.25           1359         119.00       487.37
 1213.74        2960.50           1362         149.00       618.15
 1213.77        2960.75           1366         200.00       840.47
 1213.80        2961.00           1369         226.00       953.82
 1213.83        2961.25           1372         283.00      1202.31
 1213.86        2961.50           1376         338.00      1442.09
 1213.89        2961.75           1379         482.00      2069.88
 1213.92        2962.00           1382        1115.00      4829.82
 1213.95        2962.25           1386        2626.00     11419.78
 1213.98        2962.50           1389        3933.00     17122.13
 1214.01        2962.75           1392        5185.00     22586.35
 1214.04        2963.00           1396        6871.00     29947.56
 1214.07        2963.25           1399        8216.00     35822.26
 1214.11        2963.50           1402        9460.00     41257.66
 1214.14        2963.75           1406       11215.00     48928.79
 1214.17        2964.00           1409       12480.00     54460.31
 1214.20        2964.25           1412       14039.00     61279.95
 1214.23        2964.50           1416       15850.00     69205.43
 1214.26        2964.75           1419       17015.00     74305.84
 1214.29        2965.00           1422       18502.00     80818.21
 1214.32        2965.25           1426       20367.00     88989.66
 1214.35        2965.50           1429       21540.00     94131.18
 1214.38        2965.75           1432       22957.00    100344.30
 1214.41        2966.00           1436       24638.00    107718.10
 1214.45        2966.25           1439       26056.00    113940.70
 1214.48        2966.50           1442       27237.00    119125.10
 1214.51        2966.75           1446       28205.00    123375.60
 1214.54        2967.00           1449       28680.00    125461.80
 1214.57        2967.25           1452       28575.00    125000.60
 1214.60        2967.50           1456       28566.00    124961.00
 1214.63        2967.75           1459       28706.00    125576.00
 1214.66        2968.00           1462       28253.00    123586.40
 1214.70        2968.25           1466       27415.00    119906.60
 1214.73        2968.50           1469       26232.00    114713.20
 1214.76        2968.75           1472       25082.00    109666.20
 1214.79        2969.00           1476       23397.00    102274.10
 1214.82        2969.25           1479       22157.00     96836.28
 1214.85        2969.50           1482       20917.00     91400.24
 1214.88        2969.75           1486       19073.00     83319.60
 1214.91        2970.00           1489       17864.00     78023.75
 1214.94        2970.25           1492       16729.00     73053.57
 1214.97        2970.50           1496       14857.00     64859.30
 1215.01        2970.75           1499       13540.00     59096.83
 1215.04        2971.00           1502       12054.00     52597.32
 1215.07        2971.25           1506       10358.00     45182.39
 1215.10        2971.50           1509        8793.00     38343.13
 1215.13        2971.75           1513        7220.00     31471.73
 1215.16        2972.00           1516        6005.00     26166.13
 1215.19        2972.25           1519        4684.00     20399.58
 1215.22        2972.50           1523        2959.00     12872.45
 1215.25        2972.75           1526        1728.00      7503.00
 1215.28        2973.00           1529         781.00      3373.49
 1215.32        2973.25           1533         357.00      1524.92
 1215.35        2973.50           1536         284.00      1206.67
 1215.38        2973.75           1539         226.00       953.82
 1215.41        2974.00           1543         186.00       779.44
 1215.44        2974.25           1546         149.00       618.15
 1215.47        2974.50           1549         100.00       404.54
 1215.50        2974.75           1553          76.00       299.92
 1215.53        2975.00           1556          61.00       234.53
 1215.56        2975.25           1559          59.00       225.81
 1215.59        2975.50           1563          53.00       199.65
 1215.62        2975.75           1566          46.00       169.14
 1215.66        2976.00           1569          48.00       177.86
 1215.69        2976.25           1573          51.00       190.93
 1215.72        2976.50           1576          52.00       195.29
 1215.75        2976.75           1579          47.00       173.50
 1215.78        2977.00           1583          51.00       190.93
 1215.81        2977.25           1586          49.00       182.22
 1215.84        2977.50           1590          47.00       173.50
 1215.87        2977.75           1593          49.00       182.22
 1215.90        2978.00           1596          50.00       186.57
 1215.93        2978.25           1600          48.00       177.86
 1215.96        2978.50           1603          58.00       221.45
 1216.00        2978.75           1606          52.00       195.29
 1216.03        2979.00           1610          50.00       186.57
 1216.06        2979.25           1613          46.00       169.14
 1216.09        2979.50           1616          53.00       199.65
 1216.12        2979.75           1620          48.00       177.86
 1216.15        2980.00           1623          48.00       177.86
 1216.18        2980.25           1626          49.00       182.22
 1216.21        2980.50           1630          46.00       169.14
 1216.24        2980.75           1633          44.00       160.42
 1216.28        2981.00           1637          41.00       147.34
 1216.31        2981.25           1640          44.00       160.42
 1216.34        2981.50           1643          51.00       190.93
 1216.37        2981.75           1647          45.00       164.78
 1216.40        2982.00           1650          54.00       204.01
 1216.43        2982.25           1653          54.00       204.01
 1216.46        2982.50           1657          51.00       190.93
 1216.49        2982.75           1660          44.00       160.42
 1216.52        2983.00           1663          57.00       217.09
 1216.55        2983.25           1667          51.00       190.93
 1216.58        2983.50           1670          50.00       186.57
 1216.62        2983.75           1673          53.00       199.65
 1216.65        2984.00           1677          48.00       177.86
HS scan finished at 20:16:52
end
