************************************************************
  HS Scan of (1) Internal mercury lamp
************************************************************
Integration time is 0.2294 seconds per sample
dh180817Manchester 53.47 2.23 2.857833pr1000
************************************************************
Dead Time -------------------------  3E-08 
Number of Cycles Used -------------  4 
Starting Wavelength (Angstroms) ---  2950 
Final Wavelength (Angstoms) -------  2984 
Wavelength Increment (Angstroms) --  .25 
Filter Wheel #1 Position ---------- (1) Ground quartz diffuser (ND=2.32)
Filter Wheel #2 Position ---------- (1) Neutral Density 0.494



************************************************************
HS scan start time = 01:27:24
Dark Count =  6.6 


Time (GMT)  Wavelength (Ang)  Step Number  Raw Counts  Counts/Second

   87.77        2950.00           1222          72.00       285.09
   87.84        2950.25           1226          91.00       367.92
   87.87        2950.50           1229          84.00       337.41
   87.90        2950.75           1232          74.00       293.81
   87.93        2951.00           1236          90.00       363.56
   87.96        2951.25           1239          93.00       376.64
   87.99        2951.50           1242          82.00       328.69
   88.02        2951.75           1246          87.00       350.48
   88.05        2952.00           1249          76.00       302.53
   88.08        2952.25           1252          85.00       341.76
   88.11        2952.50           1256          80.00       319.97
   88.14        2952.75           1259          74.00       293.81
   88.17        2953.00           1262          87.00       350.48
   88.21        2953.25           1266          94.00       381.00
   88.24        2953.50           1269          75.00       298.17
   88.27        2953.75           1272          94.00       381.00
   88.30        2954.00           1276          88.00       354.84
   88.33        2954.25           1279          82.00       328.69
   88.36        2954.50           1282          78.00       311.25
   88.39        2954.75           1286          88.00       354.84
   88.42        2955.00           1289          80.00       319.97
   88.45        2955.25           1292          83.00       333.05
   88.48        2955.50           1296          85.00       341.76
   88.51        2955.75           1299          75.00       298.17
   88.54        2956.00           1302          76.00       302.53
   88.57        2956.25           1306          90.00       363.56
   88.61        2956.50           1309          77.00       306.89
   88.64        2956.75           1312          77.00       306.89
   88.67        2957.00           1316          81.00       324.33
   88.70        2957.25           1319          79.00       315.61
   88.73        2957.50           1322          85.00       341.76
   88.76        2957.75           1326          91.00       367.92
   88.79        2958.00           1329          88.00       354.84
   88.82        2958.25           1332          92.00       372.28
   88.85        2958.50           1336          79.00       315.61
   88.88        2958.75           1339          87.00       350.48
   88.91        2959.00           1342          88.00       354.84
   88.94        2959.25           1346          96.00       389.72
   88.97        2959.50           1349         106.00       433.31
   89.00        2959.75           1352         124.00       511.78
   89.03        2960.00           1356         156.00       651.28
   89.06        2960.25           1359         189.00       795.14
   89.10        2960.50           1362         245.00      1039.27
   89.13        2960.75           1366         292.00      1244.16
   89.16        2961.00           1369         344.00      1470.86
   89.19        2961.25           1372         373.00      1597.29
   89.22        2961.50           1376         494.00      2124.81
   89.25        2961.75           1379         830.00      3589.75
   89.28        2962.00           1382        1846.00      8020.24
   89.31        2962.25           1386        3940.00     17155.30
   89.34        2962.50           1389        5490.00     23920.39
   89.37        2962.75           1392        7104.00     30967.73
   89.41        2963.00           1396        9080.00     39599.77
   89.44        2963.25           1399       10774.00     47003.46
   89.47        2963.50           1402       12261.00     53505.18
   89.50        2963.75           1406       14512.00     63352.21
   89.53        2964.00           1409       16422.00     71712.10
   89.56        2964.25           1412       18201.00     79502.38
   89.59        2964.50           1416       20290.00     88654.83
   89.62        2964.75           1419       21984.00     96080.38
   89.65        2965.00           1422       23736.00    103763.70
   89.68        2965.25           1426       25786.00    112758.30
   89.71        2965.50           1429       27405.00    119865.30
   89.75        2965.75           1432       29145.00    127506.90
   89.78        2966.00           1436       31327.00    137094.50
   89.81        2966.25           1439       32728.00    143253.40
   89.84        2966.50           1442       34228.00    149850.00
   89.87        2966.75           1446       35677.00    156224.80
   89.90        2967.00           1449       35996.00    157628.60
   89.93        2967.25           1452       35847.00    156972.90
   89.96        2967.50           1456       36056.00    157892.60
   89.99        2967.75           1459       35718.00    156405.20
   90.03        2968.00           1462       35487.00    155388.80
   90.06        2968.25           1466       34372.00    150483.40
   90.09        2968.50           1469       32743.00    143319.40
   90.12        2968.75           1472       31504.00    137872.50
   90.15        2969.00           1476       29313.00    128244.90
   90.18        2969.25           1479       27579.00    120629.30
   90.21        2969.50           1482       25961.00    113526.40
   90.24        2969.75           1486       23666.00    103456.60
   90.27        2970.00           1489       21995.00     96128.61
   90.31        2970.25           1492       20297.00     88685.52
   90.34        2970.50           1496       17990.00     78578.22
   90.37        2970.75           1499       16458.00     71869.71
   90.40        2971.00           1502       14775.00     64503.08
   90.43        2971.25           1506       12649.00     55202.07
   90.46        2971.50           1509       11226.00     48979.51
   90.49        2971.75           1513        8824.00     38481.19
   90.52        2972.00           1516        7135.00     31103.12
   90.55        2972.25           1519        5559.00     24221.61
   90.58        2972.50           1523        3365.00     14646.37
   90.61        2972.75           1526        1900.00      8255.75
   90.65        2973.00           1529         792.00      3424.07
   90.68        2973.25           1533         419.00      1797.83
   90.71        2973.50           1536         331.00      1414.18
   90.74        2973.75           1539         274.00      1165.69
   90.77        2974.00           1543         218.00       921.56
   90.80        2974.25           1546         162.00       677.43
   90.83        2974.50           1549         120.00       494.34
   90.86        2974.75           1553         108.00       442.03
   90.89        2975.00           1556          75.00       298.17
   90.92        2975.25           1559          85.00       341.76
   90.95        2975.50           1563          76.00       302.53
   90.98        2975.75           1566          79.00       315.61
   91.02        2976.00           1569          70.00       276.38
   91.05        2976.25           1573          77.00       306.89
   91.08        2976.50           1576          68.00       267.66
   91.11        2976.75           1579          80.00       319.97
   91.14        2977.00           1583          85.00       341.76
   91.17        2977.25           1586          70.00       276.38
   91.20        2977.50           1590          80.00       319.97
   91.23        2977.75           1593          77.00       306.89
   91.26        2978.00           1596          80.00       319.97
   91.29        2978.25           1600          81.00       324.33
   91.32        2978.50           1603          80.00       319.97
   91.36        2978.75           1606          80.00       319.97
   91.39        2979.00           1610          73.00       289.45
   91.42        2979.25           1613          83.00       333.05
   91.45        2979.50           1616          81.00       324.33
   91.48        2979.75           1620          63.00       245.86
   91.51        2980.00           1623          76.00       302.53
   91.54        2980.25           1626          66.00       258.94
   91.57        2980.50           1630          76.00       302.53
   91.60        2980.75           1633          81.00       324.33
   91.63        2981.00           1637          83.00       333.05
   91.66        2981.25           1640          82.00       328.69
   91.69        2981.50           1643          70.00       276.38
   91.73        2981.75           1647          78.00       311.25
   91.76        2982.00           1650          77.00       306.89
   91.79        2982.25           1653          78.00       311.25
   91.82        2982.50           1657          81.00       324.33
   91.85        2982.75           1660          72.00       285.09
   91.88        2983.00           1663          72.00       285.09
   91.91        2983.25           1667          71.00       280.73
   91.94        2983.50           1670          76.00       302.53
   91.97        2983.75           1673          72.00       285.09
   92.00        2984.00           1677          71.00       280.73
HS scan finished at 01:32:13
end
************************************************************
  HS Scan of (1) Internal mercury lamp
************************************************************
Integration time is 0.2294 seconds per sample
dh180817Manchester 53.47 2.23 2.804185pr1000
************************************************************
Dead Time -------------------------  3E-08 
Number of Cycles Used -------------  4 
Starting Wavelength (Angstroms) ---  2950 
Final Wavelength (Angstoms) -------  2984 
Wavelength Increment (Angstroms) --  .25 
Filter Wheel #1 Position ---------- (1) Ground quartz diffuser (ND=2.32)
Filter Wheel #2 Position ---------- (1) Neutral Density 0.494



************************************************************
HS scan start time = 20:42:01
Dark Count =  6.9 


Time (GMT)  Wavelength (Ang)  Step Number  Raw Counts  Counts/Second

 1242.38        2950.00           1222          79.00       314.30
 1242.45        2950.25           1226          84.00       336.10
 1242.48        2950.50           1229          87.00       349.18
 1242.51        2950.75           1232          89.00       357.89
 1242.54        2951.00           1236          77.00       305.58
 1242.57        2951.25           1239          79.00       314.30
 1242.60        2951.50           1242          85.00       340.46
 1242.63        2951.75           1246          73.00       288.15
 1242.67        2952.00           1249          81.00       323.02
 1242.70        2952.25           1252          80.00       318.66
 1242.73        2952.50           1256          82.00       327.38
 1242.76        2952.75           1259          96.00       388.41
 1242.79        2953.00           1262          80.00       318.66
 1242.82        2953.25           1266          86.00       344.82
 1242.85        2953.50           1269          77.00       305.58
 1242.88        2953.75           1272          93.00       375.33
 1242.91        2954.00           1276          85.00       340.46
 1242.94        2954.25           1279          79.00       314.30
 1242.97        2954.50           1282          80.00       318.66
 1243.01        2954.75           1286          78.00       309.94
 1243.04        2955.00           1289          83.00       331.74
 1243.07        2955.25           1292          86.00       344.82
 1243.10        2955.50           1296          79.00       314.30
 1243.13        2955.75           1299          77.00       305.58
 1243.16        2956.00           1302          75.00       296.86
 1243.19        2956.25           1306          79.00       314.30
 1243.22        2956.50           1309          82.00       327.38
 1243.25        2956.75           1312          76.00       301.22
 1243.28        2957.00           1316          84.00       336.10
 1243.31        2957.25           1319          78.00       309.94
 1243.35        2957.50           1322          75.00       296.86
 1243.38        2957.75           1326          82.00       327.38
 1243.41        2958.00           1329          77.00       305.58
 1243.44        2958.25           1332          89.00       357.89
 1243.47        2958.50           1336          77.00       305.58
 1243.50        2958.75           1339          81.00       323.02
 1243.53        2959.00           1342          85.00       340.46
 1243.56        2959.25           1346          93.00       375.33
 1243.59        2959.50           1349          90.00       362.25
 1243.62        2959.75           1352         125.00       514.83
 1243.65        2960.00           1356         151.00       628.17
 1243.69        2960.25           1359         185.00       776.39
 1243.72        2960.50           1362         227.00       959.49
 1243.75        2960.75           1366         264.00      1120.79
 1243.78        2961.00           1369         332.00      1417.24
 1243.81        2961.25           1372         364.00      1556.74
 1243.84        2961.50           1376         440.00      1888.08
 1243.87        2961.75           1379         578.00      2489.72
 1243.90        2962.00           1382        1082.00      4687.23
 1243.93        2962.25           1386        2681.00     11661.01
 1243.96        2962.50           1389        4214.00     18349.68
 1243.99        2962.75           1392        5706.00     24862.04
 1244.03        2963.00           1396        7717.00     33643.79
 1244.06        2963.25           1399        9359.00     40817.60
 1244.09        2963.50           1402       10975.00     47880.85
 1244.12        2963.75           1406       13170.00     57479.60
 1244.15        2964.00           1409       14917.00     65123.19
 1244.18        2964.25           1412       16578.00     72393.76
 1244.21        2964.50           1416       18757.00     81936.56
 1244.24        2964.75           1419       20366.00     88986.59
 1244.28        2965.00           1422       22049.00     96364.06
 1244.31        2965.25           1426       24146.00    105560.90
 1244.34        2965.50           1429       25904.00    113274.90
 1244.37        2965.75           1432       27512.00    120333.80
 1244.40        2966.00           1436       29649.00    129719.60
 1244.43        2966.25           1439       31096.00    136077.90
 1244.46        2966.50           1442       32543.00    142438.70
 1244.49        2966.75           1446       34531.00    151181.50
 1244.52        2967.00           1449       35028.00    153368.00
 1244.56        2967.25           1452       35206.00    154151.10
 1244.59        2967.50           1456       35128.00    153807.90
 1244.62        2967.75           1459       35353.00    154797.90
 1244.65        2968.00           1462       35073.00    153565.90
 1244.68        2968.25           1466       34366.00    150455.70
 1244.71        2968.50           1469       33254.00    145565.00
 1244.74        2968.75           1472       31702.00    138741.50
 1244.77        2969.00           1476       29664.00    129785.50
 1244.80        2969.25           1479       27881.00    121954.10
 1244.84        2969.50           1482       26520.00    115978.70
 1244.87        2969.75           1486       24369.00    106539.20
 1244.90        2970.00           1489       22861.00     99924.65
 1244.93        2970.25           1492       21192.00     92606.98
 1244.96        2970.50           1496       19101.00     83443.59
 1244.99        2970.75           1499       17282.00     75476.29
 1245.02        2971.00           1502       15755.00     68790.91
 1245.05        2971.25           1506       13507.00     58953.78
 1245.08        2971.50           1509       11779.00     51396.10
 1245.11        2971.75           1513        9596.00     41853.30
 1245.14        2972.00           1516        7961.00     34709.62
 1245.17        2972.25           1519        6257.00     27267.72
 1245.20        2972.50           1523        4259.00     18546.06
 1245.24        2972.75           1526        2697.00     11730.81
 1245.27        2973.00           1529        1265.00      5485.21
 1245.30        2973.25           1533         530.00      2280.45
 1245.33        2973.50           1536         371.00      1587.26
 1245.36        2973.75           1539         315.00      1343.12
 1245.39        2974.00           1543         257.00      1090.27
 1245.42        2974.25           1546         192.00       806.91
 1245.45        2974.50           1549         155.00       645.61
 1245.48        2974.75           1553         118.00       484.31
 1245.51        2975.00           1556          92.00       370.97
 1245.54        2975.25           1559          94.00       379.69
 1245.57        2975.50           1563          79.00       314.30
 1245.60        2975.75           1566          75.00       296.86
 1245.64        2976.00           1569          81.00       323.02
 1245.67        2976.25           1573          84.00       336.10
 1245.70        2976.50           1576          77.00       305.58
 1245.73        2976.75           1579          75.00       296.86
 1245.76        2977.00           1583          82.00       327.38
 1245.79        2977.25           1586          80.00       318.66
 1245.82        2977.50           1590          75.00       296.86
 1245.85        2977.75           1593          84.00       336.10
 1245.88        2978.00           1596          80.00       318.66
 1245.91        2978.25           1600          80.00       318.66
 1245.94        2978.50           1603          76.00       301.22
 1245.97        2978.75           1606          66.00       257.63
 1246.00        2979.00           1610          76.00       301.22
 1246.04        2979.25           1613          82.00       327.38
 1246.07        2979.50           1616          75.00       296.86
 1246.10        2979.75           1620          68.00       266.35
 1246.13        2980.00           1623          73.00       288.15
 1246.16        2980.25           1626          73.00       288.15
 1246.19        2980.50           1630          75.00       296.86
 1246.22        2980.75           1633          72.00       283.79
 1246.25        2981.00           1637          73.00       288.15
 1246.28        2981.25           1640          77.00       305.58
 1246.31        2981.50           1643          71.00       279.43
 1246.34        2981.75           1647          68.00       266.35
 1246.38        2982.00           1650          78.00       309.94
 1246.41        2982.25           1653          77.00       305.58
 1246.44        2982.50           1657          68.00       266.35
 1246.47        2982.75           1660          70.00       275.07
 1246.50        2983.00           1663          72.00       283.79
 1246.53        2983.25           1667          63.00       244.55
 1246.56        2983.50           1670          73.00       288.15
 1246.59        2983.75           1673          74.00       292.50
 1246.62        2984.00           1677          79.00       314.30
HS scan finished at 20:46:50
end
