************************************************************
  HS Scan of (1) Internal mercury lamp
************************************************************
Integration time is 0.2294 seconds per sample
dh250817Manchester 53.47 2.23 2.804185pr1000
************************************************************
Dead Time -------------------------  3E-08 
Number of Cycles Used -------------  4 
Starting Wavelength (Angstroms) ---  2950 
Final Wavelength (Angstoms) -------  2984 
Wavelength Increment (Angstroms) --  .25 
Filter Wheel #1 Position ---------- (1) Ground quartz diffuser (ND=2.32)
Filter Wheel #2 Position ---------- (1) Neutral Density 0.494



************************************************************
HS scan start time = 01:25:04
Dark Count =  5.4 


Time (GMT)  Wavelength (Ang)  Step Number  Raw Counts  Counts/Second

   85.43        2950.00           1222          79.00       320.84
   85.50        2950.25           1226          76.00       307.76
   85.53        2950.50           1229          80.00       325.20
   85.56        2950.75           1232          99.00       408.03
   85.59        2951.00           1236          82.00       333.92
   85.62        2951.25           1239          77.00       312.12
   85.65        2951.50           1242          87.00       355.71
   85.68        2951.75           1246          92.00       377.51
   85.71        2952.00           1249          82.00       333.92
   85.74        2952.25           1252          88.00       360.07
   85.77        2952.50           1256          88.00       360.07
   85.81        2952.75           1259          77.00       312.12
   85.84        2953.00           1262          80.00       325.20
   85.87        2953.25           1266          73.00       294.68
   85.90        2953.50           1269          79.00       320.84
   85.93        2953.75           1272          83.00       338.28
   85.96        2954.00           1276          89.00       364.43
   85.99        2954.25           1279          76.00       307.76
   86.02        2954.50           1282          71.00       285.97
   86.05        2954.75           1286          76.00       307.76
   86.08        2955.00           1289          85.00       347.00
   86.11        2955.25           1292          81.00       329.56
   86.14        2955.50           1296          83.00       338.28
   86.17        2955.75           1299          74.00       299.04
   86.20        2956.00           1302          79.00       320.84
   86.23        2956.25           1306          73.00       294.68
   86.27        2956.50           1309          84.00       342.64
   86.30        2956.75           1312          80.00       325.20
   86.33        2957.00           1316          81.00       329.56
   86.36        2957.25           1319          78.00       316.48
   86.39        2957.50           1322          83.00       338.28
   86.42        2957.75           1326          83.00       338.28
   86.45        2958.00           1329          75.00       303.40
   86.48        2958.25           1332          81.00       329.56
   86.51        2958.50           1336          78.00       316.48
   86.54        2958.75           1339          86.00       351.36
   86.57        2959.00           1342          77.00       312.12
   86.60        2959.25           1346          86.00       351.36
   86.63        2959.50           1349          88.00       360.07
   86.67        2959.75           1352          98.00       403.67
   86.70        2960.00           1356         132.00       551.88
   86.73        2960.25           1359         177.00       748.06
   86.76        2960.50           1362         211.00       896.28
   86.79        2960.75           1366         256.00      1092.45
   86.82        2961.00           1369         303.00      1297.35
   86.85        2961.25           1372         352.00      1510.97
   86.88        2961.50           1376         411.00      1768.18
   86.91        2961.75           1379         538.00      2321.87
   86.94        2962.00           1382        1051.00      4558.60
   86.97        2962.25           1386        2676.00     11645.74
   87.00        2962.50           1389        4243.00     18482.78
   87.03        2962.75           1392        5841.00     25457.97
   87.07        2963.00           1396        7939.00     34620.07
   87.10        2963.25           1399        9464.00     41283.01
   87.13        2963.50           1402       11218.00     48949.78
   87.16        2963.75           1406       13387.00     58435.40
   87.19        2964.00           1409       14882.00     64976.58
   87.22        2964.25           1412       16638.00     72663.02
   87.25        2964.50           1416       18846.00     82333.02
   87.28        2964.75           1419       20265.00     88550.53
   87.31        2965.00           1422       21876.00     95612.12
   87.34        2965.25           1426       24263.00    106080.70
   87.37        2965.50           1429       25927.00    113382.40
   87.41        2965.75           1432       27537.00    120450.20
   87.44        2966.00           1436       29756.00    130196.30
   87.47        2966.25           1439       31075.00    135992.20
   87.50        2966.50           1442       32612.00    142748.60
   87.53        2966.75           1446       34562.00    151324.50
   87.56        2967.00           1449       34774.00    152257.10
   87.59        2967.25           1452       34893.00    152780.60
   87.62        2967.50           1456       34953.00    153044.60
   87.66        2967.75           1459       34953.00    153044.60
   87.69        2968.00           1462       34808.00    152406.70
   87.72        2968.25           1466       34069.00    149155.90
   87.75        2968.50           1469       32570.00    142564.00
   87.78        2968.75           1472       31090.00    136058.10
   87.81        2969.00           1476       28872.00    126313.00
   87.84        2969.25           1479       27173.00    118852.00
   87.87        2969.50           1482       25556.00    111754.20
   87.90        2969.75           1486       23523.00    102834.60
   87.94        2970.00           1489       21907.00     95748.04
   87.97        2970.25           1492       20368.00     89001.92
   88.00        2970.50           1496       18370.00     80247.88
   88.03        2970.75           1499       16808.00     73407.35
   88.06        2971.00           1502       15126.00     66044.41
   88.09        2971.25           1506       12974.00     56628.82
   88.12        2971.50           1509       11263.00     49146.51
   88.15        2971.75           1513        9160.00     39954.58
   88.18        2972.00           1516        7502.00     32711.25
   88.21        2972.25           1519        5883.00     25641.34
   88.24        2972.50           1523        3777.00     16449.27
   88.27        2972.75           1526        2390.00     10398.19
   88.31        2973.00           1529        1180.00      5121.10
   88.34        2973.25           1533         459.00      1977.45
   88.37        2973.50           1536         341.00      1463.01
   88.40        2973.75           1539         266.00      1136.05
   88.43        2974.00           1543         240.00      1022.70
   88.46        2974.25           1546         194.00       822.17
   88.49        2974.50           1549         143.00       599.84
   88.52        2974.75           1553         108.00       447.26
   88.55        2975.00           1556          83.00       338.28
   88.58        2975.25           1559          82.00       333.92
   88.61        2975.50           1563          82.00       333.92
   88.64        2975.75           1566          76.00       307.76
   88.68        2976.00           1569          72.00       290.33
   88.71        2976.25           1573          65.00       259.81
   88.74        2976.50           1576          75.00       303.40
   88.77        2976.75           1579          77.00       312.12
   88.80        2977.00           1583          72.00       290.33
   88.83        2977.25           1586          79.00       320.84
   88.86        2977.50           1590          79.00       320.84
   88.89        2977.75           1593          84.00       342.64
   88.92        2978.00           1596          78.00       316.48
   88.95        2978.25           1600          73.00       294.68
   88.98        2978.50           1603          73.00       294.68
   89.02        2978.75           1606          70.00       281.61
   89.05        2979.00           1610          72.00       290.33
   89.08        2979.25           1613          63.00       251.09
   89.11        2979.50           1616          76.00       307.76
   89.14        2979.75           1620          75.00       303.40
   89.17        2980.00           1623          64.00       255.45
   89.20        2980.25           1626          76.00       307.76
   89.23        2980.50           1630          67.00       268.53
   89.26        2980.75           1633          70.00       281.61
   89.29        2981.00           1637          70.00       281.61
   89.32        2981.25           1640          69.00       277.25
   89.35        2981.50           1643          77.00       312.12
   89.38        2981.75           1647          74.00       299.04
   89.41        2982.00           1650          67.00       268.53
   89.44        2982.25           1653          76.00       307.76
   89.48        2982.50           1657          72.00       290.33
   89.51        2982.75           1660          72.00       290.33
   89.54        2983.00           1663          69.00       277.25
   89.57        2983.25           1667          61.00       242.37
   89.60        2983.50           1670          71.00       285.97
   89.63        2983.75           1673          72.00       290.33
   89.66        2984.00           1677          74.00       299.04
HS scan finished at 01:29:53
end
************************************************************
  HS Scan of (1) Internal mercury lamp
************************************************************
Integration time is 0.2294 seconds per sample
dh250817Manchester 53.47 2.23 3.018777pr1000
************************************************************
Dead Time -------------------------  3E-08 
Number of Cycles Used -------------  4 
Starting Wavelength (Angstroms) ---  2950 
Final Wavelength (Angstoms) -------  2984 
Wavelength Increment (Angstroms) --  .25 
Filter Wheel #1 Position ---------- (1) Ground quartz diffuser (ND=2.32)
Filter Wheel #2 Position ---------- (1) Neutral Density 0.494



************************************************************
HS scan start time = 20:11:58
Dark Count =  8.100001 


Time (GMT)  Wavelength (Ang)  Step Number  Raw Counts  Counts/Second

 1212.34        2950.00           1222          86.00       339.59
 1212.40        2950.25           1226          83.00       326.51
 1212.43        2950.50           1229          76.00       295.99
 1212.47        2950.75           1232          76.00       295.99
 1212.50        2951.00           1236          75.00       291.63
 1212.53        2951.25           1239          67.00       256.76
 1212.56        2951.50           1242          76.00       295.99
 1212.59        2951.75           1246          89.00       352.66
 1212.62        2952.00           1249          71.00       274.20
 1212.65        2952.25           1252          86.00       339.59
 1212.68        2952.50           1256          73.00       282.91
 1212.71        2952.75           1259          90.00       357.02
 1212.74        2953.00           1262          72.00       278.56
 1212.77        2953.25           1266          87.00       343.94
 1212.80        2953.50           1269          85.00       335.23
 1212.83        2953.75           1272          77.00       300.35
 1212.86        2954.00           1276          77.00       300.35
 1212.89        2954.25           1279          83.00       326.51
 1212.92        2954.50           1282          85.00       335.23
 1212.96        2954.75           1286          80.00       313.43
 1212.99        2955.00           1289          77.00       300.35
 1213.02        2955.25           1292          72.00       278.56
 1213.05        2955.50           1296          86.00       339.59
 1213.08        2955.75           1299          76.00       295.99
 1213.11        2956.00           1302          75.00       291.63
 1213.14        2956.25           1306          80.00       313.43
 1213.17        2956.50           1309          82.00       322.15
 1213.20        2956.75           1312          78.00       304.71
 1213.24        2957.00           1316          73.00       282.91
 1213.27        2957.25           1319          81.00       317.79
 1213.30        2957.50           1322          82.00       322.15
 1213.33        2957.75           1326          79.00       309.07
 1213.36        2958.00           1329          73.00       282.91
 1213.39        2958.25           1332          80.00       313.43
 1213.42        2958.50           1336          79.00       309.07
 1213.45        2958.75           1339          82.00       322.15
 1213.48        2959.00           1342          77.00       300.35
 1213.51        2959.25           1346          74.00       287.27
 1213.54        2959.50           1349          87.00       343.94
 1213.57        2959.75           1352         101.00       404.97
 1213.60        2960.00           1356         134.00       548.83
 1213.63        2960.25           1359         161.00       666.53
 1213.67        2960.50           1362         208.00       871.43
 1213.70        2960.75           1366         264.00      1115.56
 1213.73        2961.00           1369         323.00      1372.77
 1213.76        2961.25           1372         368.00      1568.95
 1213.79        2961.50           1376         470.00      2013.64
 1213.82        2961.75           1379         661.00      2846.36
 1213.85        2962.00           1382        1428.00      6190.78
 1213.88        2962.25           1386        3404.00     14809.98
 1213.91        2962.50           1389        5059.00     22032.43
 1213.95        2962.75           1392        6789.00     29585.53
 1213.98        2963.00           1396        8933.00     38950.90
 1214.01        2963.25           1399       10896.00     47530.24
 1214.04        2963.50           1402       12771.00     55729.10
 1214.07        2963.75           1406       15069.00     65783.15
 1214.10        2964.00           1409       16905.00     73820.24
 1214.13        2964.25           1412       18663.00     81519.53
 1214.16        2964.50           1416       20968.00     91619.84
 1214.19        2964.75           1419       22623.00     98875.69
 1214.22        2965.00           1422       24614.00    107608.80
 1214.25        2965.25           1426       26842.00    117387.00
 1214.29        2965.50           1429       28573.00    124987.80
 1214.32        2965.75           1432       30285.00    132508.70
 1214.35        2966.00           1436       32831.00    143699.70
 1214.38        2966.25           1439       34456.00    150846.30
 1214.41        2966.50           1442       36190.00    158475.70
 1214.44        2966.75           1446       38064.00    166725.10
 1214.47        2967.00           1449       38363.00    168041.60
 1214.50        2967.25           1452       38564.00    168926.70
 1214.53        2967.50           1456       38566.00    168935.50
 1214.56        2967.75           1459       38485.00    168578.90
 1214.59        2968.00           1462       38394.00    168178.10
 1214.62        2968.25           1466       37097.00    162467.80
 1214.66        2968.50           1469       35603.00    155892.60
 1214.69        2968.75           1472       34172.00    149597.10
 1214.72        2969.00           1476       31763.00    139004.40
 1214.75        2969.25           1479       29931.00    130953.30
 1214.78        2969.50           1482       28155.00    123152.10
 1214.81        2969.75           1486       25882.00    113173.00
 1214.84        2970.00           1489       24209.00    105832.00
 1214.87        2970.25           1492       22509.00     98375.79
 1214.90        2970.50           1496       20166.00     88104.85
 1214.93        2970.75           1499       18381.00     80284.25
 1214.96        2971.00           1502       16864.00     73640.72
 1215.00        2971.25           1506       14377.00     62754.92
 1215.03        2971.50           1509       12365.00     53953.44
 1215.06        2971.75           1513       10016.00     43683.63
 1215.09        2972.00           1516        8323.00     36285.78
 1215.12        2972.25           1519        6473.00     28205.64
 1215.15        2972.50           1523        4213.00     18340.08
 1215.18        2972.75           1526        2511.00     10914.21
 1215.21        2973.00           1529        1068.00      4620.95
 1215.24        2973.25           1533         486.00      2083.39
 1215.27        2973.50           1536         379.00      1616.91
 1215.30        2973.75           1539         331.00      1407.64
 1215.33        2974.00           1543         262.00      1106.84
 1215.36        2974.25           1546         195.00       814.75
 1215.40        2974.50           1549         172.00       714.49
 1215.43        2974.75           1553         115.00       466.00
 1215.46        2975.00           1556         104.00       418.05
 1215.49        2975.25           1559          84.00       330.87
 1215.52        2975.50           1563          81.00       317.79
 1215.55        2975.75           1566          73.00       282.91
 1215.58        2976.00           1569          81.00       317.79
 1215.61        2976.25           1573          85.00       335.23
 1215.64        2976.50           1576          72.00       278.56
 1215.67        2976.75           1579          73.00       282.91
 1215.70        2977.00           1583          81.00       317.79
 1215.73        2977.25           1586          75.00       291.63
 1215.76        2977.50           1590          70.00       269.84
 1215.79        2977.75           1593          73.00       282.91
 1215.82        2978.00           1596          73.00       282.91
 1215.86        2978.25           1600          71.00       274.20
 1215.89        2978.50           1603          73.00       282.91
 1215.92        2978.75           1606          74.00       287.27
 1215.95        2979.00           1610          74.00       287.27
 1215.98        2979.25           1613          72.00       278.56
 1216.01        2979.50           1616          72.00       278.56
 1216.04        2979.75           1620          78.00       304.71
 1216.07        2980.00           1623          66.00       252.40
 1216.10        2980.25           1626          71.00       274.20
 1216.13        2980.50           1630          82.00       322.15
 1216.16        2980.75           1633          72.00       278.56
 1216.19        2981.00           1637          74.00       287.27
 1216.22        2981.25           1640          71.00       274.20
 1216.26        2981.50           1643          76.00       295.99
 1216.29        2981.75           1647          69.00       265.48
 1216.32        2982.00           1650          76.00       295.99
 1216.35        2982.25           1653          67.00       256.76
 1216.38        2982.50           1657          76.00       295.99
 1216.41        2982.75           1660          77.00       300.35
 1216.44        2983.00           1663          73.00       282.91
 1216.47        2983.25           1667          69.00       265.48
 1216.50        2983.50           1670          68.00       261.12
 1216.53        2983.75           1673          68.00       261.12
 1216.56        2984.00           1677          67.00       256.76
HS scan finished at 20:16:47
end
