************************************************************
  HS Scan of (1) Internal mercury lamp
************************************************************
Integration time is 0.2294 seconds per sample
dh180818Manchester 53.47 2.23 2.911481pr1000
************************************************************
Dead Time -------------------------  3E-08 
Number of Cycles Used -------------  4 
Starting Wavelength (Angstroms) ---  2950 
Final Wavelength (Angstoms) -------  2984 
Wavelength Increment (Angstroms) --  .25 
Filter Wheel #1 Position ---------- (1) Ground quartz diffuser (ND=2.32)
Filter Wheel #2 Position ---------- (1) Neutral Density 0.494



************************************************************
HS scan start time = 01:28:24
Dark Count =  6.4 


Time (GMT)  Wavelength (Ang)  Step Number  Raw Counts  Counts/Second

   88.77        2950.00           1222          56.00       216.22
   88.84        2950.25           1226          61.00       238.01
   88.87        2950.50           1229          59.00       229.30
   88.90        2950.75           1232          46.00       172.63
   88.93        2951.00           1236          53.00       203.14
   88.96        2951.25           1239          53.00       203.14
   88.99        2951.50           1242          51.00       194.42
   89.02        2951.75           1246          49.00       185.70
   89.05        2952.00           1249          54.00       207.50
   89.08        2952.25           1252          57.00       220.58
   89.11        2952.50           1256          68.00       268.53
   89.14        2952.75           1259          56.00       216.22
   89.17        2953.00           1262          52.00       198.78
   89.21        2953.25           1266          58.00       224.94
   89.24        2953.50           1269          49.00       185.70
   89.27        2953.75           1272          55.00       211.86
   89.30        2954.00           1276          61.00       238.01
   89.33        2954.25           1279          53.00       203.14
   89.36        2954.50           1282          54.00       207.50
   89.39        2954.75           1286          48.00       181.34
   89.42        2955.00           1289          55.00       211.86
   89.45        2955.25           1292          47.00       176.98
   89.48        2955.50           1296          45.00       168.27
   89.51        2955.75           1299          62.00       242.37
   89.54        2956.00           1302          44.00       163.91
   89.57        2956.25           1306          48.00       181.34
   89.60        2956.50           1309          55.00       211.86
   89.63        2956.75           1312          53.00       203.14
   89.66        2957.00           1316          50.00       190.06
   89.70        2957.25           1319          48.00       181.34
   89.73        2957.50           1322          51.00       194.42
   89.76        2957.75           1326          52.00       198.78
   89.79        2958.00           1329          60.00       233.65
   89.82        2958.25           1332          51.00       194.42
   89.85        2958.50           1336          56.00       216.22
   89.88        2958.75           1339          53.00       203.14
   89.91        2959.00           1342          50.00       190.06
   89.94        2959.25           1346          60.00       233.65
   89.97        2959.50           1349          69.00       272.89
   90.00        2959.75           1352          86.00       347.00
   90.03        2960.00           1356          98.00       399.31
   90.06        2960.25           1359         138.00       573.68
   90.09        2960.50           1362         172.00       721.90
   90.12        2960.75           1366         218.00       922.43
   90.16        2961.00           1369         251.00      1066.29
   90.19        2961.25           1372         300.00      1279.91
   90.22        2961.50           1376         383.00      1641.75
   90.25        2961.75           1379         593.00      2557.30
   90.28        2962.00           1382        1311.00      5687.98
   90.31        2962.25           1386        2857.00     12430.97
   90.34        2962.50           1389        4154.00     18090.03
   90.37        2962.75           1392        5451.00     23751.01
   90.40        2963.00           1396        7181.00     31304.89
   90.43        2963.25           1399        8526.00     37180.07
   90.47        2963.50           1402       10097.00     44045.09
   90.50        2963.75           1406       11993.00     52334.07
   90.53        2964.00           1409       13477.00     58824.73
   90.56        2964.25           1412       14904.00     65068.48
   90.59        2964.50           1416       16632.00     72632.37
   90.62        2964.75           1419       18160.00     79323.68
   90.65        2965.00           1422       19417.00     84830.26
   90.68        2965.25           1426       21345.00     93279.85
   90.71        2965.50           1429       22593.00     98751.58
   90.75        2965.75           1432       23930.00    104615.50
   90.78        2966.00           1436       25817.00    112895.20
   90.81        2966.25           1439       27250.00    119185.60
   90.84        2966.50           1442       28367.00    124090.60
   90.87        2966.75           1446       29576.00    129401.10
   90.90        2967.00           1449       29753.00    130178.70
   90.93        2967.25           1452       29642.00    129691.10
   90.96        2967.50           1456       29697.00    129932.70
   90.99        2967.75           1459       29671.00    129818.50
   91.03        2968.00           1462       29412.00    128680.60
   91.06        2968.25           1466       28416.00    124305.80
   91.09        2968.50           1469       27118.00    118606.10
   91.12        2968.75           1472       25817.00    112895.20
   91.15        2969.00           1476       24049.00    105137.50
   91.18        2969.25           1479       22740.00     99396.21
   91.21        2969.50           1482       21259.00     92902.85
   91.24        2969.75           1486       19562.00     85465.59
   91.27        2970.00           1489       18149.00     79275.50
   91.30        2970.25           1492       16651.00     72715.56
   91.33        2970.50           1496       14900.00     65050.98
   91.37        2970.75           1499       13675.00     59690.93
   91.40        2971.00           1502       12195.00     53217.42
   91.43        2971.25           1506       10443.00     45557.43
   91.46        2971.50           1509        9096.00     39670.55
   91.49        2971.75           1513        7349.00     32038.63
   91.52        2972.00           1516        6063.00     26422.86
   91.55        2972.25           1519        4688.00     20420.53
   91.58        2972.50           1523        2865.00     12465.87
   91.61        2972.75           1526        1572.00      6826.16
   91.64        2973.00           1529         689.00      2975.85
   91.68        2973.25           1533         367.00      1572.00
   91.71        2973.50           1536         288.00      1227.60
   91.74        2973.75           1539         250.00      1061.93
   91.77        2974.00           1543         206.00       870.12
   91.80        2974.25           1546         156.00       652.15
   91.83        2974.50           1549         120.00       495.21
   91.86        2974.75           1553          91.00       368.79
   91.89        2975.00           1556          68.00       268.53
   91.92        2975.25           1559          54.00       207.50
   91.95        2975.50           1563          49.00       185.70
   91.98        2975.75           1566          49.00       185.70
   92.01        2976.00           1569          45.00       168.27
   92.05        2976.25           1573          52.00       198.78
   92.08        2976.50           1576          48.00       181.34
   92.11        2976.75           1579          47.00       176.98
   92.14        2977.00           1583          46.00       172.63
   92.17        2977.25           1586          52.00       198.78
   92.20        2977.50           1590          52.00       198.78
   92.23        2977.75           1593          48.00       181.34
   92.26        2978.00           1596          43.00       159.55
   92.29        2978.25           1600          52.00       198.78
   92.32        2978.50           1603          45.00       168.27
   92.35        2978.75           1606          50.00       190.06
   92.39        2979.00           1610          51.00       194.42
   92.42        2979.25           1613          62.00       242.37
   92.45        2979.50           1616          48.00       181.34
   92.48        2979.75           1620          52.00       198.78
   92.51        2980.00           1623          64.00       251.09
   92.54        2980.25           1626          58.00       224.94
   92.57        2980.50           1630          43.00       159.55
   92.60        2980.75           1633          49.00       185.70
   92.63        2981.00           1637          49.00       185.70
   92.66        2981.25           1640          45.00       168.27
   92.69        2981.50           1643          54.00       207.50
   92.72        2981.75           1647          44.00       163.91
   92.75        2982.00           1650          40.00       146.47
   92.79        2982.25           1653          43.00       159.55
   92.82        2982.50           1657          44.00       163.91
   92.85        2982.75           1660          49.00       185.70
   92.88        2983.00           1663          55.00       211.86
   92.91        2983.25           1667          48.00       181.34
   92.94        2983.50           1670          48.00       181.34
   92.97        2983.75           1673          51.00       194.42
   93.00        2984.00           1677          42.00       155.19
HS scan finished at 01:33:13
end
************************************************************
  HS Scan of (1) Internal mercury lamp
************************************************************
Integration time is 0.2294 seconds per sample
dh180818Manchester 53.47 2.23 3.126073pr1000
************************************************************
Dead Time -------------------------  3E-08 
Number of Cycles Used -------------  4 
Starting Wavelength (Angstroms) ---  2950 
Final Wavelength (Angstoms) -------  2984 
Wavelength Increment (Angstroms) --  .25 
Filter Wheel #1 Position ---------- (1) Ground quartz diffuser (ND=2.32)
Filter Wheel #2 Position ---------- (1) Neutral Density 0.494



************************************************************
HS scan start time = 20:42:02
Dark Count =  6.7 


Time (GMT)  Wavelength (Ang)  Step Number  Raw Counts  Counts/Second

 1242.41        2950.00           1222          45.00       166.96
 1242.47        2950.25           1226          55.00       210.55
 1242.50        2950.50           1229          54.00       206.19
 1242.54        2950.75           1232          48.00       180.04
 1242.57        2951.00           1236          51.00       193.11
 1242.60        2951.25           1239          48.00       180.04
 1242.63        2951.50           1242          49.00       184.40
 1242.66        2951.75           1246          49.00       184.40
 1242.69        2952.00           1249          54.00       206.19
 1242.72        2952.25           1252          54.00       206.19
 1242.75        2952.50           1256          47.00       175.68
 1242.78        2952.75           1259          52.00       197.47
 1242.81        2953.00           1262          52.00       197.47
 1242.84        2953.25           1266          46.00       171.32
 1242.87        2953.50           1269          49.00       184.40
 1242.90        2953.75           1272          53.00       201.83
 1242.93        2954.00           1276          52.00       197.47
 1242.97        2954.25           1279          56.00       214.91
 1243.00        2954.50           1282          51.00       193.11
 1243.03        2954.75           1286          48.00       180.04
 1243.06        2955.00           1289          48.00       180.04
 1243.09        2955.25           1292          50.00       188.75
 1243.12        2955.50           1296          57.00       219.27
 1243.15        2955.75           1299          50.00       188.75
 1243.18        2956.00           1302          53.00       201.83
 1243.21        2956.25           1306          62.00       241.07
 1243.24        2956.50           1309          54.00       206.19
 1243.27        2956.75           1312          56.00       214.91
 1243.30        2957.00           1316          48.00       180.04
 1243.34        2957.25           1319          52.00       197.47
 1243.37        2957.50           1322          48.00       180.04
 1243.40        2957.75           1326          59.00       227.99
 1243.43        2958.00           1329          58.00       223.63
 1243.46        2958.25           1332          45.00       166.96
 1243.49        2958.50           1336          49.00       184.40
 1243.52        2958.75           1339          48.00       180.04
 1243.55        2959.00           1342          53.00       201.83
 1243.58        2959.25           1346          60.00       232.35
 1243.61        2959.50           1349          66.00       258.50
 1243.64        2959.75           1352          69.00       271.58
 1243.67        2960.00           1356         107.00       437.23
 1243.71        2960.25           1359         140.00       581.09
 1243.74        2960.50           1362         156.00       650.84
 1243.77        2960.75           1366         209.00       881.89
 1243.80        2961.00           1369         258.00      1095.50
 1243.83        2961.25           1372         290.00      1235.01
 1243.86        2961.50           1376         383.00      1640.45
 1243.89        2961.75           1379         484.00      2080.78
 1243.92        2962.00           1382         974.00      4217.19
 1243.95        2962.25           1386        2537.00     11033.73
 1243.98        2962.50           1389        3949.00     17194.13
 1244.01        2962.75           1392        5328.00     23212.76
 1244.05        2963.00           1396        7320.00     31910.65
 1244.08        2963.25           1399        8817.00     38450.17
 1244.11        2963.50           1402       10324.00     45035.96
 1244.14        2963.75           1406       12348.00     53885.21
 1244.17        2964.00           1409       13778.00     60140.23
 1244.20        2964.25           1412       15322.00     66896.54
 1244.23        2964.50           1416       17259.00     75376.46
 1244.26        2964.75           1419       18670.00     81556.32
 1244.29        2965.00           1422       20173.00     88141.66
 1244.33        2965.25           1426       22549.00     98557.32
 1244.36        2965.50           1429       23787.00    103986.90
 1244.39        2965.75           1432       25497.00    111489.50
 1244.42        2966.00           1436       27478.00    120185.40
 1244.45        2966.25           1439       29062.00    127141.80
 1244.48        2966.50           1442       30500.00    133459.60
 1244.51        2966.75           1446       31993.00    140021.60
 1244.54        2967.00           1449       32020.00    140140.30
 1244.57        2967.25           1452       32108.00    140527.10
 1244.61        2967.50           1456       32193.00    140900.80
 1244.64        2967.75           1459       32103.00    140505.10
 1244.67        2968.00           1462       32051.00    140276.50
 1244.70        2968.25           1466       31248.00    136746.90
 1244.73        2968.50           1469       29817.00    130458.60
 1244.76        2968.75           1472       28653.00    125345.40
 1244.79        2969.00           1476       26535.00    116045.40
 1244.82        2969.25           1479       24885.00    108804.00
 1244.85        2969.50           1482       23470.00    102596.50
 1244.88        2969.75           1486       21394.00     93493.34
 1244.92        2970.00           1489       20218.00     88338.87
 1244.95        2970.25           1492       18678.00     81591.37
 1244.98        2970.50           1496       16873.00     73686.25
 1245.01        2970.75           1499       15396.00     67220.43
 1245.04        2971.00           1502       13941.00     60853.37
 1245.07        2971.25           1506       12021.00     52455.19
 1245.10        2971.50           1509       10566.00     46093.78
 1245.13        2971.75           1513        8523.00     37165.65
 1245.16        2972.00           1516        7005.00     30534.93
 1245.20        2972.25           1519        5397.00     23513.97
 1245.23        2972.50           1523        3516.00     15304.76
 1245.26        2972.75           1526        2183.00      9489.62
 1245.29        2973.00           1529         965.00      4177.94
 1245.32        2973.25           1533         395.00      1692.76
 1245.35        2973.50           1536         280.00      1191.41
 1245.38        2973.75           1539         246.00      1043.19
 1245.41        2974.00           1543         205.00       864.45
 1245.44        2974.25           1546         138.00       572.37
 1245.47        2974.50           1549         112.00       459.03
 1245.50        2974.75           1553          80.00       319.53
 1245.53        2975.00           1556          65.00       254.14
 1245.57        2975.25           1559          51.00       193.11
 1245.60        2975.50           1563          47.00       175.68
 1245.63        2975.75           1566          55.00       210.55
 1245.66        2976.00           1569          59.00       227.99
 1245.69        2976.25           1573          57.00       219.27
 1245.72        2976.50           1576          45.00       166.96
 1245.75        2976.75           1579          46.00       171.32
 1245.78        2977.00           1583          51.00       193.11
 1245.81        2977.25           1586          53.00       201.83
 1245.84        2977.50           1590          55.00       210.55
 1245.87        2977.75           1593          44.00       162.60
 1245.90        2978.00           1596          56.00       214.91
 1245.93        2978.25           1600          48.00       180.04
 1245.97        2978.50           1603          46.00       171.32
 1246.00        2978.75           1606          57.00       219.27
 1246.03        2979.00           1610          52.00       197.47
 1246.06        2979.25           1613          45.00       166.96
 1246.09        2979.50           1616          43.00       158.24
 1246.12        2979.75           1620          46.00       171.32
 1246.15        2980.00           1623          45.00       166.96
 1246.18        2980.25           1626          52.00       197.47
 1246.21        2980.50           1630          48.00       180.04
 1246.24        2980.75           1633          53.00       201.83
 1246.27        2981.00           1637          53.00       201.83
 1246.30        2981.25           1640          51.00       193.11
 1246.34        2981.50           1643          50.00       188.75
 1246.37        2981.75           1647          50.00       188.75
 1246.40        2982.00           1650          46.00       171.32
 1246.43        2982.25           1653          52.00       197.47
 1246.46        2982.50           1657          45.00       166.96
 1246.49        2982.75           1660          41.00       149.52
 1246.52        2983.00           1663          47.00       175.68
 1246.55        2983.25           1667          44.00       162.60
 1246.58        2983.50           1670          51.00       193.11
 1246.61        2983.75           1673          52.00       197.47
 1246.64        2984.00           1677          54.00       206.19
HS scan finished at 20:46:52
end
