************************************************************
  HS Scan of (1) Internal mercury lamp
************************************************************
Integration time is 0.2294 seconds per sample
dh200817Manchester 53.47 2.23 2.804185pr1000
************************************************************
Dead Time -------------------------  3E-08 
Number of Cycles Used -------------  4 
Starting Wavelength (Angstroms) ---  2950 
Final Wavelength (Angstoms) -------  2984 
Wavelength Increment (Angstroms) --  .25 
Filter Wheel #1 Position ---------- (1) Ground quartz diffuser (ND=2.32)
Filter Wheel #2 Position ---------- (1) Neutral Density 0.494



************************************************************
HS scan start time = 01:40:32
Dark Count =  5.7 


Time (GMT)  Wavelength (Ang)  Step Number  Raw Counts  Counts/Second

  100.90        2950.00           1222          78.00       315.17
  100.97        2950.25           1226          83.00       336.97
  101.00        2950.50           1229          93.00       380.56
  101.03        2950.75           1232          88.00       358.77
  101.06        2951.00           1236          86.00       350.05
  101.09        2951.25           1239          81.00       328.25
  101.12        2951.50           1242          81.00       328.25
  101.16        2951.75           1246          78.00       315.17
  101.19        2952.00           1249          80.00       323.89
  101.22        2952.25           1252          85.00       345.69
  101.25        2952.50           1256          80.00       323.89
  101.28        2952.75           1259          82.00       332.61
  101.31        2953.00           1262          83.00       336.97
  101.34        2953.25           1266          81.00       328.25
  101.37        2953.50           1269          84.00       341.33
  101.40        2953.75           1272          80.00       323.89
  101.43        2954.00           1276          88.00       358.77
  101.46        2954.25           1279          86.00       350.05
  101.49        2954.50           1282          90.00       367.48
  101.52        2954.75           1286          79.00       319.53
  101.55        2955.00           1289          86.00       350.05
  101.58        2955.25           1292          75.00       302.10
  101.61        2955.50           1296          90.00       367.48
  101.65        2955.75           1299          81.00       328.25
  101.68        2956.00           1302          78.00       315.17
  101.71        2956.25           1306          83.00       336.97
  101.74        2956.50           1309          80.00       323.89
  101.77        2956.75           1312          74.00       297.74
  101.80        2957.00           1316          77.00       310.81
  101.83        2957.25           1319          75.00       302.10
  101.86        2957.50           1322          72.00       289.02
  101.89        2957.75           1326          83.00       336.97
  101.92        2958.00           1329          80.00       323.89
  101.95        2958.25           1332          81.00       328.25
  101.98        2958.50           1336          88.00       358.77
  102.01        2958.75           1339          91.00       371.84
  102.05        2959.00           1342          87.00       354.41
  102.08        2959.25           1346         107.00       441.59
  102.11        2959.50           1349          79.00       319.53
  102.14        2959.75           1352          98.00       402.36
  102.17        2960.00           1356         119.00       493.90
  102.20        2960.25           1359         155.00       650.84
  102.23        2960.50           1362         185.00       781.62
  102.26        2960.75           1366         223.00       947.28
  102.29        2961.00           1369         273.00      1165.25
  102.32        2961.25           1372         322.00      1378.87
  102.35        2961.50           1376         433.00      1862.79
  102.38        2961.75           1379         616.00      2660.63
  102.41        2962.00           1382        1463.00      6353.87
  102.45        2962.25           1386        3244.00     14122.37
  102.48        2962.50           1389        4753.00     20707.28
  102.51        2962.75           1392        6289.00     27412.68
  102.54        2963.00           1396        8384.00     36562.75
  102.57        2963.25           1399        9992.00     43589.23
  102.60        2963.50           1402       11443.00     49932.19
  102.63        2963.75           1406       13884.00     60608.36
  102.66        2964.00           1409       15533.00     67824.45
  102.69        2964.25           1412       17082.00     74605.77
  102.73        2964.50           1416       19389.00     84710.65
  102.76        2964.75           1419       20993.00     91739.94
  102.79        2965.00           1422       22410.00     97952.21
  102.82        2965.25           1426       24792.00    108400.30
  102.85        2965.50           1429       26443.00    115646.00
  102.88        2965.75           1432       28073.00    122802.50
  102.91        2966.00           1436       30206.00    132172.10
  102.94        2966.25           1439       31768.00    139036.90
  102.97        2966.50           1442       33319.00    145856.10
  103.01        2966.75           1446       34745.00    152128.20
  103.04        2967.00           1449       35140.00    153866.00
  103.07        2967.25           1452       35029.00    153377.60
  103.10        2967.50           1456       35013.00    153307.20
  103.13        2967.75           1459       34959.00    153069.70
  103.16        2968.00           1462       34838.00    152537.30
  103.19        2968.25           1466       33549.00    146867.60
  103.22        2968.50           1469       32323.00    141476.70
  103.25        2968.75           1472       30670.00    134211.10
  103.29        2969.00           1476       28607.00    125147.70
  103.32        2969.25           1479       27214.00    119030.70
  103.35        2969.50           1482       25630.00    112077.60
  103.38        2969.75           1486       23445.00    102491.20
  103.41        2970.00           1489       21996.00     96136.96
  103.44        2970.25           1492       20359.00     88961.18
  103.47        2970.50           1496       18222.00     79598.31
  103.50        2970.75           1499       16701.00     72937.55
  103.53        2971.00           1502       15042.00     65675.49
  103.56        2971.25           1506       12660.00     55254.12
  103.59        2971.50           1509       11118.00     48511.26
  103.62        2971.75           1513        9031.00     39389.59
  103.65        2972.00           1516        7419.00     32347.42
  103.69        2972.25           1519        5833.00     25421.74
  103.72        2972.50           1523        3741.00     16290.87
  103.75        2972.75           1526        2227.00      9685.90
  103.78        2973.00           1529        1113.00      4827.64
  103.81        2973.25           1533         541.00      2333.64
  103.84        2973.50           1536         405.00      1740.72
  103.87        2973.75           1539         337.00      1444.26
  103.90        2974.00           1543         278.00      1187.05
  103.93        2974.25           1546         222.00       942.92
  103.96        2974.50           1549         189.00       799.06
  104.00        2974.75           1553         133.00       554.94
  104.03        2975.00           1556         107.00       441.59
  104.06        2975.25           1559          86.00       350.05
  104.09        2975.50           1563          75.00       302.10
  104.12        2975.75           1566          74.00       297.74
  104.15        2976.00           1569          81.00       328.25
  104.18        2976.25           1573          72.00       289.02
  104.21        2976.50           1576          88.00       358.77
  104.24        2976.75           1579          81.00       328.25
  104.27        2977.00           1583          81.00       328.25
  104.30        2977.25           1586          82.00       332.61
  104.33        2977.50           1590          70.00       280.30
  104.37        2977.75           1593          73.00       293.38
  104.40        2978.00           1596          74.00       297.74
  104.43        2978.25           1600          60.00       236.71
  104.46        2978.50           1603          85.00       345.69
  104.49        2978.75           1606          78.00       315.17
  104.52        2979.00           1610          76.00       306.45
  104.55        2979.25           1613          74.00       297.74
  104.58        2979.50           1616          77.00       310.81
  104.61        2979.75           1620          79.00       319.53
  104.64        2980.00           1623          66.00       262.86
  104.67        2980.25           1626          72.00       289.02
  104.70        2980.50           1630          77.00       310.81
  104.74        2980.75           1633          72.00       289.02
  104.77        2981.00           1637          77.00       310.81
  104.80        2981.25           1640          83.00       336.97
  104.83        2981.50           1643          70.00       280.30
  104.86        2981.75           1647          70.00       280.30
  104.89        2982.00           1650          71.00       284.66
  104.92        2982.25           1653          76.00       306.45
  104.95        2982.50           1657          78.00       315.17
  104.98        2982.75           1660          63.00       249.78
  105.01        2983.00           1663          68.00       271.58
  105.04        2983.25           1667          68.00       271.58
  105.07        2983.50           1670          74.00       297.74
  105.10        2983.75           1673          70.00       280.30
  105.13        2984.00           1677          74.00       297.74
HS scan finished at 01:45:21
end
************************************************************
  HS Scan of (1) Internal mercury lamp
************************************************************
Integration time is 0.2294 seconds per sample
dh200817Manchester 53.47 2.23 2.857833pr1000
************************************************************
Dead Time -------------------------  3E-08 
Number of Cycles Used -------------  4 
Starting Wavelength (Angstroms) ---  2950 
Final Wavelength (Angstoms) -------  2984 
Wavelength Increment (Angstroms) --  .25 
Filter Wheel #1 Position ---------- (1) Ground quartz diffuser (ND=2.32)
Filter Wheel #2 Position ---------- (1) Neutral Density 0.494



************************************************************
HS scan start time = 20:12:00
Dark Count =  5.9 


Time (GMT)  Wavelength (Ang)  Step Number  Raw Counts  Counts/Second

 1212.37        2950.00           1222          73.00       292.50
 1212.44        2950.25           1226          92.00       375.33
 1212.47        2950.50           1229          83.00       336.10
 1212.50        2950.75           1232          84.00       340.46
 1212.53        2951.00           1236          80.00       323.02
 1212.56        2951.25           1239          81.00       327.38
 1212.59        2951.50           1242          85.00       344.82
 1212.62        2951.75           1246          83.00       336.10
 1212.65        2952.00           1249          80.00       323.02
 1212.68        2952.25           1252          87.00       353.53
 1212.72        2952.50           1256          80.00       323.02
 1212.75        2952.75           1259          79.00       318.66
 1212.78        2953.00           1262          76.00       305.58
 1212.81        2953.25           1266          83.00       336.10
 1212.84        2953.50           1269          81.00       327.38
 1212.87        2953.75           1272          88.00       357.89
 1212.90        2954.00           1276          87.00       353.53
 1212.93        2954.25           1279          90.00       366.61
 1212.96        2954.50           1282          80.00       323.02
 1212.99        2954.75           1286          77.00       309.94
 1213.02        2955.00           1289          81.00       327.38
 1213.05        2955.25           1292          82.00       331.74
 1213.08        2955.50           1296          86.00       349.18
 1213.12        2955.75           1299          78.00       314.30
 1213.15        2956.00           1302          82.00       331.74
 1213.18        2956.25           1306          87.00       353.53
 1213.21        2956.50           1309          84.00       340.46
 1213.24        2956.75           1312          85.00       344.82
 1213.27        2957.00           1316          88.00       357.89
 1213.30        2957.25           1319          90.00       366.61
 1213.33        2957.50           1322          79.00       318.66
 1213.36        2957.75           1326          86.00       349.18
 1213.39        2958.00           1329          91.00       370.97
 1213.42        2958.25           1332          93.00       379.69
 1213.45        2958.50           1336          88.00       357.89
 1213.48        2958.75           1339          79.00       318.66
 1213.51        2959.00           1342          95.00       388.41
 1213.54        2959.25           1346          83.00       336.10
 1213.58        2959.50           1349          92.00       375.33
 1213.61        2959.75           1352         112.00       462.52
 1213.64        2960.00           1356         140.00       584.58
 1213.67        2960.25           1359         183.00       772.03
 1213.70        2960.50           1362         218.00       924.61
 1213.73        2960.75           1366         275.00      1173.10
 1213.76        2961.00           1369         319.00      1364.92
 1213.79        2961.25           1372         376.00      1613.42
 1213.82        2961.50           1376         471.00      2027.59
 1213.85        2961.75           1379         735.00      3178.59
 1213.88        2962.00           1382        1677.00      7286.25
 1213.92        2962.25           1386        3613.00     15731.49
 1213.95        2962.50           1389        5316.00     23163.87
 1213.98        2962.75           1392        6923.00     30180.33
 1214.01        2963.00           1396        9104.00     39707.69
 1214.04        2963.25           1399       10793.00     47089.58
 1214.07        2963.50           1402       12492.00     54518.48
 1214.10        2963.75           1406       14867.00     64908.75
 1214.13        2964.00           1409       16477.00     71955.95
 1214.16        2964.25           1412       18102.00     79071.84
 1214.19        2964.50           1416       20399.00     89135.60
 1214.23        2964.75           1419       21923.00     95816.01
 1214.26        2965.00           1422       23795.00    104025.50
 1214.29        2965.25           1426       26121.00    114231.70
 1214.32        2965.50           1429       28061.00    122748.90
 1214.35        2965.75           1432       29666.00    129798.70
 1214.38        2966.00           1436       31878.00    139519.60
 1214.41        2966.25           1439       33436.00    146369.80
 1214.44        2966.50           1442       34910.00    152853.20
 1214.47        2966.75           1446       35995.00    157627.30
 1214.50        2967.00           1449       36129.00    158216.90
 1214.54        2967.25           1452       36412.00    159462.40
 1214.57        2967.50           1456       36121.00    158181.70
 1214.60        2967.75           1459       36128.00    158212.60
 1214.63        2968.00           1462       35699.00    156324.70
 1214.66        2968.25           1466       34227.00    149848.70
 1214.69        2968.50           1469       32801.00    143577.40
 1214.72        2968.75           1472       31107.00    136130.70
 1214.75        2969.00           1476       28813.00    126051.60
 1214.78        2969.25           1479       27168.00    118827.80
 1214.81        2969.50           1482       25400.00    111067.40
 1214.84        2969.75           1486       23442.00    102477.20
 1214.87        2970.00           1489       21696.00     94820.78
 1214.90        2970.25           1492       20088.00     87772.68
 1214.94        2970.50           1496       17928.00     78309.74
 1214.97        2970.75           1499       16182.00     70664.46
 1215.00        2971.00           1502       14554.00     63539.05
 1215.03        2971.25           1506       12048.00     52576.77
 1215.06        2971.50           1509       10357.00     45183.70
 1215.09        2971.75           1513        8135.00     35474.09
 1215.12        2972.00           1516        6548.00     28542.74
 1215.15        2972.25           1519        4928.00     21470.23
 1215.18        2972.50           1523        2974.00     12943.56
 1215.22        2972.75           1526        1646.00      7151.05
 1215.25        2973.00           1529         740.00      3200.39
 1215.28        2973.25           1533         446.00      1918.59
 1215.31        2973.50           1536         375.00      1609.06
 1215.34        2973.75           1539         307.00      1312.61
 1215.37        2974.00           1543         273.00      1164.38
 1215.40        2974.25           1546         216.00       915.89
 1215.43        2974.50           1549         166.00       697.92
 1215.46        2974.75           1553         110.00       453.80
 1215.49        2975.00           1556          96.00       392.77
 1215.52        2975.25           1559          82.00       331.74
 1215.55        2975.50           1563          80.00       323.02
 1215.58        2975.75           1566          75.00       301.22
 1215.62        2976.00           1569          81.00       327.38
 1215.65        2976.25           1573          76.00       305.58
 1215.68        2976.50           1576          81.00       327.38
 1215.71        2976.75           1579          66.00       261.99
 1215.74        2977.00           1583          77.00       309.94
 1215.77        2977.25           1586          75.00       301.22
 1215.80        2977.50           1590          67.00       266.35
 1215.83        2977.75           1593          71.00       283.79
 1215.86        2978.00           1596          73.00       292.50
 1215.89        2978.25           1600          74.00       296.86
 1215.92        2978.50           1603          73.00       292.50
 1215.95        2978.75           1606          80.00       323.02
 1215.98        2979.00           1610          77.00       309.94
 1216.01        2979.25           1613          74.00       296.86
 1216.04        2979.50           1616          70.00       279.43
 1216.08        2979.75           1620          72.00       288.15
 1216.11        2980.00           1623          87.00       353.53
 1216.14        2980.25           1626          84.00       340.46
 1216.17        2980.50           1630          78.00       314.30
 1216.20        2980.75           1633          69.00       275.07
 1216.23        2981.00           1637          73.00       292.50
 1216.26        2981.25           1640          82.00       331.74
 1216.29        2981.50           1643          73.00       292.50
 1216.32        2981.75           1647          79.00       318.66
 1216.35        2982.00           1650          77.00       309.94
 1216.38        2982.25           1653          73.00       292.50
 1216.41        2982.50           1657          68.00       270.71
 1216.44        2982.75           1660          71.00       283.79
 1216.47        2983.00           1663          65.00       257.63
 1216.51        2983.25           1667          78.00       314.30
 1216.54        2983.50           1670          79.00       318.66
 1216.57        2983.75           1673          70.00       279.43
 1216.60        2984.00           1677          68.00       270.71
HS scan finished at 20:16:49
end
