************************************************************
  HS Scan of (1) Internal mercury lamp
************************************************************
Integration time is 0.2294 seconds per sample
dh190818Manchester 53.47 2.23 3.018777pr1000
************************************************************
Dead Time -------------------------  3E-08 
Number of Cycles Used -------------  4 
Starting Wavelength (Angstroms) ---  2950 
Final Wavelength (Angstoms) -------  2984 
Wavelength Increment (Angstroms) --  .25 
Filter Wheel #1 Position ---------- (1) Ground quartz diffuser (ND=2.32)
Filter Wheel #2 Position ---------- (1) Neutral Density 0.494



************************************************************
HS scan start time = 01:29:03
Dark Count =  5.5 


Time (GMT)  Wavelength (Ang)  Step Number  Raw Counts  Counts/Second

   89.43        2950.00           1222          48.00       185.27
   89.49        2950.25           1226          52.00       202.70
   89.52        2950.50           1229          55.00       215.78
   89.55        2950.75           1232          45.00       172.19
   89.58        2951.00           1236          60.00       237.58
   89.61        2951.25           1239          55.00       215.78
   89.65        2951.50           1242          51.00       198.34
   89.68        2951.75           1246          53.00       207.06
   89.71        2952.00           1249          49.00       189.63
   89.74        2952.25           1252          52.00       202.70
   89.77        2952.50           1256          48.00       185.27
   89.80        2952.75           1259          52.00       202.70
   89.83        2953.00           1262          51.00       198.34
   89.86        2953.25           1266          62.00       246.30
   89.89        2953.50           1269          55.00       215.78
   89.92        2953.75           1272          44.00       167.83
   89.95        2954.00           1276          47.00       180.91
   89.98        2954.25           1279          46.00       176.55
   90.01        2954.50           1282          52.00       202.70
   90.05        2954.75           1286          47.00       180.91
   90.08        2955.00           1289          56.00       220.14
   90.11        2955.25           1292          57.00       224.50
   90.14        2955.50           1296          50.00       193.99
   90.17        2955.75           1299          46.00       176.55
   90.20        2956.00           1302          59.00       233.22
   90.23        2956.25           1306          48.00       185.27
   90.26        2956.50           1309          58.00       228.86
   90.29        2956.75           1312          44.00       167.83
   90.32        2957.00           1316          52.00       202.70
   90.35        2957.25           1319          59.00       233.22
   90.38        2957.50           1322          51.00       198.34
   90.42        2957.75           1326          52.00       202.70
   90.45        2958.00           1329          59.00       233.22
   90.48        2958.25           1332          50.00       193.99
   90.51        2958.50           1336          60.00       237.58
   90.54        2958.75           1339          47.00       180.91
   90.57        2959.00           1342          54.00       211.42
   90.60        2959.25           1346          61.00       241.94
   90.63        2959.50           1349          64.00       255.02
   90.66        2959.75           1352          76.00       307.33
   90.69        2960.00           1356         105.00       433.75
   90.72        2960.25           1359         129.00       538.37
   90.76        2960.50           1362         171.00       721.46
   90.79        2960.75           1366         220.00       935.07
   90.82        2961.00           1369         255.00      1087.66
   90.85        2961.25           1372         292.00      1248.96
   90.88        2961.50           1376         378.00      1623.88
   90.91        2961.75           1379         615.00      2657.14
   90.94        2962.00           1382        1452.00      6306.77
   90.97        2962.25           1386        3252.00     14158.15
   91.00        2962.50           1389        4687.00     20420.09
   91.03        2962.75           1392        6152.00     26815.37
   91.06        2963.00           1396        7906.00     34475.49
   91.09        2963.25           1399        9261.00     40395.49
   91.13        2963.50           1402       10733.00     46829.04
   91.16        2963.75           1406       12532.00     54695.17
   91.19        2964.00           1409       13965.00     60963.62
   91.22        2964.25           1412       15398.00     67234.43
   91.25        2964.50           1416       17371.00     75872.16
   91.28        2964.75           1419       18766.00     81982.12
   91.31        2965.00           1422       20273.00     88585.16
   91.34        2965.25           1426       22310.00     97514.59
   91.37        2965.50           1429       23694.00    103584.20
   91.40        2965.75           1432       25319.00    110713.70
   91.43        2966.00           1436       26917.00    117727.60
   91.47        2966.25           1439       28442.00    124423.90
   91.50        2966.50           1442       29872.00    130705.50
   91.53        2966.75           1446       30947.00    135429.20
   91.56        2967.00           1449       31051.00    135886.30
   91.59        2967.25           1452       31068.00    135961.00
   91.62        2967.50           1456       30994.00    135635.80
   91.65        2967.75           1459       31056.00    135908.30
   91.68        2968.00           1462       30745.00    134541.50
   91.71        2968.25           1466       29627.00    129629.10
   91.75        2968.50           1469       28339.00    123971.60
   91.78        2968.75           1472       26894.00    117626.70
   91.81        2969.00           1476       24905.00    108897.00
   91.84        2969.25           1479       23470.00    102601.70
   91.87        2969.50           1482       22066.00     96444.72
   91.90        2969.75           1486       20277.00     88602.68
   91.93        2970.00           1489       18945.00     82766.29
   91.96        2970.25           1492       17627.00     76993.25
   91.99        2970.50           1496       15599.00     68114.21
   92.03        2970.75           1499       14258.00     62245.60
   92.06        2971.00           1502       12931.00     56440.30
   92.09        2971.25           1506       10832.00     47261.82
   92.12        2971.50           1509        9287.00     40509.10
   92.15        2971.75           1513        7494.00     32675.87
   92.18        2972.00           1516        6087.00     26531.58
   92.21        2972.25           1519        4664.00     20319.71
   92.24        2972.50           1523        2751.00     11972.48
   92.27        2972.75           1526        1514.00      6577.15
   92.31        2973.00           1529         628.00      2713.82
   92.34        2973.25           1533         357.00      1532.33
   92.37        2973.50           1536         292.00      1248.96
   92.40        2973.75           1539         236.00      1004.83
   92.43        2974.00           1543         204.00       865.32
   92.46        2974.25           1546         148.00       621.20
   92.49        2974.50           1549         117.00       486.06
   92.52        2974.75           1553          89.00       364.00
   92.55        2975.00           1556          76.00       307.33
   92.58        2975.25           1559          57.00       224.50
   92.61        2975.50           1563          54.00       211.42
   92.64        2975.75           1566          52.00       202.70
   92.68        2976.00           1569          51.00       198.34
   92.71        2976.25           1573          59.00       233.22
   92.74        2976.50           1576          48.00       185.27
   92.77        2976.75           1579          50.00       193.99
   92.80        2977.00           1583          47.00       180.91
   92.83        2977.25           1586          52.00       202.70
   92.86        2977.50           1590          54.00       211.42
   92.89        2977.75           1593          44.00       167.83
   92.92        2978.00           1596          46.00       176.55
   92.95        2978.25           1600          44.00       167.83
   92.98        2978.50           1603          54.00       211.42
   93.01        2978.75           1606          53.00       207.06
   93.04        2979.00           1610          49.00       189.63
   93.07        2979.25           1613          56.00       220.14
   93.10        2979.50           1616          45.00       172.19
   93.13        2979.75           1620          51.00       198.34
   93.17        2980.00           1623          50.00       193.99
   93.20        2980.25           1626          53.00       207.06
   93.23        2980.50           1630          43.00       163.47
   93.26        2980.75           1633          49.00       189.63
   93.29        2981.00           1637          44.00       167.83
   93.32        2981.25           1640          48.00       185.27
   93.35        2981.50           1643          53.00       207.06
   93.38        2981.75           1647          46.00       176.55
   93.41        2982.00           1650          45.00       172.19
   93.44        2982.25           1653          50.00       193.99
   93.47        2982.50           1657          46.00       176.55
   93.50        2982.75           1660          48.00       185.27
   93.54        2983.00           1663          42.00       159.11
   93.57        2983.25           1667          50.00       193.99
   93.60        2983.50           1670          52.00       202.70
   93.63        2983.75           1673          44.00       167.83
   93.66        2984.00           1677          50.00       193.99
HS scan finished at 01:33:53
end
************************************************************
  HS Scan of (1) Internal mercury lamp
************************************************************
Integration time is 0.2294 seconds per sample
dh190818Manchester 53.47 2.23 2.965129pr1000
************************************************************
Dead Time -------------------------  3E-08 
Number of Cycles Used -------------  4 
Starting Wavelength (Angstroms) ---  2950 
Final Wavelength (Angstoms) -------  2984 
Wavelength Increment (Angstroms) --  .25 
Filter Wheel #1 Position ---------- (1) Ground quartz diffuser (ND=2.32)
Filter Wheel #2 Position ---------- (1) Neutral Density 0.494



************************************************************
HS scan start time = 20:42:00
Dark Count =  5.2 


Time (GMT)  Wavelength (Ang)  Step Number  Raw Counts  Counts/Second

 1242.37        2950.00           1222          48.00       186.57
 1242.44        2950.25           1226          57.00       225.81
 1242.47        2950.50           1229          48.00       186.57
 1242.50        2950.75           1232          53.00       208.37
 1242.53        2951.00           1236          58.00       230.17
 1242.56        2951.25           1239          56.00       221.45
 1242.59        2951.50           1242          53.00       208.37
 1242.62        2951.75           1246          46.00       177.86
 1242.65        2952.00           1249          47.00       182.22
 1242.68        2952.25           1252          56.00       221.45
 1242.71        2952.50           1256          49.00       190.93
 1242.74        2952.75           1259          53.00       208.37
 1242.78        2953.00           1262          54.00       212.73
 1242.81        2953.25           1266          54.00       212.73
 1242.84        2953.50           1269          58.00       230.17
 1242.87        2953.75           1272          48.00       186.57
 1242.90        2954.00           1276          50.00       195.29
 1242.93        2954.25           1279          52.00       204.01
 1242.96        2954.50           1282          60.00       238.89
 1242.99        2954.75           1286          53.00       208.37
 1243.02        2955.00           1289          44.00       169.14
 1243.05        2955.25           1292          58.00       230.17
 1243.08        2955.50           1296          54.00       212.73
 1243.11        2955.75           1299          46.00       177.86
 1243.15        2956.00           1302          54.00       212.73
 1243.18        2956.25           1306          48.00       186.57
 1243.21        2956.50           1309          55.00       217.09
 1243.24        2956.75           1312          60.00       238.89
 1243.27        2957.00           1316          49.00       190.93
 1243.30        2957.25           1319          53.00       208.37
 1243.33        2957.50           1322          59.00       234.53
 1243.36        2957.75           1326          47.00       182.22
 1243.39        2958.00           1329          47.00       182.22
 1243.42        2958.25           1332          56.00       221.45
 1243.46        2958.50           1336          60.00       238.89
 1243.49        2958.75           1339          55.00       217.09
 1243.52        2959.00           1342          56.00       221.45
 1243.55        2959.25           1346          63.00       251.96
 1243.58        2959.50           1349          58.00       230.17
 1243.61        2959.75           1352          73.00       295.56
 1243.64        2960.00           1356          95.00       391.46
 1243.67        2960.25           1359         114.00       474.29
 1243.70        2960.50           1362         150.00       631.22
 1243.73        2960.75           1366         204.00       866.63
 1243.76        2961.00           1369         225.00       958.18
 1243.80        2961.25           1372         270.00      1154.36
 1243.83        2961.50           1376         345.00      1481.32
 1243.86        2961.75           1379         477.00      2056.80
 1243.89        2962.00           1382        1083.00      4699.01
 1243.92        2962.25           1386        2670.00     11620.44
 1243.95        2962.50           1389        3981.00     17340.32
 1243.98        2962.75           1392        5225.00     22769.69
 1244.01        2963.00           1396        7153.00     31187.84
 1244.04        2963.25           1399        8499.00     37067.35
 1244.07        2963.50           1402        9872.00     43066.94
 1244.11        2963.75           1406       11759.00     51316.08
 1244.14        2964.00           1409       13179.00     57526.39
 1244.17        2964.25           1412       14666.00     64032.22
 1244.20        2964.50           1416       16446.00     71823.29
 1244.23        2964.75           1419       17879.00     78098.21
 1244.26        2965.00           1422       19298.00     84314.13
 1244.29        2965.25           1426       21115.00     92276.90
 1244.32        2965.50           1429       22402.00     97919.31
 1244.35        2965.75           1432       23864.00    104331.30
 1244.38        2966.00           1436       25675.00    112277.30
 1244.42        2966.25           1439       26754.00    117013.40
 1244.45        2966.50           1442       28004.00    122501.70
 1244.48        2966.75           1446       29539.00    129243.80
 1244.51        2967.00           1449       29875.00    130720.00
 1244.54        2967.25           1452       30066.00    131559.20
 1244.57        2967.50           1456       30022.00    131365.90
 1244.60        2967.75           1459       30035.00    131423.00
 1244.63        2968.00           1462       29949.00    131045.10
 1244.66        2968.25           1466       28947.00    126643.30
 1244.70        2968.50           1469       27930.00    122176.70
 1244.73        2968.75           1472       26521.00    115990.50
 1244.76        2969.00           1476       24829.00    108564.90
 1244.79        2969.25           1479       23408.00    102331.10
 1244.82        2969.50           1482       21985.00     96090.91
 1244.85        2969.75           1486       20150.00     88047.44
 1244.88        2970.00           1489       18946.00     82771.99
 1244.91        2970.25           1492       17543.00     76626.70
 1244.94        2970.50           1496       15595.00     68098.00
 1244.97        2970.75           1499       14082.00     61476.83
 1245.00        2971.00           1502       12725.00     55540.59
 1245.04        2971.25           1506       10880.00     47472.97
 1245.07        2971.50           1509        9458.00     41257.66
 1245.10        2971.75           1513        7699.00     33572.60
 1245.13        2972.00           1516        6458.00     28152.80
 1245.16        2972.25           1519        5049.00     22001.44
 1245.19        2972.50           1523        3304.00     14386.33
 1245.22        2972.75           1526        1967.00      8554.07
 1245.25        2973.00           1529         830.00      3595.85
 1245.28        2973.25           1533         380.00      1633.91
 1245.31        2973.50           1536         278.00      1189.23
 1245.35        2973.75           1539         244.00      1041.01
 1245.38        2974.00           1543         198.00       840.47
 1245.41        2974.25           1546         146.00       613.79
 1245.44        2974.50           1549         118.00       491.72
 1245.47        2974.75           1553          82.00       334.79
 1245.50        2975.00           1556          58.00       230.17
 1245.53        2975.25           1559          57.00       225.81
 1245.56        2975.50           1563          61.00       243.25
 1245.59        2975.75           1566          58.00       230.17
 1245.62        2976.00           1569          56.00       221.45
 1245.65        2976.25           1573          60.00       238.89
 1245.68        2976.50           1576          44.00       169.14
 1245.71        2976.75           1579          55.00       217.09
 1245.75        2977.00           1583          54.00       212.73
 1245.78        2977.25           1586          50.00       195.29
 1245.81        2977.50           1590          56.00       221.45
 1245.84        2977.75           1593          47.00       182.22
 1245.87        2978.00           1596          50.00       195.29
 1245.90        2978.25           1600          52.00       204.01
 1245.93        2978.50           1603          48.00       186.57
 1245.96        2978.75           1606          54.00       212.73
 1245.99        2979.00           1610          52.00       204.01
 1246.02        2979.25           1613          52.00       204.01
 1246.05        2979.50           1616          45.00       173.50
 1246.08        2979.75           1620          49.00       190.93
 1246.11        2980.00           1623          48.00       186.57
 1246.15        2980.25           1626          53.00       208.37
 1246.18        2980.50           1630          49.00       190.93
 1246.21        2980.75           1633          44.00       169.14
 1246.24        2981.00           1637          45.00       173.50
 1246.27        2981.25           1640          47.00       182.22
 1246.30        2981.50           1643          53.00       208.37
 1246.33        2981.75           1647          48.00       186.57
 1246.36        2982.00           1650          46.00       177.86
 1246.39        2982.25           1653          51.00       199.65
 1246.42        2982.50           1657          51.00       199.65
 1246.45        2982.75           1660          50.00       195.29
 1246.48        2983.00           1663          49.00       190.93
 1246.52        2983.25           1667          45.00       173.50
 1246.55        2983.50           1670          46.00       177.86
 1246.58        2983.75           1673          41.00       156.06
 1246.61        2984.00           1677          51.00       199.65
HS scan finished at 20:46:49
end
