************************************************************
  HS Scan of (1) Internal mercury lamp
************************************************************
Integration time is 0.2294 seconds per sample
dh210818Manchester 53.47 2.23 3.018777pr1000
************************************************************
Dead Time -------------------------  3E-08 
Number of Cycles Used -------------  4 
Starting Wavelength (Angstroms) ---  2950 
Final Wavelength (Angstoms) -------  2984 
Wavelength Increment (Angstroms) --  .25 
Filter Wheel #1 Position ---------- (1) Ground quartz diffuser (ND=2.32)
Filter Wheel #2 Position ---------- (1) Neutral Density 0.494



************************************************************
HS scan start time = 01:39:31
Dark Count =  6.4 


Time (GMT)  Wavelength (Ang)  Step Number  Raw Counts  Counts/Second

   99.89        2950.00           1222          54.00       207.50
   99.96        2950.25           1226          53.00       203.14
   99.99        2950.50           1229          53.00       203.14
  100.02        2950.75           1232          59.00       229.30
  100.05        2951.00           1236          44.00       163.91
  100.08        2951.25           1239          51.00       194.42
  100.11        2951.50           1242          51.00       194.42
  100.14        2951.75           1246          57.00       220.58
  100.17        2952.00           1249          47.00       176.98
  100.20        2952.25           1252          54.00       207.50
  100.23        2952.50           1256          63.00       246.73
  100.27        2952.75           1259          54.00       207.50
  100.30        2953.00           1262          51.00       194.42
  100.33        2953.25           1266          57.00       220.58
  100.36        2953.50           1269          56.00       216.22
  100.39        2953.75           1272          60.00       233.65
  100.42        2954.00           1276          42.00       155.19
  100.45        2954.25           1279          56.00       216.22
  100.48        2954.50           1282          53.00       203.14
  100.51        2954.75           1286          56.00       216.22
  100.54        2955.00           1289          57.00       220.58
  100.57        2955.25           1292          58.00       224.94
  100.60        2955.50           1296          56.00       216.22
  100.63        2955.75           1299          55.00       211.86
  100.66        2956.00           1302          51.00       194.42
  100.70        2956.25           1306          54.00       207.50
  100.73        2956.50           1309          58.00       224.94
  100.76        2956.75           1312          55.00       211.86
  100.79        2957.00           1316          52.00       198.78
  100.82        2957.25           1319          53.00       203.14
  100.85        2957.50           1322          54.00       207.50
  100.88        2957.75           1326          50.00       190.06
  100.91        2958.00           1329          54.00       207.50
  100.94        2958.25           1332          58.00       224.94
  100.97        2958.50           1336          52.00       198.78
  101.00        2958.75           1339          58.00       224.94
  101.03        2959.00           1342          46.00       172.63
  101.06        2959.25           1346          58.00       224.94
  101.10        2959.50           1349          59.00       229.30
  101.13        2959.75           1352          72.00       285.97
  101.16        2960.00           1356         110.00       451.62
  101.19        2960.25           1359         134.00       556.24
  101.22        2960.50           1362         177.00       743.70
  101.25        2960.75           1366         217.00       918.07
  101.28        2961.00           1369         259.00      1101.17
  101.31        2961.25           1372         299.00      1275.55
  101.34        2961.50           1376         361.00      1545.84
  101.37        2961.75           1379         587.00      2531.14
  101.40        2962.00           1382        1310.00      5683.62
  101.44        2962.25           1386        3087.00     13434.36
  101.47        2962.50           1389        4447.00     19368.71
  101.50        2962.75           1392        5928.00     25833.44
  101.53        2963.00           1396        7649.00     33348.95
  101.56        2963.25           1399        9058.00     39504.51
  101.59        2963.50           1402       10480.00     45719.16
  101.62        2963.75           1406       12360.00     53939.00
  101.65        2964.00           1409       13790.00     60194.05
  101.68        2964.25           1412       15382.00     67160.46
  101.72        2964.50           1416       17259.00     75377.77
  101.75        2964.75           1419       18691.00     81649.63
  101.78        2965.00           1422       20005.00     87406.75
  101.81        2965.25           1426       21879.00     95620.90
  101.84        2965.50           1429       23373.00    102172.30
  101.87        2965.75           1432       24688.00    107941.00
  101.90        2966.00           1436       26472.00    115770.20
  101.93        2966.25           1439       27782.00    121521.60
  101.96        2966.50           1442       29126.00    127424.30
  102.00        2966.75           1446       30387.00    132964.40
  102.03        2967.00           1449       30728.00    134462.90
  102.06        2967.25           1452       30734.00    134489.20
  102.09        2967.50           1456       30669.00    134203.60
  102.12        2967.75           1459       30709.00    134379.40
  102.15        2968.00           1462       30426.00    133135.80
  102.18        2968.25           1466       29297.00    128175.40
  102.21        2968.50           1469       28072.00    122795.00
  102.24        2968.75           1472       26652.00    116560.30
  102.28        2969.00           1476       24921.00    108963.30
  102.31        2969.25           1479       23608.00    103203.10
  102.34        2969.50           1482       22342.00     97650.96
  102.37        2969.75           1486       20301.00     88703.92
  102.40        2970.00           1489       18764.00     81969.43
  102.43        2970.25           1492       17422.00     76091.55
  102.46        2970.50           1496       15564.00     67957.06
  102.49        2970.75           1499       14142.00     61734.10
  102.52        2971.00           1502       12796.00     55845.89
  102.55        2971.25           1506       10804.00     47135.48
  102.59        2971.50           1509        9370.00     40867.86
  102.62        2971.75           1513        7413.00     32318.16
  102.65        2972.00           1516        6102.00     26593.14
  102.68        2972.25           1519        4776.00     20804.61
  102.71        2972.50           1523        2872.00     12496.40
  102.74        2972.75           1526        1611.00      6996.24
  102.77        2973.00           1529         668.00      2884.30
  102.80        2973.25           1533         352.00      1506.61
  102.83        2973.50           1536         276.00      1175.28
  102.86        2973.75           1539         231.00       979.10
  102.89        2974.00           1543         186.00       782.93
  102.93        2974.25           1546         134.00       556.24
  102.96        2974.50           1549         106.00       434.18
  102.99        2974.75           1553          69.00       272.89
  103.02        2975.00           1556          53.00       203.14
  103.05        2975.25           1559          48.00       181.34
  103.08        2975.50           1563          48.00       181.34
  103.11        2975.75           1566          48.00       181.34
  103.14        2976.00           1569          55.00       211.86
  103.17        2976.25           1573          44.00       163.91
  103.20        2976.50           1576          50.00       190.06
  103.23        2976.75           1579          46.00       172.63
  103.26        2977.00           1583          49.00       185.70
  103.30        2977.25           1586          56.00       216.22
  103.33        2977.50           1590          48.00       181.34
  103.36        2977.75           1593          48.00       181.34
  103.39        2978.00           1596          50.00       190.06
  103.42        2978.25           1600          47.00       176.98
  103.45        2978.50           1603          55.00       211.86
  103.48        2978.75           1606          46.00       172.63
  103.51        2979.00           1610          47.00       176.98
  103.54        2979.25           1613          44.00       163.91
  103.57        2979.50           1616          53.00       203.14
  103.61        2979.75           1620          49.00       185.70
  103.64        2980.00           1623          49.00       185.70
  103.67        2980.25           1626          45.00       168.27
  103.70        2980.50           1630          59.00       229.30
  103.73        2980.75           1633          48.00       181.34
  103.76        2981.00           1637          46.00       172.63
  103.79        2981.25           1640          46.00       172.63
  103.82        2981.50           1643          41.00       150.83
  103.85        2981.75           1647          44.00       163.91
  103.88        2982.00           1650          48.00       181.34
  103.91        2982.25           1653          51.00       194.42
  103.94        2982.50           1657          48.00       181.34
  103.97        2982.75           1660          46.00       172.63
  104.00        2983.00           1663          42.00       155.19
  104.03        2983.25           1667          47.00       176.98
  104.07        2983.50           1670          53.00       203.14
  104.10        2983.75           1673          50.00       190.06
  104.13        2984.00           1677          52.00       198.78
HS scan finished at 01:44:21
end
************************************************************
  HS Scan of (1) Internal mercury lamp
************************************************************
Integration time is 0.2294 seconds per sample
dh210818Manchester 53.47 2.23 3.072425pr1000
************************************************************
Dead Time -------------------------  3E-08 
Number of Cycles Used -------------  4 
Starting Wavelength (Angstroms) ---  2950 
Final Wavelength (Angstoms) -------  2984 
Wavelength Increment (Angstroms) --  .25 
Filter Wheel #1 Position ---------- (1) Ground quartz diffuser (ND=2.32)
Filter Wheel #2 Position ---------- (1) Neutral Density 0.494



************************************************************
HS scan start time = 20:12:04
Dark Count =  6.1 


Time (GMT)  Wavelength (Ang)  Step Number  Raw Counts  Counts/Second

 1212.44        2950.00           1222          51.00       195.73
 1212.51        2950.25           1226          50.00       191.37
 1212.54        2950.50           1229          53.00       204.45
 1212.57        2950.75           1232          51.00       195.73
 1212.60        2951.00           1236          51.00       195.73
 1212.63        2951.25           1239          55.00       213.17
 1212.66        2951.50           1242          54.00       208.81
 1212.69        2951.75           1246          53.00       204.45
 1212.73        2952.00           1249          51.00       195.73
 1212.76        2952.25           1252          49.00       187.01
 1212.79        2952.50           1256          59.00       230.60
 1212.82        2952.75           1259          45.00       169.57
 1212.85        2953.00           1262          54.00       208.81
 1212.88        2953.25           1266          50.00       191.37
 1212.91        2953.50           1269          44.00       165.21
 1212.94        2953.75           1272          51.00       195.73
 1212.97        2954.00           1276          57.00       221.88
 1213.01        2954.25           1279          52.00       200.09
 1213.04        2954.50           1282          54.00       208.81
 1213.07        2954.75           1286          57.00       221.88
 1213.10        2955.00           1289          50.00       191.37
 1213.13        2955.25           1292          54.00       208.81
 1213.16        2955.50           1296          56.00       217.53
 1213.19        2955.75           1299          56.00       217.53
 1213.22        2956.00           1302          55.00       213.17
 1213.25        2956.25           1306          56.00       217.53
 1213.28        2956.50           1309          53.00       204.45
 1213.31        2956.75           1312          52.00       200.09
 1213.34        2957.00           1316          51.00       195.73
 1213.38        2957.25           1319          50.00       191.37
 1213.41        2957.50           1322          48.00       182.65
 1213.44        2957.75           1326          48.00       182.65
 1213.47        2958.00           1329          56.00       217.53
 1213.50        2958.25           1332          50.00       191.37
 1213.53        2958.50           1336          50.00       191.37
 1213.56        2958.75           1339          48.00       182.65
 1213.59        2959.00           1342          55.00       213.17
 1213.62        2959.25           1346          56.00       217.53
 1213.66        2959.50           1349          59.00       230.60
 1213.69        2959.75           1352          75.00       300.35
 1213.72        2960.00           1356         108.00       444.21
 1213.75        2960.25           1359         120.00       496.52
 1213.78        2960.50           1362         155.00       649.10
 1213.81        2960.75           1366         214.00       906.30
 1213.84        2961.00           1369         240.00      1019.65
 1213.87        2961.25           1372         285.00      1215.82
 1213.90        2961.50           1376         349.00      1494.84
 1213.93        2961.75           1379         484.00      2083.39
 1213.96        2962.00           1382        1024.00      4437.82
 1214.00        2962.25           1386        2533.00     11018.90
 1214.03        2962.50           1389        4006.00     17445.48
 1214.06        2962.75           1392        5285.00     23027.67
 1214.09        2963.00           1396        7125.00     31061.63
 1214.12        2963.25           1399        8624.00     37609.54
 1214.15        2963.50           1402       10025.00     43731.71
 1214.18        2963.75           1406       12054.00     52602.13
 1214.21        2964.00           1409       13438.00     58655.44
 1214.24        2964.25           1412       14897.00     65039.17
 1214.27        2964.50           1416       16915.00     73872.78
 1214.30        2964.75           1419       18428.00     80498.88
 1214.34        2965.00           1422       19812.00     86562.34
 1214.37        2965.25           1426       21751.00     95061.04
 1214.40        2965.50           1429       23394.00    102265.80
 1214.43        2965.75           1432       25040.00    109486.80
 1214.46        2966.00           1436       27051.00    118313.30
 1214.49        2966.25           1439       28456.00    124482.80
 1214.52        2966.50           1442       29680.00    129859.30
 1214.55        2966.75           1446       30852.00    135009.10
 1214.58        2967.00           1449       31087.00    136041.90
 1214.62        2967.25           1452       31166.00    136389.10
 1214.65        2967.50           1456       31302.00    136986.90
 1214.68        2967.75           1459       31280.00    136890.10
 1214.71        2968.00           1462       31051.00    135883.70
 1214.74        2968.25           1466       30222.00    132240.70
 1214.77        2968.50           1469       28822.00    126090.30
 1214.80        2968.75           1472       27427.00    119964.10
 1214.83        2969.00           1476       25382.00    110987.50
 1214.87        2969.25           1479       24067.00    105217.80
 1214.90        2969.50           1482       22609.00     98823.06
 1214.93        2969.75           1486       20615.00     90081.39
 1214.96        2970.00           1489       19330.00     84450.40
 1214.99        2970.25           1492       17964.00     78466.54
 1215.02        2970.50           1496       16056.00     70112.02
 1215.05        2970.75           1499       14819.00     64697.83
 1215.08        2971.00           1502       13411.00     58537.33
 1215.11        2971.25           1506       11517.00     50254.00
 1215.15        2971.50           1509        9857.00     42997.46
 1215.18        2971.75           1513        8050.00     35101.90
 1215.21        2972.00           1516        6668.00     29065.88
 1215.24        2972.25           1519        5014.00     21844.74
 1215.27        2972.50           1523        3190.00     13885.03
 1215.30        2972.75           1526        1877.00      8157.62
 1215.33        2973.00           1529         830.00      3591.93
 1215.36        2973.25           1533         390.00      1673.58
 1215.39        2973.50           1536         302.00      1289.94
 1215.43        2973.75           1539         239.00      1015.29
 1215.46        2974.00           1543         228.00       967.33
 1215.49        2974.25           1546         161.00       675.25
 1215.52        2974.50           1549         112.00       461.65
 1215.55        2974.75           1553          89.00       361.38
 1215.58        2975.00           1556          67.00       265.48
 1215.61        2975.25           1559          62.00       243.68
 1215.64        2975.50           1563          58.00       226.24
 1215.67        2975.75           1566          57.00       221.88
 1215.70        2976.00           1569          53.00       204.45
 1215.74        2976.25           1573          53.00       204.45
 1215.77        2976.50           1576          50.00       191.37
 1215.80        2976.75           1579          48.00       182.65
 1215.83        2977.00           1583          53.00       204.45
 1215.86        2977.25           1586          52.00       200.09
 1215.89        2977.50           1590          51.00       195.73
 1215.92        2977.75           1593          46.00       173.93
 1215.95        2978.00           1596          68.00       269.84
 1215.98        2978.25           1600          49.00       187.01
 1216.01        2978.50           1603          51.00       195.73
 1216.04        2978.75           1606          47.00       178.29
 1216.08        2979.00           1610          51.00       195.73
 1216.11        2979.25           1613          47.00       178.29
 1216.14        2979.50           1616          46.00       173.93
 1216.17        2979.75           1620          52.00       200.09
 1216.20        2980.00           1623          49.00       187.01
 1216.23        2980.25           1626          45.00       169.57
 1216.26        2980.50           1630          47.00       178.29
 1216.29        2980.75           1633          44.00       165.21
 1216.32        2981.00           1637          47.00       178.29
 1216.35        2981.25           1640          52.00       200.09
 1216.38        2981.50           1643          48.00       182.65
 1216.41        2981.75           1647          49.00       187.01
 1216.45        2982.00           1650          56.00       217.53
 1216.48        2982.25           1653          49.00       187.01
 1216.51        2982.50           1657          48.00       182.65
 1216.54        2982.75           1660          46.00       173.93
 1216.57        2983.00           1663          40.00       147.78
 1216.60        2983.25           1667          46.00       173.93
 1216.63        2983.50           1670          51.00       195.73
 1216.66        2983.75           1673          42.00       156.50
 1216.69        2984.00           1677          51.00       195.73
HS scan finished at 20:16:55
end
