************************************************************
  HS Scan of (1) Internal mercury lamp
************************************************************
Integration time is 0.2294 seconds per sample
dh230817Manchester 53.47 2.23 3.072425pr1000
************************************************************
Dead Time -------------------------  3E-08 
Number of Cycles Used -------------  4 
Starting Wavelength (Angstroms) ---  2950 
Final Wavelength (Angstoms) -------  2984 
Wavelength Increment (Angstroms) --  .25 
Filter Wheel #1 Position ---------- (1) Ground quartz diffuser (ND=2.32)
Filter Wheel #2 Position ---------- (1) Neutral Density 0.494



************************************************************
HS scan start time = 02:17:20
Dark Count =  5.6 


Time (GMT)  Wavelength (Ang)  Step Number  Raw Counts  Counts/Second

  137.70        2950.00           1222          81.00       328.69
  137.77        2950.25           1226          84.00       341.76
  137.80        2950.50           1229          86.00       350.48
  137.83        2950.75           1232          78.00       315.61
  137.86        2951.00           1236          79.00       319.97
  137.89        2951.25           1239          75.00       302.53
  137.92        2951.50           1242          81.00       328.69
  137.95        2951.75           1246          71.00       285.09
  137.98        2952.00           1249          78.00       315.61
  138.01        2952.25           1252          79.00       319.97
  138.04        2952.50           1256          76.00       306.89
  138.08        2952.75           1259          79.00       319.97
  138.11        2953.00           1262          79.00       319.97
  138.14        2953.25           1266          90.00       367.92
  138.17        2953.50           1269          80.00       324.33
  138.20        2953.75           1272          74.00       298.17
  138.23        2954.00           1276          75.00       302.53
  138.26        2954.25           1279          77.00       311.25
  138.29        2954.50           1282          77.00       311.25
  138.32        2954.75           1286          75.00       302.53
  138.35        2955.00           1289          92.00       376.64
  138.38        2955.25           1292          78.00       315.61
  138.41        2955.50           1296          76.00       306.89
  138.44        2955.75           1299          82.00       333.05
  138.47        2956.00           1302          77.00       311.25
  138.51        2956.25           1306          74.00       298.17
  138.54        2956.50           1309          81.00       328.69
  138.57        2956.75           1312          82.00       333.05
  138.60        2957.00           1316          77.00       311.25
  138.63        2957.25           1319          64.00       254.58
  138.66        2957.50           1322          73.00       293.81
  138.69        2957.75           1326          86.00       350.48
  138.72        2958.00           1329          86.00       350.48
  138.75        2958.25           1332          72.00       289.45
  138.78        2958.50           1336          75.00       302.53
  138.81        2958.75           1339          78.00       315.61
  138.84        2959.00           1342          79.00       319.97
  138.88        2959.25           1346          76.00       306.89
  138.91        2959.50           1349          90.00       367.92
  138.94        2959.75           1352          96.00       394.08
  138.97        2960.00           1356         131.00       546.65
  139.00        2960.25           1359         146.00       612.04
  139.03        2960.50           1362         187.00       790.78
  139.06        2960.75           1366         260.00      1109.02
  139.09        2961.00           1369         319.00      1366.23
  139.12        2961.25           1372         362.00      1553.69
  139.15        2961.50           1376         446.00      1919.90
  139.18        2961.75           1379         675.00      2918.30
  139.22        2962.00           1382        1383.00      6005.44
  139.25        2962.25           1386        3360.00     14628.91
  139.28        2962.50           1389        5068.00     22082.63
  139.31        2962.75           1392        6797.00     29631.39
  139.34        2963.00           1396        9348.00     40775.22
  139.37        2963.25           1399       11204.00     48887.69
  139.40        2963.50           1402       13098.00     57170.34
  139.43        2963.75           1406       15528.00     67803.00
  139.46        2964.00           1409       17456.00     76243.94
  139.49        2964.25           1412       19284.00     84251.04
  139.53        2964.50           1416       21900.00     95716.47
  139.56        2964.75           1419       23453.00    102526.70
  139.59        2965.00           1422       25482.00    111428.50
  139.62        2965.25           1426       27832.00    121744.60
  139.65        2965.50           1429       29783.00    130314.10
  139.68        2965.75           1432       31489.00    137811.00
  139.71        2966.00           1436       34146.00    149493.70
  139.74        2966.25           1439       36161.00    158359.10
  139.78        2966.50           1442       37662.00    164966.10
  139.81        2966.75           1446       39210.00    171782.70
  139.84        2967.00           1449       39824.00    174487.30
  139.87        2967.25           1452       39640.00    173676.70
  139.90        2967.50           1456       39643.00    173690.00
  139.93        2967.75           1459       39793.00    174350.70
  139.96        2968.00           1462       39465.00    172905.90
  139.99        2968.25           1466       38206.00    167361.30
  140.03        2968.50           1469       36849.00    161387.20
  140.06        2968.75           1472       34895.00    152788.50
  140.09        2969.00           1476       32458.00    142070.70
  140.12        2969.25           1479       30704.00    134360.90
  140.15        2969.50           1482       28880.00    126347.20
  140.18        2969.75           1486       26231.00    114715.80
  140.21        2970.00           1489       24434.00    106830.10
  140.24        2970.25           1492       22846.00     99864.56
  140.27        2970.50           1496       20416.00     89211.42
  140.31        2970.75           1499       18733.00     81837.12
  140.34        2971.00           1502       17023.00     74347.86
  140.37        2971.25           1506       14606.00     63767.91
  140.40        2971.50           1509       12676.00     55324.53
  140.43        2971.75           1513       10126.00     44175.33
  140.46        2972.00           1516        8228.00     35881.68
  140.49        2972.25           1519        6422.00     27993.86
  140.52        2972.50           1523        4070.00     17726.95
  140.55        2972.75           1526        2426.00     10554.35
  140.59        2973.00           1529        1141.00      4950.17
  140.62        2973.25           1533         509.00      2194.56
  140.65        2973.50           1536         421.00      1810.91
  140.68        2973.75           1539         345.00      1479.58
  140.71        2974.00           1543         293.00      1252.88
  140.74        2974.25           1546         219.00       930.28
  140.77        2974.50           1549         181.00       764.62
  140.80        2974.75           1553         122.00       507.42
  140.83        2975.00           1556         108.00       446.39
  140.86        2975.25           1559          89.00       363.56
  140.89        2975.50           1563          79.00       319.97
  140.92        2975.75           1566          77.00       311.25
  140.96        2976.00           1569          67.00       267.66
  140.99        2976.25           1573          77.00       311.25
  141.02        2976.50           1576          74.00       298.17
  141.05        2976.75           1579          70.00       280.73
  141.08        2977.00           1583          82.00       333.05
  141.11        2977.25           1586          80.00       324.33
  141.14        2977.50           1590          81.00       328.69
  141.17        2977.75           1593          70.00       280.73
  141.20        2978.00           1596          83.00       337.41
  141.23        2978.25           1600          74.00       298.17
  141.26        2978.50           1603          75.00       302.53
  141.29        2978.75           1606          74.00       298.17
  141.32        2979.00           1610          73.00       293.81
  141.36        2979.25           1613          71.00       285.09
  141.39        2979.50           1616          77.00       311.25
  141.42        2979.75           1620          66.00       263.30
  141.45        2980.00           1623          77.00       311.25
  141.48        2980.25           1626          73.00       293.81
  141.51        2980.50           1630          67.00       267.66
  141.54        2980.75           1633          67.00       267.66
  141.57        2981.00           1637          71.00       285.09
  141.60        2981.25           1640          65.00       258.94
  141.63        2981.50           1643          63.00       250.22
  141.66        2981.75           1647          68.00       272.02
  141.69        2982.00           1650          72.00       289.45
  141.73        2982.25           1653          72.00       289.45
  141.76        2982.50           1657          68.00       272.02
  141.79        2982.75           1660          70.00       280.73
  141.82        2983.00           1663          68.00       272.02
  141.85        2983.25           1667          66.00       263.30
  141.88        2983.50           1670          67.00       267.66
  141.91        2983.75           1673          65.00       258.94
  141.94        2984.00           1677          70.00       280.73
HS scan finished at 02:22:09
end
************************************************************
  HS Scan of (1) Internal mercury lamp
************************************************************
Integration time is 0.2294 seconds per sample
dh230817Manchester 53.47 2.23 2.911481pr1000
************************************************************
Dead Time -------------------------  3E-08 
Number of Cycles Used -------------  4 
Starting Wavelength (Angstroms) ---  2950 
Final Wavelength (Angstoms) -------  2984 
Wavelength Increment (Angstroms) --  .25 
Filter Wheel #1 Position ---------- (1) Ground quartz diffuser (ND=2.32)
Filter Wheel #2 Position ---------- (1) Neutral Density 0.494



************************************************************
HS scan start time = 20:12:05
Dark Count =  7.6 


Time (GMT)  Wavelength (Ang)  Step Number  Raw Counts  Counts/Second

 1212.45        2950.00           1222          90.00       359.20
 1212.52        2950.25           1226          77.00       302.53
 1212.55        2950.50           1229          82.00       324.33
 1212.58        2950.75           1232          76.00       298.17
 1212.61        2951.00           1236          82.00       324.33
 1212.64        2951.25           1239          75.00       293.81
 1212.67        2951.50           1242          86.00       341.76
 1212.70        2951.75           1246          84.00       333.05
 1212.73        2952.00           1249          78.00       306.89
 1212.76        2952.25           1252          85.00       337.41
 1212.79        2952.50           1256          76.00       298.17
 1212.82        2952.75           1259          81.00       319.97
 1212.85        2953.00           1262          74.00       289.45
 1212.88        2953.25           1266          77.00       302.53
 1212.92        2953.50           1269          84.00       333.05
 1212.95        2953.75           1272          76.00       298.17
 1212.98        2954.00           1276          81.00       319.97
 1213.01        2954.25           1279          86.00       341.76
 1213.04        2954.50           1282          81.00       319.97
 1213.07        2954.75           1286          71.00       276.38
 1213.10        2955.00           1289          79.00       311.25
 1213.13        2955.25           1292          80.00       315.61
 1213.16        2955.50           1296          77.00       302.53
 1213.19        2955.75           1299          74.00       289.45
 1213.22        2956.00           1302          77.00       302.53
 1213.26        2956.25           1306          75.00       293.81
 1213.29        2956.50           1309          83.00       328.69
 1213.32        2956.75           1312          85.00       337.41
 1213.35        2957.00           1316          80.00       315.61
 1213.38        2957.25           1319          79.00       311.25
 1213.41        2957.50           1322          87.00       346.12
 1213.44        2957.75           1326          88.00       350.48
 1213.47        2958.00           1329          90.00       359.20
 1213.50        2958.25           1332          78.00       306.89
 1213.53        2958.50           1336          79.00       311.25
 1213.56        2958.75           1339          80.00       315.61
 1213.60        2959.00           1342          85.00       337.41
 1213.63        2959.25           1346          82.00       324.33
 1213.66        2959.50           1349          87.00       346.12
 1213.69        2959.75           1352         123.00       503.06
 1213.72        2960.00           1356         150.00       620.76
 1213.75        2960.25           1359         180.00       751.54
 1213.78        2960.50           1362         233.00       982.59
 1213.81        2960.75           1366         280.00      1187.49
 1213.84        2961.00           1369         298.00      1265.96
 1213.87        2961.25           1372         385.00      1645.24
 1213.90        2961.50           1376         474.00      2033.25
 1213.93        2961.75           1379         666.00      2870.34
 1213.97        2962.00           1382        1498.00      6498.22
 1214.00        2962.25           1386        3533.00     15375.01
 1214.03        2962.50           1389        5127.00     22331.44
 1214.06        2962.75           1392        6802.00     29644.49
 1214.09        2963.00           1396        8861.00     38638.49
 1214.12        2963.25           1399       10517.00     45875.65
 1214.15        2963.50           1402       12236.00     53391.47
 1214.18        2963.75           1406       14603.00     63746.04
 1214.21        2964.00           1409       15969.00     69724.60
 1214.24        2964.25           1412       17776.00     77636.60
 1214.27        2964.50           1416       20067.00     87673.19
 1214.30        2964.75           1419       21860.00     95532.34
 1214.33        2965.00           1422       23582.00    103083.80
 1214.37        2965.25           1426       25979.00    113601.00
 1214.40        2965.50           1429       27938.00    122201.30
 1214.43        2965.75           1432       29390.00    128578.70
 1214.46        2966.00           1436       31636.00    138448.30
 1214.49        2966.25           1439       33317.00    145838.90
 1214.52        2966.50           1442       34726.00    152036.30
 1214.55        2966.75           1446       36310.00    159006.00
 1214.58        2967.00           1449       36468.00    159701.40
 1214.61        2967.25           1452       36771.00    161035.00
 1214.64        2967.50           1456       36669.00    160586.10
 1214.67        2967.75           1459       36395.00    159380.10
 1214.71        2968.00           1462       36421.00    159494.60
 1214.74        2968.25           1466       35255.00    154363.60
 1214.77        2968.50           1469       33649.00    147299.00
 1214.80        2968.75           1472       31963.00    139885.70
 1214.83        2969.00           1476       29759.00    130199.80
 1214.86        2969.25           1479       28315.00    123856.90
 1214.89        2969.50           1482       26543.00    116076.60
 1214.92        2969.75           1486       24377.00    106571.20
 1214.95        2970.00           1489       22699.00     99211.14
 1214.98        2970.25           1492       21042.00     91946.39
 1215.02        2970.50           1496       19062.00     83269.66
 1215.05        2970.75           1499       17108.00     74711.30
 1215.08        2971.00           1502       15396.00     67216.50
 1215.11        2971.25           1506       13143.00     57358.43
 1215.14        2971.50           1509       11346.00     49499.78
 1215.17        2971.75           1513        9118.00     39761.44
 1215.20        2972.00           1516        7381.00     32173.15
 1215.23        2972.25           1519        5704.00     24850.26
 1215.26        2972.50           1523        3537.00     15392.46
 1215.29        2972.75           1526        2050.00      8905.60
 1215.32        2973.00           1529         972.00      4204.54
 1215.36        2973.25           1533         475.00      2037.61
 1215.39        2973.50           1536         386.00      1649.60
 1215.42        2973.75           1539         326.00      1388.03
 1215.45        2974.00           1543         264.00      1117.74
 1215.48        2974.25           1546         192.00       803.86
 1215.51        2974.50           1549         152.00       629.48
 1215.54        2974.75           1553         112.00       455.11
 1215.57        2975.00           1556          91.00       363.56
 1215.60        2975.25           1559          90.00       359.20
 1215.63        2975.50           1563          82.00       324.33
 1215.66        2975.75           1566          75.00       293.81
 1215.69        2976.00           1569          77.00       302.53
 1215.73        2976.25           1573          75.00       293.81
 1215.76        2976.50           1576          75.00       293.81
 1215.79        2976.75           1579          78.00       306.89
 1215.82        2977.00           1583          69.00       267.66
 1215.85        2977.25           1586          73.00       285.09
 1215.88        2977.50           1590          78.00       306.89
 1215.91        2977.75           1593          79.00       311.25
 1215.94        2978.00           1596          74.00       289.45
 1215.97        2978.25           1600          73.00       285.09
 1216.00        2978.50           1603          69.00       267.66
 1216.03        2978.75           1606          72.00       280.73
 1216.06        2979.00           1610          77.00       302.53
 1216.09        2979.25           1613          74.00       289.45
 1216.13        2979.50           1616          76.00       298.17
 1216.16        2979.75           1620          72.00       280.73
 1216.19        2980.00           1623          77.00       302.53
 1216.22        2980.25           1626          81.00       319.97
 1216.25        2980.50           1630          75.00       293.81
 1216.28        2980.75           1633          71.00       276.38
 1216.31        2981.00           1637          72.00       280.73
 1216.34        2981.25           1640          77.00       302.53
 1216.37        2981.50           1643          68.00       263.30
 1216.40        2981.75           1647          79.00       311.25
 1216.44        2982.00           1650          75.00       293.81
 1216.47        2982.25           1653          72.00       280.73
 1216.50        2982.50           1657          68.00       263.30
 1216.53        2982.75           1660          72.00       280.73
 1216.56        2983.00           1663          65.00       250.22
 1216.59        2983.25           1667          63.00       241.50
 1216.62        2983.50           1670          59.00       224.06
 1216.65        2983.75           1673          70.00       272.02
 1216.68        2984.00           1677          67.00       258.94
HS scan finished at 20:16:54
end
