************************************************************
  HS Scan of (1) Internal mercury lamp
************************************************************
Integration time is 0.2294 seconds per sample
dh240817Manchester 53.47 2.23 2.804185pr1000
************************************************************
Dead Time -------------------------  3E-08 
Number of Cycles Used -------------  4 
Starting Wavelength (Angstroms) ---  2950 
Final Wavelength (Angstoms) -------  2984 
Wavelength Increment (Angstroms) --  .25 
Filter Wheel #1 Position ---------- (1) Ground quartz diffuser (ND=2.32)
Filter Wheel #2 Position ---------- (1) Neutral Density 0.494



************************************************************
HS scan start time = 01:36:16
Dark Count =  7.8 


Time (GMT)  Wavelength (Ang)  Step Number  Raw Counts  Counts/Second

   96.64        2950.00           1222          91.00       362.69
   96.71        2950.25           1226          88.00       349.61
   96.74        2950.50           1229          88.00       349.61
   96.77        2950.75           1232          79.00       310.38
   96.80        2951.00           1236          80.00       314.74
   96.83        2951.25           1239          82.00       323.46
   96.86        2951.50           1242          81.00       319.10
   96.89        2951.75           1246          69.00       266.79
   96.93        2952.00           1249          76.00       297.30
   96.96        2952.25           1252          81.00       319.10
   96.99        2952.50           1256          80.00       314.74
   97.02        2952.75           1259          76.00       297.30
   97.05        2953.00           1262          77.00       301.66
   97.08        2953.25           1266          76.00       297.30
   97.11        2953.50           1269          78.00       306.02
   97.14        2953.75           1272          88.00       349.61
   97.17        2954.00           1276          73.00       284.22
   97.20        2954.25           1279          72.00       279.86
   97.23        2954.50           1282          84.00       332.17
   97.26        2954.75           1286          77.00       301.66
   97.29        2955.00           1289          81.00       319.10
   97.33        2955.25           1292          88.00       349.61
   97.36        2955.50           1296          74.00       288.58
   97.39        2955.75           1299          78.00       306.02
   97.42        2956.00           1302          78.00       306.02
   97.45        2956.25           1306          81.00       319.10
   97.48        2956.50           1309          79.00       310.38
   97.51        2956.75           1312          76.00       297.30
   97.54        2957.00           1316          77.00       301.66
   97.57        2957.25           1319          78.00       306.02
   97.60        2957.50           1322          83.00       327.81
   97.63        2957.75           1326          81.00       319.10
   97.66        2958.00           1329          84.00       332.17
   97.70        2958.25           1332          74.00       288.58
   97.73        2958.50           1336          81.00       319.10
   97.76        2958.75           1339          80.00       314.74
   97.79        2959.00           1342          74.00       288.58
   97.82        2959.25           1346          82.00       323.46
   97.85        2959.50           1349          92.00       367.05
   97.88        2959.75           1352         106.00       428.08
   97.91        2960.00           1356         151.00       624.25
   97.94        2960.25           1359         183.00       763.75
   97.97        2960.50           1362         229.00       964.28
   98.00        2960.75           1366         287.00      1217.13
   98.03        2961.00           1369         309.00      1313.04
   98.07        2961.25           1372         356.00      1517.94
   98.10        2961.50           1376         451.00      1932.11
   98.13        2961.75           1379         592.00      2546.84
   98.16        2962.00           1382        1237.00      5359.19
   98.19        2962.25           1386        2929.00     12738.96
   98.22        2962.50           1389        4570.00     19899.41
   98.25        2962.75           1392        6175.00     26905.76
   98.28        2963.00           1396        8024.00     34980.90
   98.31        2963.25           1399        9778.00     42644.76
   98.34        2963.50           1402       11437.00     49896.78
   98.37        2963.75           1406       13554.00     59155.46
   98.40        2964.00           1409       15272.00     66672.90
   98.44        2964.25           1412       16993.00     74206.86
   98.47        2964.50           1416       19259.00     84131.86
   98.50        2964.75           1419       20824.00     90989.98
   98.53        2965.00           1422       22380.00     97811.43
   98.56        2965.25           1426       24674.00    107873.40
   98.59        2965.50           1429       26425.00    115557.70
   98.62        2965.75           1432       28015.00    122538.60
   98.65        2966.00           1436       30138.00    131864.10
   98.69        2966.25           1439       31537.00    138012.30
   98.72        2966.50           1442       32983.00    144369.40
   98.75        2966.75           1446       34731.00    152057.40
   98.78        2967.00           1449       35091.00    153641.10
   98.81        2967.25           1452       35017.00    153315.60
   98.84        2967.50           1456       35187.00    154063.50
   98.87        2967.75           1459       35000.00    153240.80
   98.90        2968.00           1462       34794.00    152334.50
   98.93        2968.25           1466       33719.00    147606.00
   98.96        2968.50           1469       32143.00    140676.10
   99.00        2968.75           1472       30744.00    134527.00
   99.03        2969.00           1476       28627.00    125226.30
   99.06        2969.25           1479       26919.00    117726.30
   99.09        2969.50           1482       25342.00    110804.50
   99.12        2969.75           1486       23356.00    102091.60
   99.15        2970.00           1489       21637.00     94553.80
   99.18        2970.25           1492       20267.00     88548.78
   99.21        2970.50           1496       18106.00     79081.03
   99.24        2970.75           1499       16355.00     71413.52
   99.27        2971.00           1502       14741.00     64349.05
   99.31        2971.25           1506       12407.00     54138.43
   99.34        2971.50           1509       10726.00     46788.39
   99.37        2971.75           1513        8773.00     38253.11
   99.40        2972.00           1516        7250.00     31600.13
   99.43        2972.25           1519        5685.00     24766.43
   99.46        2972.50           1523        3721.00     16194.44
   99.49        2972.75           1526        2196.00      9541.53
   99.52        2973.00           1529         980.00      4238.55
   99.55        2973.25           1533         459.00      1966.99
   99.58        2973.50           1536         349.00      1487.42
   99.61        2973.75           1539         289.00      1225.85
   99.64        2974.00           1543         246.00      1038.39
   99.68        2974.25           1546         195.00       816.06
   99.71        2974.50           1549         155.00       641.69
   99.74        2974.75           1553         102.00       410.64
   99.77        2975.00           1556          89.00       353.97
   99.80        2975.25           1559          77.00       301.66
   99.83        2975.50           1563          85.00       336.53
   99.86        2975.75           1566          75.00       292.94
   99.89        2976.00           1569          75.00       292.94
   99.92        2976.25           1573          87.00       345.25
   99.95        2976.50           1576          77.00       301.66
   99.98        2976.75           1579          71.00       275.50
  100.01        2977.00           1583          73.00       284.22
  100.04        2977.25           1586          74.00       288.58
  100.08        2977.50           1590          70.00       271.14
  100.11        2977.75           1593          73.00       284.22
  100.14        2978.00           1596          77.00       301.66
  100.17        2978.25           1600          74.00       288.58
  100.20        2978.50           1603          80.00       314.74
  100.23        2978.75           1606          66.00       253.71
  100.26        2979.00           1610          66.00       253.71
  100.29        2979.25           1613          74.00       288.58
  100.32        2979.50           1616          75.00       292.94
  100.35        2979.75           1620          69.00       266.79
  100.39        2980.00           1623          72.00       279.86
  100.42        2980.25           1626          73.00       284.22
  100.45        2980.50           1630          71.00       275.50
  100.48        2980.75           1633          69.00       266.79
  100.51        2981.00           1637          73.00       284.22
  100.54        2981.25           1640          73.00       284.22
  100.57        2981.50           1643          68.00       262.43
  100.60        2981.75           1647          70.00       271.14
  100.63        2982.00           1650          70.00       271.14
  100.66        2982.25           1653          70.00       271.14
  100.69        2982.50           1657          74.00       288.58
  100.72        2982.75           1660          70.00       271.14
  100.75        2983.00           1663          66.00       253.71
  100.79        2983.25           1667          73.00       284.22
  100.82        2983.50           1670          78.00       306.02
  100.85        2983.75           1673          81.00       319.10
  100.88        2984.00           1677          68.00       262.43
HS scan finished at 01:41:06
end
************************************************************
  HS Scan of (1) Internal mercury lamp
************************************************************
Integration time is 0.2294 seconds per sample
dh240817Manchester 53.47 2.23 2.911481pr1000
************************************************************
Dead Time -------------------------  3E-08 
Number of Cycles Used -------------  4 
Starting Wavelength (Angstroms) ---  2950 
Final Wavelength (Angstoms) -------  2984 
Wavelength Increment (Angstroms) --  .25 
Filter Wheel #1 Position ---------- (1) Ground quartz diffuser (ND=2.32)
Filter Wheel #2 Position ---------- (1) Neutral Density 0.494



************************************************************
HS scan start time = 20:11:59
Dark Count =  5.8 


Time (GMT)  Wavelength (Ang)  Step Number  Raw Counts  Counts/Second

 1212.35        2950.00           1222          86.00       349.61
 1212.42        2950.25           1226          84.00       340.89
 1212.45        2950.50           1229          74.00       297.30
 1212.48        2950.75           1232          86.00       349.61
 1212.51        2951.00           1236          83.00       336.53
 1212.54        2951.25           1239          77.00       310.38
 1212.57        2951.50           1242          79.00       319.10
 1212.60        2951.75           1246          87.00       353.97
 1212.63        2952.00           1249          92.00       375.77
 1212.66        2952.25           1252          81.00       327.81
 1212.69        2952.50           1256          81.00       327.81
 1212.73        2952.75           1259          79.00       319.10
 1212.76        2953.00           1262          76.00       306.02
 1212.79        2953.25           1266          80.00       323.46
 1212.82        2953.50           1269          75.00       301.66
 1212.85        2953.75           1272          79.00       319.10
 1212.88        2954.00           1276          77.00       310.38
 1212.91        2954.25           1279          81.00       327.81
 1212.94        2954.50           1282          82.00       332.17
 1212.97        2954.75           1286          82.00       332.17
 1213.00        2955.00           1289          77.00       310.38
 1213.03        2955.25           1292          94.00       384.49
 1213.07        2955.50           1296          87.00       353.97
 1213.10        2955.75           1299          79.00       319.10
 1213.13        2956.00           1302          88.00       358.33
 1213.16        2956.25           1306          81.00       327.81
 1213.19        2956.50           1309          86.00       349.61
 1213.22        2956.75           1312          79.00       319.10
 1213.25        2957.00           1316          76.00       306.02
 1213.28        2957.25           1319          88.00       358.33
 1213.31        2957.50           1322          76.00       306.02
 1213.34        2957.75           1326          80.00       323.46
 1213.37        2958.00           1329          81.00       327.81
 1213.40        2958.25           1332          83.00       336.53
 1213.44        2958.50           1336          79.00       319.10
 1213.47        2958.75           1339          79.00       319.10
 1213.50        2959.00           1342          82.00       332.17
 1213.53        2959.25           1346          81.00       327.81
 1213.56        2959.50           1349          92.00       375.77
 1213.59        2959.75           1352         113.00       467.31
 1213.62        2960.00           1356         134.00       558.86
 1213.65        2960.25           1359         178.00       750.67
 1213.68        2960.50           1362         229.00       973.00
 1213.71        2960.75           1366         276.00      1177.90
 1213.74        2961.00           1369         313.00      1339.20
 1213.78        2961.25           1372         343.00      1469.99
 1213.81        2961.50           1376         468.00      2014.94
 1213.84        2961.75           1379         714.00      3087.47
 1213.87        2962.00           1382        1570.00      6820.05
 1213.90        2962.25           1386        3545.00     15435.22
 1213.93        2962.50           1389        5089.00     22173.42
 1213.96        2962.75           1392        6608.00     28805.18
 1213.99        2963.00           1396        8781.00     38296.81
 1214.02        2963.25           1399       10529.00     45935.98
 1214.05        2963.50           1402       12253.00     53473.69
 1214.09        2963.75           1406       14533.00     63447.60
 1214.12        2964.00           1409       16274.00     71067.66
 1214.15        2964.25           1412       17857.00     77999.22
 1214.18        2964.50           1416       20281.00     88618.89
 1214.21        2964.75           1419       22116.00     96662.63
 1214.24        2965.00           1422       23709.00    103648.70
 1214.27        2965.25           1426       26269.00    114881.70
 1214.30        2965.50           1429       27750.00    121383.70
 1214.33        2965.75           1432       29492.00    129034.70
 1214.36        2966.00           1436       31734.00    138887.00
 1214.39        2966.25           1439       33216.00    145402.70
 1214.43        2966.50           1442       34887.00    152752.50
 1214.46        2966.75           1446       36179.00    158437.40
 1214.49        2967.00           1449       36354.00    159207.60
 1214.52        2967.25           1452       36594.00    160263.90
 1214.55        2967.50           1456       36354.00    159207.60
 1214.58        2967.75           1459       36329.00    159097.60
 1214.61        2968.00           1462       36166.00    158380.20
 1214.64        2968.25           1466       34608.00    151525.10
 1214.67        2968.50           1469       33039.00    144624.40
 1214.70        2968.75           1472       31540.00    138034.20
 1214.73        2969.00           1476       29666.00    129799.10
 1214.76        2969.25           1479       27895.00    122020.40
 1214.80        2969.50           1482       26446.00    115658.70
 1214.83        2969.75           1486       23958.00    104741.00
 1214.86        2970.00           1489       22383.00     97833.36
 1214.89        2970.25           1492       20930.00     91463.34
 1214.92        2970.50           1496       18588.00     81201.06
 1214.95        2970.75           1499       16565.00     72341.66
 1214.98        2971.00           1502       15102.00     65937.63
 1215.01        2971.25           1506       12922.00     56399.62
 1215.04        2971.50           1509       11206.00     48895.57
 1215.08        2971.75           1513        8988.00     39201.26
 1215.11        2972.00           1516        7307.00     31857.81
 1215.14        2972.25           1519        5631.00     24539.42
 1215.17        2972.50           1523        3551.00     15461.40
 1215.20        2972.75           1526        2014.00      8756.44
 1215.23        2973.00           1529         860.00      3724.04
 1215.26        2973.25           1533         484.00      2084.70
 1215.29        2973.50           1536         354.00      1517.94
 1215.32        2973.75           1539         311.00      1330.48
 1215.36        2974.00           1543         261.00      1112.50
 1215.39        2974.25           1546         206.00       872.73
 1215.42        2974.50           1549         155.00       650.41
 1215.45        2974.75           1553         122.00       506.55
 1215.48        2975.00           1556          94.00       384.49
 1215.51        2975.25           1559          89.00       362.69
 1215.54        2975.50           1563          79.00       319.10
 1215.57        2975.75           1566          75.00       301.66
 1215.60        2976.00           1569          73.00       292.94
 1215.63        2976.25           1573          74.00       297.30
 1215.66        2976.50           1576          70.00       279.86
 1215.69        2976.75           1579          72.00       288.58
 1215.72        2977.00           1583          75.00       301.66
 1215.76        2977.25           1586          84.00       340.89
 1215.79        2977.50           1590          70.00       279.86
 1215.82        2977.75           1593          78.00       314.74
 1215.85        2978.00           1596          77.00       310.38
 1215.88        2978.25           1600          82.00       332.17
 1215.91        2978.50           1603          64.00       253.71
 1215.94        2978.75           1606          76.00       306.02
 1215.97        2979.00           1610          75.00       301.66
 1216.00        2979.25           1613          74.00       297.30
 1216.03        2979.50           1616          72.00       288.58
 1216.07        2979.75           1620          80.00       323.46
 1216.10        2980.00           1623          82.00       332.17
 1216.13        2980.25           1626          76.00       306.02
 1216.16        2980.50           1630          74.00       297.30
 1216.19        2980.75           1633          60.00       236.27
 1216.22        2981.00           1637          76.00       306.02
 1216.25        2981.25           1640          84.00       340.89
 1216.28        2981.50           1643          70.00       279.86
 1216.31        2981.75           1647          68.00       271.14
 1216.34        2982.00           1650          72.00       288.58
 1216.37        2982.25           1653          73.00       292.94
 1216.40        2982.50           1657          72.00       288.58
 1216.44        2982.75           1660          68.00       271.14
 1216.47        2983.00           1663          68.00       271.14
 1216.50        2983.25           1667          66.00       262.43
 1216.53        2983.50           1670          77.00       310.38
 1216.56        2983.75           1673          73.00       292.94
 1216.59        2984.00           1677          71.00       284.22
HS scan finished at 20:16:48
end
