************************************************************
  HS Scan of (1) Internal mercury lamp
************************************************************
Integration time is 0.2294 seconds per sample
dh200818Manchester 53.47 2.23 2.965129pr1000
************************************************************
Dead Time -------------------------  3E-08 
Number of Cycles Used -------------  4 
Starting Wavelength (Angstroms) ---  2950 
Final Wavelength (Angstoms) -------  2984 
Wavelength Increment (Angstroms) --  .25 
Filter Wheel #1 Position ---------- (1) Ground quartz diffuser (ND=2.32)
Filter Wheel #2 Position ---------- (1) Neutral Density 0.494



************************************************************
HS scan start time = 01:39:13
Dark Count =  7 


Time (GMT)  Wavelength (Ang)  Step Number  Raw Counts  Counts/Second

   99.59        2950.00           1222          52.00       196.17
   99.66        2950.25           1226          52.00       196.17
   99.69        2950.50           1229          52.00       196.17
   99.72        2950.75           1232          49.00       183.09
   99.75        2951.00           1236          60.00       231.04
   99.78        2951.25           1239          58.00       222.32
   99.81        2951.50           1242          56.00       213.60
   99.84        2951.75           1246          52.00       196.17
   99.87        2952.00           1249          57.00       217.96
   99.90        2952.25           1252          51.00       191.81
   99.93        2952.50           1256          51.00       191.81
   99.96        2952.75           1259          47.00       174.37
  100.00        2953.00           1262          52.00       196.17
  100.03        2953.25           1266          57.00       217.96
  100.06        2953.50           1269          53.00       200.52
  100.09        2953.75           1272          57.00       217.96
  100.12        2954.00           1276          50.00       187.45
  100.15        2954.25           1279          52.00       196.17
  100.18        2954.50           1282          58.00       222.32
  100.21        2954.75           1286          52.00       196.17
  100.24        2955.00           1289          65.00       252.84
  100.27        2955.25           1292          56.00       213.60
  100.30        2955.50           1296          52.00       196.17
  100.33        2955.75           1299          51.00       191.81
  100.37        2956.00           1302          57.00       217.96
  100.40        2956.25           1306          50.00       187.45
  100.43        2956.50           1309          60.00       231.04
  100.46        2956.75           1312          50.00       187.45
  100.49        2957.00           1316          58.00       222.32
  100.52        2957.25           1319          49.00       183.09
  100.55        2957.50           1322          54.00       204.88
  100.58        2957.75           1326          53.00       200.52
  100.61        2958.00           1329          54.00       204.88
  100.64        2958.25           1332          48.00       178.73
  100.67        2958.50           1336          51.00       191.81
  100.70        2958.75           1339          49.00       183.09
  100.74        2959.00           1342          54.00       204.88
  100.77        2959.25           1346          51.00       191.81
  100.80        2959.50           1349          65.00       252.84
  100.83        2959.75           1352          70.00       274.63
  100.86        2960.00           1356         100.00       405.41
  100.89        2960.25           1359         126.00       518.75
  100.92        2960.50           1362         162.00       675.69
  100.95        2960.75           1366         202.00       850.07
  100.98        2961.00           1369         259.00      1098.55
  101.01        2961.25           1372         284.00      1207.54
  101.04        2961.50           1376         381.00      1630.42
  101.07        2961.75           1379         692.00      2986.32
  101.11        2962.00           1382        1579.00      6854.07
  101.14        2962.25           1386        3386.00     14736.24
  101.17        2962.50           1389        4871.00     21216.64
  101.20        2962.75           1392        6229.00     27145.03
  101.23        2963.00           1396        8012.00     34931.97
  101.26        2963.25           1399        9288.00     40506.92
  101.29        2963.50           1402       10749.00     46892.42
  101.32        2963.75           1406       12530.00     54679.87
  101.35        2964.00           1409       14098.00     61538.97
  101.38        2964.25           1412       15648.00     68322.11
  101.42        2964.50           1416       17415.00     76058.28
  101.45        2964.75           1419       18802.00     82133.25
  101.48        2965.00           1422       20255.00     88499.69
  101.51        2965.25           1426       22142.00     96771.39
  101.54        2965.50           1429       23702.00    103612.80
  101.57        2965.75           1432       25203.00    110198.10
  101.60        2966.00           1436       27140.00    118700.10
  101.63        2966.25           1439       28218.00    123433.60
  101.66        2966.50           1442       29383.00    128550.60
  101.69        2966.75           1446       30414.00    133080.40
  101.73        2967.00           1449       30581.00    133814.20
  101.76        2967.25           1452       30547.00    133664.80
  101.79        2967.50           1456       30649.00    134113.10
  101.82        2967.75           1459       30657.00    134148.20
  101.85        2968.00           1462       30214.00    132201.60
  101.88        2968.25           1466       28909.00    126468.50
  101.91        2968.50           1469       27549.00    120495.80
  101.94        2968.75           1472       26123.00    114235.60
  101.98        2969.00           1476       24450.00    106894.10
  102.01        2969.25           1479       22953.00    100327.70
  102.04        2969.50           1482       21593.00     94364.41
  102.07        2969.75           1486       19761.00     86334.92
  102.10        2970.00           1489       18403.00     80385.43
  102.13        2970.25           1492       17064.00     74521.26
  102.16        2970.50           1496       15113.00     65980.53
  102.19        2970.75           1499       13589.00     59312.08
  102.22        2971.00           1502       12258.00     53490.30
  102.26        2971.25           1506       10442.00     45550.44
  102.29        2971.50           1509        8868.00     38671.70
  102.32        2971.75           1513        7075.00     30839.33
  102.35        2972.00           1516        5702.00     24844.15
  102.38        2972.25           1519        4209.00     18327.42
  102.41        2972.50           1523        2348.00     10208.01
  102.44        2972.75           1526        1115.00      4830.69
  102.47        2973.00           1529         534.00      2297.46
  102.50        2973.25           1533         351.00      1499.63
  102.53        2973.50           1536         289.00      1229.34
  102.56        2973.75           1539         255.00      1081.12
  102.59        2974.00           1543         204.00       858.78
  102.63        2974.25           1546         164.00       684.41
  102.66        2974.50           1549         109.00       444.64
  102.69        2974.75           1553          76.00       300.79
  102.72        2975.00           1556          63.00       244.12
  102.75        2975.25           1559          56.00       213.60
  102.78        2975.50           1563          53.00       200.52
  102.81        2975.75           1566          51.00       191.81
  102.84        2976.00           1569          75.00       296.43
  102.87        2976.25           1573          44.00       161.29
  102.90        2976.50           1576          48.00       178.73
  102.93        2976.75           1579          47.00       174.37
  102.96        2977.00           1583          48.00       178.73
  102.99        2977.25           1586          61.00       235.40
  103.02        2977.50           1590          49.00       183.09
  103.05        2977.75           1593          48.00       178.73
  103.09        2978.00           1596          44.00       161.29
  103.12        2978.25           1600          45.00       165.65
  103.15        2978.50           1603          53.00       200.52
  103.18        2978.75           1606          57.00       217.96
  103.21        2979.00           1610          52.00       196.17
  103.24        2979.25           1613          50.00       187.45
  103.27        2979.50           1616          48.00       178.73
  103.30        2979.75           1620          48.00       178.73
  103.33        2980.00           1623          48.00       178.73
  103.36        2980.25           1626          46.00       170.01
  103.39        2980.50           1630          56.00       213.60
  103.42        2980.75           1633          45.00       165.65
  103.45        2981.00           1637          51.00       191.81
  103.49        2981.25           1640          48.00       178.73
  103.52        2981.50           1643          60.00       231.04
  103.55        2981.75           1647          48.00       178.73
  103.58        2982.00           1650          53.00       200.52
  103.61        2982.25           1653          47.00       174.37
  103.64        2982.50           1657          51.00       191.81
  103.67        2982.75           1660          47.00       174.37
  103.70        2983.00           1663          46.00       170.01
  103.73        2983.25           1667          48.00       178.73
  103.76        2983.50           1670          41.00       148.21
  103.79        2983.75           1673          43.00       156.93
  103.83        2984.00           1677          51.00       191.81
HS scan finished at 01:44:02
end
************************************************************
  HS Scan of (1) Internal mercury lamp
************************************************************
Integration time is 0.2294 seconds per sample
dh200818Manchester 53.47 2.23 3.072425pr1000
************************************************************
Dead Time -------------------------  3E-08 
Number of Cycles Used -------------  4 
Starting Wavelength (Angstroms) ---  2950 
Final Wavelength (Angstoms) -------  2984 
Wavelength Increment (Angstroms) --  .25 
Filter Wheel #1 Position ---------- (1) Ground quartz diffuser (ND=2.32)
Filter Wheel #2 Position ---------- (1) Neutral Density 0.494



************************************************************
HS scan start time = 20:12:04
Dark Count =  8.5 


Time (GMT)  Wavelength (Ang)  Step Number  Raw Counts  Counts/Second

 1212.44        2950.00           1222          51.00       185.27
 1212.51        2950.25           1226          51.00       185.27
 1212.54        2950.50           1229          54.00       198.34
 1212.57        2950.75           1232          44.00       154.75
 1212.60        2951.00           1236          52.00       189.63
 1212.63        2951.25           1239          45.00       159.11
 1212.66        2951.50           1242          54.00       198.34
 1212.69        2951.75           1246          47.00       167.83
 1212.72        2952.00           1249          55.00       202.70
 1212.76        2952.25           1252          50.00       180.91
 1212.79        2952.50           1256          49.00       176.55
 1212.82        2952.75           1259          48.00       172.19
 1212.85        2953.00           1262          61.00       228.86
 1212.88        2953.25           1266          53.00       193.99
 1212.91        2953.50           1269          54.00       198.34
 1212.94        2953.75           1272          55.00       202.70
 1212.97        2954.00           1276          53.00       193.99
 1213.01        2954.25           1279          51.00       185.27
 1213.04        2954.50           1282          56.00       207.06
 1213.07        2954.75           1286          51.00       185.27
 1213.10        2955.00           1289          62.00       233.22
 1213.13        2955.25           1292          62.00       233.22
 1213.16        2955.50           1296          55.00       202.70
 1213.19        2955.75           1299          51.00       185.27
 1213.22        2956.00           1302          56.00       207.06
 1213.25        2956.25           1306          48.00       172.19
 1213.28        2956.50           1309          48.00       172.19
 1213.31        2956.75           1312          58.00       215.78
 1213.34        2957.00           1316          60.00       224.50
 1213.38        2957.25           1319          58.00       215.78
 1213.41        2957.50           1322          56.00       207.06
 1213.44        2957.75           1326          54.00       198.34
 1213.47        2958.00           1329          54.00       198.34
 1213.50        2958.25           1332          58.00       215.78
 1213.53        2958.50           1336          51.00       185.27
 1213.56        2958.75           1339          49.00       176.55
 1213.59        2959.00           1342          50.00       180.91
 1213.62        2959.25           1346          53.00       193.99
 1213.66        2959.50           1349          63.00       237.58
 1213.69        2959.75           1352          75.00       289.89
 1213.72        2960.00           1356         109.00       438.11
 1213.75        2960.25           1359         127.00       516.57
 1213.78        2960.50           1362         167.00       690.95
 1213.81        2960.75           1366         227.00       952.51
 1213.84        2961.00           1369         243.00      1022.26
 1213.87        2961.25           1372         305.00      1292.55
 1213.91        2961.50           1376         374.00      1593.36
 1213.94        2961.75           1379         527.00      2260.40
 1213.97        2962.00           1382        1173.00      5077.06
 1214.00        2962.25           1386        2823.00     12273.48
 1214.03        2962.50           1389        4198.00     18272.88
 1214.06        2962.75           1392        5735.00     24981.66
 1214.09        2963.00           1396        7658.00     33379.09
 1214.12        2963.25           1399        8979.00     39150.14
 1214.15        2963.50           1402       10435.00     45513.28
 1214.18        2963.75           1406       12422.00     54200.97
 1214.21        2964.00           1409       13792.00     60193.61
 1214.25        2964.25           1412       15292.00     66757.37
 1214.28        2964.50           1416       17275.00     75438.63
 1214.31        2964.75           1419       18764.00     81960.21
 1214.34        2965.00           1422       20310.00     88734.15
 1214.37        2965.25           1426       22253.00     97251.50
 1214.40        2965.50           1429       23703.00    103610.60
 1214.43        2965.75           1432       25114.00    109800.90
 1214.46        2966.00           1436       26799.00    117196.40
 1214.49        2966.25           1439       28173.00    123229.40
 1214.53        2966.50           1442       29394.00    128592.30
 1214.56        2966.75           1446       30887.00    135152.40
 1214.59        2967.00           1449       31136.00    136246.70
 1214.62        2967.25           1452       31266.00    136818.10
 1214.65        2967.50           1456       31288.00    136914.80
 1214.68        2967.75           1459       31190.00    136484.00
 1214.71        2968.00           1462       31238.00    136695.00
 1214.74        2968.25           1466       30120.00    131782.00
 1214.77        2968.50           1469       28915.00    126488.20
 1214.81        2968.75           1472       27406.00    119861.40
 1214.84        2969.00           1476       25691.00    112333.00
 1214.87        2969.25           1479       24409.00    106707.70
 1214.90        2969.50           1482       22691.00     99172.12
 1214.93        2969.75           1486       20963.00     91596.16
 1214.96        2970.00           1489       19682.00     85982.18
 1214.99        2970.25           1492       18208.00     79524.73
 1215.02        2970.50           1496       16080.00     70206.57
 1215.05        2970.75           1499       14722.00     64262.83
 1215.09        2971.00           1502       13196.00     57586.33
 1215.12        2971.25           1506       11213.00     48914.36
 1215.15        2971.50           1509        9782.00     42659.18
 1215.18        2971.75           1513        8037.00     35034.62
 1215.21        2972.00           1516        6642.00     28941.86
 1215.24        2972.25           1519        5176.00     22541.40
 1215.27        2972.50           1523        3208.00     13953.09
 1215.30        2972.75           1526        1926.00      8360.86
 1215.33        2973.00           1529         840.00      3625.07
 1215.37        2973.25           1533         357.00      1519.25
 1215.40        2973.50           1536         294.00      1244.60
 1215.43        2973.75           1539         244.00      1026.62
 1215.46        2974.00           1543         201.00       839.17
 1215.49        2974.25           1546         161.00       664.79
 1215.52        2974.50           1549         128.00       520.93
 1215.55        2974.75           1553          64.00       241.94
 1215.58        2975.00           1556          65.00       246.30
 1215.61        2975.25           1559          56.00       207.06
 1215.65        2975.50           1563          61.00       228.86
 1215.68        2975.75           1566          58.00       215.78
 1215.71        2976.00           1569          49.00       176.55
 1215.74        2976.25           1573          48.00       172.19
 1215.77        2976.50           1576          52.00       189.63
 1215.80        2976.75           1579          51.00       185.27
 1215.83        2977.00           1583          45.00       159.11
 1215.86        2977.25           1586          52.00       189.63
 1215.89        2977.50           1590          47.00       167.83
 1215.92        2977.75           1593          51.00       185.27
 1215.96        2978.00           1596          50.00       180.91
 1215.99        2978.25           1600          48.00       172.19
 1216.02        2978.50           1603          53.00       193.99
 1216.05        2978.75           1606          46.00       163.47
 1216.08        2979.00           1610          62.00       233.22
 1216.11        2979.25           1613          50.00       180.91
 1216.14        2979.50           1616          67.00       255.02
 1216.17        2979.75           1620          51.00       185.27
 1216.20        2980.00           1623          49.00       176.55
 1216.23        2980.25           1626          45.00       159.11
 1216.26        2980.50           1630          50.00       180.91
 1216.30        2980.75           1633          47.00       167.83
 1216.33        2981.00           1637          43.00       150.39
 1216.36        2981.25           1640          54.00       198.34
 1216.39        2981.50           1643          54.00       198.34
 1216.42        2981.75           1647          51.00       185.27
 1216.45        2982.00           1650          57.00       211.42
 1216.48        2982.25           1653          48.00       172.19
 1216.51        2982.50           1657          43.00       150.39
 1216.54        2982.75           1660          50.00       180.91
 1216.57        2983.00           1663          42.00       146.03
 1216.60        2983.25           1667          46.00       163.47
 1216.64        2983.50           1670          52.00       189.63
 1216.67        2983.75           1673          47.00       167.83
 1216.70        2984.00           1677          53.00       193.99
HS scan finished at 20:16:55
end
