************************************************************
  HS Scan of (1) Internal mercury lamp
************************************************************
Integration time is 0.2294 seconds per sample
dh260818Manchester 53.47 2.23 2.804185pr1000
************************************************************
Dead Time -------------------------  3E-08 
Number of Cycles Used -------------  4 
Starting Wavelength (Angstroms) ---  2950 
Final Wavelength (Angstoms) -------  2984 
Wavelength Increment (Angstroms) --  .25 
Filter Wheel #1 Position ---------- (1) Ground quartz diffuser (ND=2.32)
Filter Wheel #2 Position ---------- (1) Neutral Density 0.494



************************************************************
HS scan start time = 01:27:34
Dark Count =  7.9 


Time (GMT)  Wavelength (Ang)  Step Number  Raw Counts  Counts/Second

   87.94        2950.00           1222          52.00       192.24
   88.01        2950.25           1226          55.00       205.32
   88.04        2950.50           1229          55.00       205.32
   88.07        2950.75           1232          58.00       218.40
   88.10        2951.00           1236          52.00       192.24
   88.13        2951.25           1239          57.00       214.04
   88.16        2951.50           1242          63.00       240.19
   88.19        2951.75           1246          41.00       144.29
   88.22        2952.00           1249          47.00       170.45
   88.25        2952.25           1252          53.00       196.60
   88.28        2952.50           1256          55.00       205.32
   88.32        2952.75           1259          52.00       192.24
   88.35        2953.00           1262          53.00       196.60
   88.38        2953.25           1266          53.00       196.60
   88.41        2953.50           1269          50.00       183.52
   88.44        2953.75           1272          55.00       205.32
   88.47        2954.00           1276          47.00       170.45
   88.50        2954.25           1279          52.00       192.24
   88.53        2954.50           1282          53.00       196.60
   88.56        2954.75           1286          42.00       148.65
   88.59        2955.00           1289          54.00       200.96
   88.63        2955.25           1292          61.00       231.48
   88.66        2955.50           1296          58.00       218.40
   88.69        2955.75           1299          49.00       179.16
   88.72        2956.00           1302          54.00       200.96
   88.75        2956.25           1306          64.00       244.55
   88.78        2956.50           1309          42.00       148.65
   88.81        2956.75           1312          44.00       157.37
   88.84        2957.00           1316          57.00       214.04
   88.87        2957.25           1319          57.00       214.04
   88.90        2957.50           1322          53.00       196.60
   88.94        2957.75           1326          44.00       157.37
   88.97        2958.00           1329          48.00       174.80
   89.00        2958.25           1332          51.00       187.88
   89.03        2958.50           1336          50.00       183.52
   89.06        2958.75           1339          55.00       205.32
   89.09        2959.00           1342          48.00       174.80
   89.12        2959.25           1346          53.00       196.60
   89.15        2959.50           1349          68.00       261.99
   89.18        2959.75           1352          67.00       257.63
   89.21        2960.00           1356          84.00       331.74
   89.24        2960.25           1359         112.00       453.80
   89.27        2960.50           1362         129.00       527.91
   89.30        2960.75           1366         185.00       772.03
   89.34        2961.00           1369         224.00       942.05
   89.37        2961.25           1372         255.00      1077.19
   89.40        2961.50           1376         333.00      1417.24
   89.43        2961.75           1379         522.00      2241.21
   89.46        2962.00           1382        1168.00      5057.87
   89.49        2962.25           1386        2621.00     11394.92
   89.52        2962.50           1389        3882.00     16896.53
   89.55        2962.75           1392        5042.00     21959.10
   89.58        2963.00           1396        6738.00     29363.70
   89.61        2963.25           1399        7963.00     34713.99
   89.64        2963.50           1402        9199.00     40114.07
   89.67        2963.75           1406       10920.00     47636.03
   89.71        2964.00           1409       12293.00     53639.43
   89.74        2964.25           1412       13872.00     60546.24
   89.77        2964.50           1416       15588.00     68055.55
   89.80        2964.75           1419       16945.00     73996.25
   89.83        2965.00           1422       18174.00     79378.43
   89.86        2965.25           1426       20010.00     87422.09
   89.89        2965.50           1429       21206.00     92663.96
   89.92        2965.75           1432       22591.00     98736.24
   89.95        2966.00           1436       24232.00    105933.80
   89.98        2966.25           1439       25289.00    110571.50
   90.01        2966.50           1442       26492.00    115851.40
   90.04        2966.75           1446       27632.00    120856.30
   90.07        2967.00           1449       27893.00    122002.40
   90.11        2967.25           1452       27930.00    122164.90
   90.14        2967.50           1456       27856.00    121839.90
   90.17        2967.75           1459       27708.00    121190.00
   90.20        2968.00           1462       27612.00    120768.50
   90.23        2968.25           1466       26674.00    116650.30
   90.26        2968.50           1469       25573.00    111817.80
   90.29        2968.75           1472       24302.00    106240.90
   90.32        2969.00           1476       22689.00     99165.99
   90.35        2969.25           1479       21501.00     93957.14
   90.39        2969.50           1482       20238.00     88421.24
   90.42        2969.75           1486       18486.00     80745.06
   90.45        2970.00           1489       17154.00     74911.40
   90.48        2970.25           1492       16027.00     69977.18
   90.51        2970.50           1496       14360.00     62681.40
   90.54        2970.75           1499       13061.00     56998.43
   90.57        2971.00           1502       11645.00     50805.80
   90.60        2971.25           1506        9951.00     43400.41
   90.63        2971.50           1509        8619.00     37579.83
   90.67        2971.75           1513        7038.00     30673.81
   90.70        2972.00           1516        5749.00     25045.40
   90.73        2972.25           1519        4481.00     19510.55
   90.76        2972.50           1523        2827.00     12293.55
   90.79        2972.75           1526        1569.00      6806.53
   90.82        2973.00           1529         682.00      2938.79
   90.85        2973.25           1533         333.00      1417.24
   90.88        2973.50           1536         272.00      1151.30
   90.91        2973.75           1539         228.00       959.49
   90.94        2974.00           1543         203.00       850.50
   90.98        2974.25           1546         140.00       575.86
   91.01        2974.50           1549         113.00       458.16
   91.04        2974.75           1553          82.00       323.02
   91.07        2975.00           1556          63.00       240.19
   91.10        2975.25           1559          52.00       192.24
   91.13        2975.50           1563          50.00       183.52
   91.16        2975.75           1566          54.00       200.96
   91.19        2976.00           1569          54.00       200.96
   91.22        2976.25           1573          52.00       192.24
   91.25        2976.50           1576          47.00       170.45
   91.28        2976.75           1579          51.00       187.88
   91.31        2977.00           1583          53.00       196.60
   91.34        2977.25           1586          47.00       170.45
   91.38        2977.50           1590          46.00       166.09
   91.41        2977.75           1593          50.00       183.52
   91.44        2978.00           1596          48.00       174.80
   91.47        2978.25           1600          44.00       157.37
   91.50        2978.50           1603          43.00       153.01
   91.53        2978.75           1606          53.00       196.60
   91.56        2979.00           1610          54.00       200.96
   91.59        2979.25           1613          48.00       174.80
   91.62        2979.50           1616          44.00       157.37
   91.65        2979.75           1620          42.00       148.65
   91.68        2980.00           1623          45.00       161.73
   91.71        2980.25           1626          42.00       148.65
   91.74        2980.50           1630          45.00       161.73
   91.78        2980.75           1633          49.00       179.16
   91.81        2981.00           1637          45.00       161.73
   91.84        2981.25           1640          42.00       148.65
   91.87        2981.50           1643          44.00       157.37
   91.90        2981.75           1647          46.00       166.09
   91.93        2982.00           1650          47.00       170.45
   91.96        2982.25           1653          51.00       187.88
   91.99        2982.50           1657          48.00       174.80
   92.02        2982.75           1660          42.00       148.65
   92.05        2983.00           1663          50.00       183.52
   92.08        2983.25           1667          49.00       179.16
   92.12        2983.50           1670          44.00       157.37
   92.15        2983.75           1673          44.00       157.37
   92.18        2984.00           1677          44.00       157.37
HS scan finished at 01:32:24
end
************************************************************
  HS Scan of (1) Internal mercury lamp
************************************************************
Integration time is 0.2294 seconds per sample
dh260818Manchester 53.47 2.23 2.857833pr1000
************************************************************
Dead Time -------------------------  3E-08 
Number of Cycles Used -------------  4 
Starting Wavelength (Angstroms) ---  2950 
Final Wavelength (Angstoms) -------  2984 
Wavelength Increment (Angstroms) --  .25 
Filter Wheel #1 Position ---------- (1) Ground quartz diffuser (ND=2.32)
Filter Wheel #2 Position ---------- (1) Neutral Density 0.494



************************************************************
HS scan start time = 20:12:00
Dark Count =  5.7 


Time (GMT)  Wavelength (Ang)  Step Number  Raw Counts  Counts/Second

 1212.37        2950.00           1222          52.00       201.83
 1212.44        2950.25           1226          54.00       210.55
 1212.47        2950.50           1229          55.00       214.91
 1212.50        2950.75           1232          48.00       184.40
 1212.53        2951.00           1236          55.00       214.91
 1212.56        2951.25           1239          50.00       193.11
 1212.59        2951.50           1242          47.00       180.04
 1212.62        2951.75           1246          51.00       197.47
 1212.66        2952.00           1249          50.00       193.11
 1212.69        2952.25           1252          52.00       201.83
 1212.72        2952.50           1256          50.00       193.11
 1212.75        2952.75           1259          50.00       193.11
 1212.78        2953.00           1262          54.00       210.55
 1212.81        2953.25           1266          56.00       219.27
 1212.84        2953.50           1269          50.00       193.11
 1212.87        2953.75           1272          59.00       232.35
 1212.90        2954.00           1276          50.00       193.11
 1212.93        2954.25           1279          56.00       219.27
 1212.96        2954.50           1282          61.00       241.07
 1212.99        2954.75           1286          54.00       210.55
 1213.02        2955.00           1289          55.00       214.91
 1213.06        2955.25           1292          58.00       227.99
 1213.09        2955.50           1296          53.00       206.19
 1213.12        2955.75           1299          49.00       188.75
 1213.15        2956.00           1302          49.00       188.75
 1213.18        2956.25           1306          62.00       245.42
 1213.21        2956.50           1309          53.00       206.19
 1213.24        2956.75           1312          54.00       210.55
 1213.27        2957.00           1316          55.00       214.91
 1213.30        2957.25           1319          55.00       214.91
 1213.34        2957.50           1322          52.00       201.83
 1213.37        2957.75           1326          47.00       180.04
 1213.40        2958.00           1329          56.00       219.27
 1213.43        2958.25           1332          56.00       219.27
 1213.46        2958.50           1336          48.00       184.40
 1213.49        2958.75           1339          48.00       184.40
 1213.52        2959.00           1342          52.00       201.83
 1213.55        2959.25           1346          55.00       214.91
 1213.58        2959.50           1349          60.00       236.71
 1213.61        2959.75           1352          63.00       249.78
 1213.65        2960.00           1356          94.00       384.92
 1213.68        2960.25           1359         117.00       485.19
 1213.71        2960.50           1362         151.00       633.40
 1213.74        2960.75           1366         189.00       799.06
 1213.77        2961.00           1369         238.00      1012.67
 1213.80        2961.25           1372         249.00      1060.63
 1213.83        2961.50           1376         323.00      1383.23
 1213.86        2961.75           1379         398.00      1710.20
 1213.89        2962.00           1382         758.00      3279.75
 1213.92        2962.25           1386        2063.00      8970.59
 1213.96        2962.50           1389        3361.00     14632.84
 1213.99        2962.75           1392        4583.00     19965.31
 1214.02        2963.00           1396        6267.00     27316.62
 1214.05        2963.25           1399        7531.00     32836.61
 1214.08        2963.50           1402        8948.00     39026.92
 1214.11        2963.75           1406       10700.00     46683.91
 1214.14        2964.00           1409       12092.00     52770.05
 1214.17        2964.25           1412       13428.00     58613.44
 1214.20        2964.50           1416       15316.00     66874.66
 1214.23        2964.75           1419       16594.00     72469.06
 1214.26        2965.00           1422       17880.00     78100.40
 1214.30        2965.25           1426       19578.00     85538.75
 1214.33        2965.50           1429       21184.00     92577.16
 1214.36        2965.75           1432       22412.00     97960.97
 1214.39        2966.00           1436       24180.00    105715.30
 1214.42        2966.25           1439       25563.00    111783.60
 1214.45        2966.50           1442       26667.00    116629.30
 1214.48        2966.75           1446       28050.00    122701.50
 1214.51        2967.00           1449       28520.00    124765.60
 1214.54        2967.25           1452       28720.00    125644.00
 1214.58        2967.50           1456       28659.00    125376.10
 1214.61        2967.75           1459       28732.00    125696.70
 1214.64        2968.00           1462       28585.00    125051.10
 1214.67        2968.25           1466       27894.00    122016.50
 1214.70        2968.50           1469       26712.00    116826.80
 1214.73        2968.75           1472       25615.00    112011.80
 1214.76        2969.00           1476       24001.00    104930.10
 1214.79        2969.25           1479       22659.00     99044.08
 1214.82        2969.50           1482       21241.00     92827.02
 1214.85        2969.75           1486       19713.00     86130.28
 1214.89        2970.00           1489       18516.00     80886.11
 1214.92        2970.25           1492       17268.00     75420.25
 1214.95        2970.50           1496       15466.00     67531.18
 1214.98        2970.75           1499       14112.00     61605.91
 1215.01        2971.00           1502       12872.00     56181.36
 1215.04        2971.25           1506       11019.00     48078.46
 1215.07        2971.50           1509        9420.00     41089.42
 1215.10        2971.75           1513        7902.00     34457.14
 1215.13        2972.00           1516        6541.00     28513.05
 1215.17        2972.25           1519        5285.00     23029.42
 1215.20        2972.50           1523        3653.00     15906.89
 1215.23        2972.75           1526        2377.00     10340.17
 1215.26        2973.00           1529        1208.00      5241.89
 1215.29        2973.25           1533         435.00      1871.51
 1215.32        2973.50           1536         301.00      1287.32
 1215.35        2973.75           1539         248.00      1056.27
 1215.38        2974.00           1543         203.00       860.09
 1215.41        2974.25           1546         158.00       663.92
 1215.44        2974.50           1549         119.00       493.90
 1215.48        2974.75           1553          86.00       350.05
 1215.51        2975.00           1556          68.00       271.58
 1215.54        2975.25           1559          59.00       232.35
 1215.57        2975.50           1563          52.00       201.83
 1215.60        2975.75           1566          48.00       184.40
 1215.63        2976.00           1569          50.00       193.11
 1215.66        2976.25           1573          54.00       210.55
 1215.69        2976.50           1576          51.00       197.47
 1215.72        2976.75           1579          48.00       184.40
 1215.76        2977.00           1583          43.00       162.60
 1215.79        2977.25           1586          47.00       180.04
 1215.82        2977.50           1590          51.00       197.47
 1215.85        2977.75           1593          48.00       184.40
 1215.88        2978.00           1596          50.00       193.11
 1215.91        2978.25           1600          55.00       214.91
 1215.94        2978.50           1603          54.00       210.55
 1215.97        2978.75           1606          49.00       188.75
 1216.00        2979.00           1610          53.00       206.19
 1216.03        2979.25           1613          51.00       197.47
 1216.06        2979.50           1616          48.00       184.40
 1216.10        2979.75           1620          48.00       184.40
 1216.13        2980.00           1623          54.00       210.55
 1216.16        2980.25           1626          51.00       197.47
 1216.19        2980.50           1630          49.00       188.75
 1216.22        2980.75           1633          50.00       193.11
 1216.25        2981.00           1637          45.00       171.32
 1216.28        2981.25           1640          51.00       197.47
 1216.31        2981.50           1643          46.00       175.68
 1216.34        2981.75           1647          45.00       171.32
 1216.37        2982.00           1650          60.00       236.71
 1216.41        2982.25           1653          47.00       180.04
 1216.44        2982.50           1657          54.00       210.55
 1216.47        2982.75           1660          55.00       214.91
 1216.50        2983.00           1663          52.00       201.83
 1216.53        2983.25           1667          50.00       193.11
 1216.56        2983.50           1670          48.00       184.40
 1216.59        2983.75           1673          48.00       184.40
 1216.62        2984.00           1677          46.00       175.68
HS scan finished at 20:16:50
end
