************************************************************
  HS Scan of (1) Internal mercury lamp
************************************************************
Integration time is 0.2294 seconds per sample
dh230818Manchester 53.47 2.23 2.804185pr1000
************************************************************
Dead Time -------------------------  3E-08 
Number of Cycles Used -------------  4 
Starting Wavelength (Angstroms) ---  2950 
Final Wavelength (Angstoms) -------  2984 
Wavelength Increment (Angstroms) --  .25 
Filter Wheel #1 Position ---------- (1) Ground quartz diffuser (ND=2.32)
Filter Wheel #2 Position ---------- (1) Neutral Density 0.494



************************************************************
HS scan start time = 02:16:24
Dark Count =  6.4 


Time (GMT)  Wavelength (Ang)  Step Number  Raw Counts  Counts/Second

  136.77        2950.00           1222          48.00       181.34
  136.84        2950.25           1226          59.00       229.30
  136.87        2950.50           1229          53.00       203.14
  136.90        2950.75           1232          54.00       207.50
  136.93        2951.00           1236          74.00       294.68
  136.96        2951.25           1239          51.00       194.42
  136.99        2951.50           1242          49.00       185.70
  137.02        2951.75           1246          53.00       203.14
  137.05        2952.00           1249          54.00       207.50
  137.08        2952.25           1252          48.00       181.34
  137.12        2952.50           1256          48.00       181.34
  137.15        2952.75           1259          57.00       220.58
  137.18        2953.00           1262          54.00       207.50
  137.21        2953.25           1266          54.00       207.50
  137.24        2953.50           1269          55.00       211.86
  137.27        2953.75           1272          53.00       203.14
  137.30        2954.00           1276          55.00       211.86
  137.33        2954.25           1279          57.00       220.58
  137.36        2954.50           1282          47.00       176.98
  137.39        2954.75           1286          54.00       207.50
  137.43        2955.00           1289          49.00       185.70
  137.46        2955.25           1292          54.00       207.50
  137.49        2955.50           1296          52.00       198.78
  137.52        2955.75           1299          54.00       207.50
  137.55        2956.00           1302          52.00       198.78
  137.58        2956.25           1306          56.00       216.22
  137.61        2956.50           1309          52.00       198.78
  137.64        2956.75           1312          56.00       216.22
  137.67        2957.00           1316          55.00       211.86
  137.71        2957.25           1319          49.00       185.70
  137.74        2957.50           1322          59.00       229.30
  137.77        2957.75           1326          49.00       185.70
  137.80        2958.00           1329          56.00       216.22
  137.83        2958.25           1332          51.00       194.42
  137.86        2958.50           1336          49.00       185.70
  137.89        2958.75           1339          54.00       207.50
  137.92        2959.00           1342          48.00       181.34
  137.95        2959.25           1346          53.00       203.14
  137.98        2959.50           1349          56.00       216.22
  138.01        2959.75           1352          64.00       251.09
  138.05        2960.00           1356          95.00       386.23
  138.08        2960.25           1359         118.00       486.49
  138.11        2960.50           1362         142.00       591.12
  138.14        2960.75           1366         188.00       791.65
  138.17        2961.00           1369         212.00       896.28
  138.20        2961.25           1372         266.00      1131.69
  138.23        2961.50           1376         318.00      1358.38
  138.26        2961.75           1379         424.00      1820.50
  138.29        2962.00           1382         818.00      3538.30
  138.32        2962.25           1386        2121.00      9220.51
  138.35        2962.50           1389        3373.00     14682.14
  138.38        2962.75           1392        4600.00     20036.45
  138.41        2963.00           1396        6281.00     27374.70
  138.45        2963.25           1399        7658.00     33388.27
  138.48        2963.50           1402        8971.00     39124.36
  138.51        2963.75           1406       10790.00     47074.28
  138.54        2964.00           1409       12151.00     53025.00
  138.57        2964.25           1412       13406.00     58514.14
  138.60        2964.50           1416       15145.00     66123.20
  138.63        2964.75           1419       16613.00     72549.18
  138.66        2965.00           1422       17863.00     78022.87
  138.69        2965.25           1426       19469.00     85058.10
  138.73        2965.50           1429       20963.00     91605.37
  138.76        2965.75           1432       22237.00     97190.55
  138.79        2966.00           1436       23954.00    104720.80
  138.82        2966.25           1439       25089.00    109700.40
  138.85        2966.50           1442       26275.00    114905.50
  138.88        2966.75           1446       27837.00    121763.10
  138.91        2967.00           1449       28158.00    123172.70
  138.94        2967.25           1452       28192.00    123322.00
  138.97        2967.50           1456       28291.00    123756.80
  139.01        2967.75           1459       28194.00    123330.80
  139.04        2968.00           1462       27993.00    122448.10
  139.07        2968.25           1466       27536.00    120441.40
  139.10        2968.50           1469       26200.00    114576.20
  139.13        2968.75           1472       25041.00    109489.80
  139.16        2969.00           1476       23349.00    102067.10
  139.19        2969.25           1479       22007.00     96182.10
  139.22        2969.50           1482       20855.00     91131.98
  139.25        2969.75           1486       19041.00     83182.91
  139.29        2970.00           1489       17735.00     77462.28
  139.32        2970.25           1492       16532.00     72194.55
  139.35        2970.50           1496       14870.00     64919.69
  139.38        2970.75           1499       13591.00     59323.45
  139.41        2971.00           1502       12111.00     52850.08
  139.44        2971.25           1506       10305.00     44954.23
  139.47        2971.50           1509        9233.00     40269.19
  139.50        2971.75           1513        7676.00     33466.89
  139.53        2972.00           1516        6341.00     27636.68
  139.56        2972.25           1519        4978.00     21686.29
  139.59        2972.50           1523        3240.00     14101.87
  139.63        2972.75           1526        2020.00      8779.99
  139.66        2973.00           1529        1008.00      4366.74
  139.69        2973.25           1533         401.00      1720.23
  139.72        2973.50           1536         272.00      1157.84
  139.75        2973.75           1539         235.00       996.54
  139.78        2974.00           1543         187.00       787.29
  139.81        2974.25           1546         154.00       643.43
  139.84        2974.50           1549         126.00       521.37
  139.87        2974.75           1553          72.00       285.97
  139.90        2975.00           1556          70.00       277.25
  139.93        2975.25           1559          59.00       229.30
  139.96        2975.50           1563          49.00       185.70
  139.99        2975.75           1566          50.00       190.06
  140.03        2976.00           1569          47.00       176.98
  140.06        2976.25           1573          46.00       172.63
  140.09        2976.50           1576          59.00       229.30
  140.12        2976.75           1579          55.00       211.86
  140.15        2977.00           1583          55.00       211.86
  140.18        2977.25           1586          52.00       198.78
  140.21        2977.50           1590          49.00       185.70
  140.24        2977.75           1593          46.00       172.63
  140.27        2978.00           1596          54.00       207.50
  140.30        2978.25           1600          52.00       198.78
  140.33        2978.50           1603          52.00       198.78
  140.36        2978.75           1606          44.00       163.91
  140.40        2979.00           1610          53.00       203.14
  140.43        2979.25           1613          44.00       163.91
  140.46        2979.50           1616          55.00       211.86
  140.49        2979.75           1620          51.00       194.42
  140.52        2980.00           1623          47.00       176.98
  140.55        2980.25           1626          49.00       185.70
  140.58        2980.50           1630          48.00       181.34
  140.61        2980.75           1633          47.00       176.98
  140.64        2981.00           1637          45.00       168.27
  140.67        2981.25           1640          47.00       176.98
  140.70        2981.50           1643          43.00       159.55
  140.73        2981.75           1647          49.00       185.70
  140.76        2982.00           1650          51.00       194.42
  140.79        2982.25           1653          45.00       168.27
  140.82        2982.50           1657          45.00       168.27
  140.85        2982.75           1660          46.00       172.63
  140.88        2983.00           1663          49.00       185.70
  140.91        2983.25           1667          43.00       159.55
  140.95        2983.50           1670          42.00       155.19
  140.98        2983.75           1673          54.00       207.50
  141.01        2984.00           1677          45.00       168.27
HS scan finished at 02:21:13
end
************************************************************
  HS Scan of (1) Internal mercury lamp
************************************************************
Integration time is 0.2294 seconds per sample
dh230818Manchester 53.47 2.23 2.804185pr1000
************************************************************
Dead Time -------------------------  3E-08 
Number of Cycles Used -------------  4 
Starting Wavelength (Angstroms) ---  2950 
Final Wavelength (Angstoms) -------  2984 
Wavelength Increment (Angstroms) --  .25 
Filter Wheel #1 Position ---------- (1) Ground quartz diffuser (ND=2.32)
Filter Wheel #2 Position ---------- (1) Neutral Density 0.494



************************************************************
HS scan start time = 20:11:59
Dark Count =  5 


Time (GMT)  Wavelength (Ang)  Step Number  Raw Counts  Counts/Second

 1212.35        2950.00           1222          55.00       217.96
 1212.41        2950.25           1226          54.00       213.60
 1212.44        2950.50           1229          56.00       222.32
 1212.47        2950.75           1232          50.00       196.17
 1212.51        2951.00           1236          47.00       183.09
 1212.54        2951.25           1239          58.00       231.04
 1212.57        2951.50           1242          50.00       196.17
 1212.60        2951.75           1246          54.00       213.60
 1212.63        2952.00           1249          55.00       217.96
 1212.66        2952.25           1252          55.00       217.96
 1212.69        2952.50           1256          55.00       217.96
 1212.72        2952.75           1259          56.00       222.32
 1212.75        2953.00           1262          55.00       217.96
 1212.78        2953.25           1266          59.00       235.40
 1212.81        2953.50           1269          61.00       244.12
 1212.84        2953.75           1272          51.00       200.52
 1212.87        2954.00           1276          51.00       200.52
 1212.90        2954.25           1279          55.00       217.96
 1212.94        2954.50           1282          53.00       209.24
 1212.97        2954.75           1286          49.00       191.81
 1213.00        2955.00           1289          54.00       213.60
 1213.03        2955.25           1292          58.00       231.04
 1213.06        2955.50           1296          53.00       209.24
 1213.09        2955.75           1299          62.00       248.48
 1213.12        2956.00           1302          58.00       231.04
 1213.15        2956.25           1306          48.00       187.45
 1213.18        2956.50           1309          53.00       209.24
 1213.21        2956.75           1312          56.00       222.32
 1213.24        2957.00           1316          49.00       191.81
 1213.27        2957.25           1319          60.00       239.76
 1213.30        2957.50           1322          50.00       196.17
 1213.33        2957.75           1326          54.00       213.60
 1213.36        2958.00           1329          62.00       248.48
 1213.40        2958.25           1332          57.00       226.68
 1213.43        2958.50           1336          54.00       213.60
 1213.46        2958.75           1339          54.00       213.60
 1213.49        2959.00           1342          56.00       222.32
 1213.52        2959.25           1346          52.00       204.88
 1213.55        2959.50           1349          62.00       248.48
 1213.58        2959.75           1352          68.00       274.63
 1213.61        2960.00           1356          77.00       313.87
 1213.64        2960.25           1359          98.00       405.41
 1213.67        2960.50           1362         134.00       562.35
 1213.70        2960.75           1366         177.00       749.80
 1213.73        2961.00           1369         223.00       950.33
 1213.77        2961.25           1372         251.00      1072.40
 1213.80        2961.50           1376         315.00      1351.41
 1213.83        2961.75           1379         459.00      1979.19
 1213.86        2962.00           1382        1064.00      4617.03
 1213.89        2962.25           1386        2561.00     11145.84
 1213.92        2962.50           1389        3798.00     16542.65
 1213.95        2962.75           1392        4994.00     21762.24
 1213.98        2963.00           1396        6694.00     29184.22
 1214.01        2963.25           1399        8036.00     35045.54
 1214.05        2963.50           1402        9204.00     40148.59
 1214.08        2963.75           1406       10854.00     47360.18
 1214.11        2964.00           1409       12146.00     53009.26
 1214.14        2964.25           1412       13624.00     59473.94
 1214.17        2964.50           1416       15387.00     67188.49
 1214.20        2964.75           1419       16761.00     73203.30
 1214.23        2965.00           1422       17997.00     78615.88
 1214.26        2965.25           1426       19816.00     86584.69
 1214.29        2965.50           1429       21063.00     92049.84
 1214.32        2965.75           1432       22310.00     97516.78
 1214.36        2966.00           1436       23934.00    104639.20
 1214.39        2966.25           1439       25052.00    109544.20
 1214.42        2966.50           1442       26314.00    115082.80
 1214.45        2966.75           1446       27446.00    120052.40
 1214.48        2967.00           1449       27816.00    121677.00
 1214.51        2967.25           1452       28059.00    122744.10
 1214.54        2967.50           1456       27862.00    121879.00
 1214.57        2967.75           1459       27941.00    122225.90
 1214.60        2968.00           1462       27653.00    120961.30
 1214.63        2968.25           1466       26715.00    116843.00
 1214.67        2968.50           1469       25449.00    111286.40
 1214.70        2968.75           1472       24273.00    106126.40
 1214.73        2969.00           1476       22866.00     99954.91
 1214.76        2969.25           1479       21433.00     93671.76
 1214.79        2969.50           1482       20344.00     88898.50
 1214.82        2969.75           1486       18563.00     81095.05
 1214.85        2970.00           1489       17138.00     74854.05
 1214.88        2970.25           1492       16195.00     70725.32
 1214.91        2970.50           1496       14400.00     62869.12
 1214.94        2970.75           1499       13017.00     56818.65
 1214.97        2971.00           1502       11714.00     51120.19
 1215.01        2971.25           1506        9986.00     43566.06
 1215.04        2971.50           1509        8626.00     37623.09
 1215.07        2971.75           1513        6990.00     30476.85
 1215.10        2972.00           1516        5712.00     24896.53
 1215.13        2972.25           1519        4520.00     19693.41
 1215.16        2972.50           1523        2904.00     12642.11
 1215.19        2972.75           1526        1621.00      7045.95
 1215.22        2973.00           1529         717.00      3104.04
 1215.25        2973.25           1533         354.00      1521.43
 1215.28        2973.50           1536         278.00      1190.10
 1215.31        2973.75           1539         260.00      1111.63
 1215.34        2974.00           1543         214.00       911.10
 1215.38        2974.25           1546         157.00       662.61
 1215.41        2974.50           1549         126.00       527.47
 1215.44        2974.75           1553          89.00       366.18
 1215.47        2975.00           1556          62.00       248.48
 1215.50        2975.25           1559          54.00       213.60
 1215.53        2975.50           1563          48.00       187.45
 1215.56        2975.75           1566          47.00       183.09
 1215.59        2976.00           1569          52.00       204.88
 1215.62        2976.25           1573          49.00       191.81
 1215.65        2976.50           1576          49.00       191.81
 1215.68        2976.75           1579          49.00       191.81
 1215.71        2977.00           1583          48.00       187.45
 1215.74        2977.25           1586          54.00       213.60
 1215.78        2977.50           1590          50.00       196.17
 1215.81        2977.75           1593          47.00       183.09
 1215.84        2978.00           1596          50.00       196.17
 1215.87        2978.25           1600          60.00       239.76
 1215.90        2978.50           1603          54.00       213.60
 1215.93        2978.75           1606          61.00       244.12
 1215.96        2979.00           1610          48.00       187.45
 1215.99        2979.25           1613          45.00       174.37
 1216.02        2979.50           1616          49.00       191.81
 1216.05        2979.75           1620          48.00       187.45
 1216.09        2980.00           1623          50.00       196.17
 1216.12        2980.25           1626          56.00       222.32
 1216.15        2980.50           1630          43.00       165.65
 1216.18        2980.75           1633          45.00       174.37
 1216.21        2981.00           1637          43.00       165.65
 1216.24        2981.25           1640          42.00       161.29
 1216.27        2981.50           1643          43.00       165.65
 1216.30        2981.75           1647          53.00       209.24
 1216.33        2982.00           1650          51.00       200.52
 1216.37        2982.25           1653          49.00       191.81
 1216.40        2982.50           1657          47.00       183.09
 1216.43        2982.75           1660          45.00       174.37
 1216.46        2983.00           1663          51.00       200.52
 1216.49        2983.25           1667          50.00       196.17
 1216.52        2983.50           1670          51.00       200.52
 1216.55        2983.75           1673          55.00       217.96
 1216.58        2984.00           1677          53.00       209.24
HS scan finished at 20:16:48
end
