************************************************************
  HS Scan of (1) Internal mercury lamp
************************************************************
Integration time is 0.2294 seconds per sample
dh220817Manchester 53.47 2.23 3.018777pr1000
************************************************************
Dead Time -------------------------  3E-08 
Number of Cycles Used -------------  4 
Starting Wavelength (Angstroms) ---  2950 
Final Wavelength (Angstoms) -------  2984 
Wavelength Increment (Angstroms) --  .25 
Filter Wheel #1 Position ---------- (1) Ground quartz diffuser (ND=2.32)
Filter Wheel #2 Position ---------- (1) Neutral Density 0.494



************************************************************
HS scan start time = 01:40:00
Dark Count =  5.2 


Time (GMT)  Wavelength (Ang)  Step Number  Raw Counts  Counts/Second

  100.36        2950.00           1222          86.00       352.23
  100.43        2950.25           1226          84.00       343.51
  100.46        2950.50           1229          87.00       356.59
  100.49        2950.75           1232          79.00       321.71
  100.52        2951.00           1236          85.00       347.87
  100.55        2951.25           1239          84.00       343.51
  100.58        2951.50           1242          71.00       286.84
  100.61        2951.75           1246          70.00       282.48
  100.64        2952.00           1249          78.00       317.35
  100.67        2952.25           1252          82.00       334.79
  100.70        2952.50           1256          77.00       312.99
  100.74        2952.75           1259          80.00       326.07
  100.77        2953.00           1262          92.00       378.38
  100.80        2953.25           1266          81.00       330.43
  100.83        2953.50           1269          78.00       317.35
  100.86        2953.75           1272          89.00       365.30
  100.89        2954.00           1276          82.00       334.79
  100.92        2954.25           1279          84.00       343.51
  100.95        2954.50           1282          79.00       321.71
  100.98        2954.75           1286          71.00       286.84
  101.01        2955.00           1289          76.00       308.63
  101.04        2955.25           1292          72.00       291.20
  101.07        2955.50           1296          87.00       356.59
  101.10        2955.75           1299          89.00       365.30
  101.14        2956.00           1302          73.00       295.56
  101.17        2956.25           1306          86.00       352.23
  101.20        2956.50           1309          83.00       339.15
  101.23        2956.75           1312          83.00       339.15
  101.26        2957.00           1316          77.00       312.99
  101.29        2957.25           1319          75.00       304.27
  101.32        2957.50           1322          89.00       365.30
  101.35        2957.75           1326          83.00       339.15
  101.38        2958.00           1329          77.00       312.99
  101.41        2958.25           1332          88.00       360.95
  101.44        2958.50           1336          87.00       356.59
  101.47        2958.75           1339          76.00       308.63
  101.50        2959.00           1342          91.00       374.02
  101.54        2959.25           1346          90.00       369.66
  101.57        2959.50           1349          84.00       343.51
  101.60        2959.75           1352         109.00       452.49
  101.63        2960.00           1356         122.00       509.16
  101.66        2960.25           1359         174.00       735.85
  101.69        2960.50           1362         210.00       892.79
  101.72        2960.75           1366         276.00      1180.51
  101.75        2961.00           1369         320.00      1372.33
  101.78        2961.25           1372         365.00      1568.51
  101.81        2961.50           1376         454.00      1956.52
  101.85        2961.75           1379         759.00      3286.29
  101.88        2962.00           1382        1623.00      7053.80
  101.91        2962.25           1386        3805.00     16572.32
  101.94        2962.50           1389        5543.00     24157.87
  101.97        2962.75           1392        7357.00     32078.81
  102.00        2963.00           1396        9841.00     42931.46
  102.03        2963.25           1399       11525.00     50292.92
  102.06        2963.50           1402       13372.00     58370.65
  102.10        2963.75           1406       15785.00     68929.66
  102.13        2964.00           1409       17475.00     76328.91
  102.16        2964.25           1412       19334.00     84471.86
  102.19        2964.50           1416       21795.00     95257.89
  102.22        2964.75           1419       23699.00    103607.50
  102.25        2965.00           1422       25353.00    110864.20
  102.28        2965.25           1426       27766.00    121456.60
  102.31        2965.50           1429       29511.00    129120.80
  102.34        2965.75           1432       31374.00    137307.30
  102.38        2966.00           1436       34124.00    149398.70
  102.41        2966.25           1439       35840.00    156948.20
  102.44        2966.50           1442       37236.00    163092.50
  102.47        2966.75           1446       38948.00    170630.60
  102.50        2967.00           1449       39344.00    172374.70
  102.53        2967.25           1452       39395.00    172599.40
  102.56        2967.50           1456       39331.00    172317.40
  102.59        2967.75           1459       39274.00    172066.40
  102.62        2968.00           1462       38968.00    170718.70
  102.66        2968.25           1466       37948.00    166227.10
  102.69        2968.50           1469       36336.00    159131.00
  102.72        2968.75           1472       34650.00    151712.50
  102.75        2969.00           1476       32103.00    140511.70
  102.78        2969.25           1479       30530.00    133598.10
  102.81        2969.50           1482       28539.00    124851.30
  102.84        2969.75           1486       26141.00    114322.60
  102.87        2970.00           1489       24322.00    106340.50
  102.90        2970.25           1492       22842.00     99848.78
  102.93        2970.50           1496       20388.00     89090.46
  102.96        2970.75           1499       18547.00     81024.09
  103.00        2971.00           1502       16881.00     73727.86
  103.03        2971.25           1506       14372.00     62745.73
  103.06        2971.50           1509       12454.00     54355.35
  103.09        2971.75           1513        9975.00     43517.11
  103.12        2972.00           1516        8210.00     35804.79
  103.15        2972.25           1519        6353.00     27694.32
  103.18        2972.50           1523        4004.00     17440.68
  103.21        2972.75           1526        2256.00      9814.57
  103.24        2973.00           1529         974.00      4223.73
  103.28        2973.25           1533         504.00      2174.51
  103.31        2973.50           1536         405.00      1742.90
  103.34        2973.75           1539         331.00      1420.29
  103.37        2974.00           1543         323.00      1385.41
  103.40        2974.25           1546         238.00      1014.85
  103.43        2974.50           1549         176.00       744.57
  103.46        2974.75           1553         125.00       522.24
  103.49        2975.00           1556         106.00       439.41
  103.52        2975.25           1559          84.00       343.51
  103.55        2975.50           1563          82.00       334.79
  103.58        2975.75           1566          76.00       308.63
  103.61        2976.00           1569          71.00       286.84
  103.64        2976.25           1573          79.00       321.71
  103.67        2976.50           1576          71.00       286.84
  103.70        2976.75           1579          80.00       326.07
  103.73        2977.00           1583          73.00       295.56
  103.76        2977.25           1586          79.00       321.71
  103.80        2977.50           1590          69.00       278.12
  103.83        2977.75           1593          84.00       343.51
  103.86        2978.00           1596          75.00       304.27
  103.89        2978.25           1600          73.00       295.56
  103.92        2978.50           1603          71.00       286.84
  103.95        2978.75           1606          75.00       304.27
  103.98        2979.00           1610          83.00       339.15
  104.01        2979.25           1613          67.00       269.40
  104.04        2979.50           1616          71.00       286.84
  104.07        2979.75           1620          93.00       382.74
  104.10        2980.00           1623          76.00       308.63
  104.14        2980.25           1626          69.00       278.12
  104.17        2980.50           1630          72.00       291.20
  104.20        2980.75           1633          72.00       291.20
  104.23        2981.00           1637          69.00       278.12
  104.26        2981.25           1640          71.00       286.84
  104.29        2981.50           1643          87.00       356.59
  104.32        2981.75           1647          72.00       291.20
  104.35        2982.00           1650          67.00       269.40
  104.38        2982.25           1653          74.00       299.92
  104.41        2982.50           1657          70.00       282.48
  104.44        2982.75           1660          72.00       291.20
  104.48        2983.00           1663          77.00       312.99
  104.51        2983.25           1667          73.00       295.56
  104.54        2983.50           1670          72.00       291.20
  104.57        2983.75           1673          74.00       299.92
  104.60        2984.00           1677          65.00       260.68
HS scan finished at 01:44:49
end
************************************************************
  HS Scan of (1) Internal mercury lamp
************************************************************
Integration time is 0.2294 seconds per sample
dh220817Manchester 53.47 2.23 3.126073pr1000
************************************************************
Dead Time -------------------------  3E-08 
Number of Cycles Used -------------  4 
Starting Wavelength (Angstroms) ---  2950 
Final Wavelength (Angstoms) -------  2984 
Wavelength Increment (Angstroms) --  .25 
Filter Wheel #1 Position ---------- (1) Ground quartz diffuser (ND=2.32)
Filter Wheel #2 Position ---------- (1) Neutral Density 0.494



************************************************************
HS scan start time = 20:12:03
Dark Count =  6.1 


Time (GMT)  Wavelength (Ang)  Step Number  Raw Counts  Counts/Second

 1212.41        2950.00           1222          82.00       330.87
 1212.48        2950.25           1226          81.00       326.51
 1212.51        2950.50           1229          81.00       326.51
 1212.54        2950.75           1232          69.00       274.20
 1212.57        2951.00           1236          74.00       295.99
 1212.60        2951.25           1239          74.00       295.99
 1212.63        2951.50           1242          88.00       357.02
 1212.66        2951.75           1246          86.00       348.30
 1212.69        2952.00           1249          84.00       339.59
 1212.72        2952.25           1252          70.00       278.56
 1212.76        2952.50           1256          75.00       300.35
 1212.79        2952.75           1259          74.00       295.99
 1212.82        2953.00           1262          75.00       300.35
 1212.85        2953.25           1266          78.00       313.43
 1212.88        2953.50           1269          82.00       330.87
 1212.91        2953.75           1272          83.00       335.23
 1212.94        2954.00           1276          90.00       365.74
 1212.97        2954.25           1279          78.00       313.43
 1213.00        2954.50           1282          74.00       295.99
 1213.03        2954.75           1286          75.00       300.35
 1213.06        2955.00           1289          83.00       335.23
 1213.09        2955.25           1292          72.00       287.27
 1213.13        2955.50           1296          87.00       352.66
 1213.16        2955.75           1299          76.00       304.71
 1213.19        2956.00           1302          73.00       291.63
 1213.22        2956.25           1306          70.00       278.56
 1213.25        2956.50           1309          71.00       282.91
 1213.28        2956.75           1312          73.00       291.63
 1213.31        2957.00           1316          78.00       313.43
 1213.34        2957.25           1319          81.00       326.51
 1213.37        2957.50           1322          84.00       339.59
 1213.40        2957.75           1326          84.00       339.59
 1213.44        2958.00           1329          83.00       335.23
 1213.47        2958.25           1332          80.00       322.15
 1213.50        2958.50           1336          87.00       352.66
 1213.53        2958.75           1339          78.00       313.43
 1213.56        2959.00           1342          94.00       383.18
 1213.59        2959.25           1346          76.00       304.71
 1213.62        2959.50           1349          93.00       378.82
 1213.65        2959.75           1352         108.00       444.21
 1213.68        2960.00           1356         138.00       574.99
 1213.71        2960.25           1359         163.00       683.97
 1213.74        2960.50           1362         226.00       958.62
 1213.77        2960.75           1366         284.00      1211.47
 1213.80        2961.00           1369         336.00      1438.16
 1213.84        2961.25           1372         372.00      1595.11
 1213.87        2961.50           1376         473.00      2035.43
 1213.90        2961.75           1379         694.00      2998.96
 1213.93        2962.00           1382        1567.00      6805.66
 1213.96        2962.25           1386        3734.00     16258.58
 1213.99        2962.50           1389        5549.00     24180.13
 1214.02        2962.75           1392        7453.00     32494.17
 1214.05        2963.00           1396        9722.00     42407.46
 1214.08        2963.25           1399       11730.00     51185.35
 1214.11        2963.50           1402       13392.00     58454.21
 1214.15        2963.75           1406       16057.00     70116.40
 1214.18        2964.00           1409       17873.00     78067.98
 1214.21        2964.25           1412       19595.00     85611.50
 1214.24        2964.50           1416       22146.00     96792.87
 1214.27        2964.75           1419       24039.00    105095.00
 1214.30        2965.00           1422       25763.00    112659.60
 1214.33        2965.25           1426       28619.00    125198.70
 1214.36        2965.50           1429       30547.00    133668.80
 1214.39        2965.75           1432       32300.00    141373.80
 1214.43        2966.00           1436       34738.00    152095.60
 1214.46        2966.25           1439       36483.00    159774.00
 1214.49        2966.50           1442       38242.00    167517.60
 1214.52        2966.75           1446       39788.00    174326.50
 1214.55        2967.00           1449       40232.00    176282.50
 1214.58        2967.25           1452       40238.00    176308.90
 1214.61        2967.50           1456       40417.00    177097.50
 1214.64        2967.75           1459       40308.00    176617.30
 1214.67        2968.00           1462       40026.00    175374.90
 1214.70        2968.25           1466       38650.00    169314.30
 1214.74        2968.50           1469       37116.00    162560.30
 1214.77        2968.75           1472       35243.00    154317.40
 1214.80        2969.00           1476       32717.00    143207.20
 1214.83        2969.25           1479       31151.00    136323.20
 1214.86        2969.50           1482       29168.00    127610.10
 1214.89        2969.75           1486       26904.00    117667.90
 1214.92        2970.00           1489       25055.00    109552.60
 1214.95        2970.25           1492       23466.00    102581.60
 1214.98        2970.50           1496       20856.00     91137.69
 1215.01        2970.75           1499       18770.00     81997.02
 1215.04        2971.00           1502       17037.00     74406.98
 1215.07        2971.25           1506       14505.00     63323.76
 1215.10        2971.50           1509       12775.00     55755.35
 1215.13        2971.75           1513       10316.00     45003.62
 1215.17        2972.00           1516        8370.00     36499.85
 1215.20        2972.25           1519        6344.00     27651.09
 1215.23        2972.50           1523        4035.00     17572.03
 1215.26        2972.75           1526        2271.00      9876.07
 1215.29        2973.00           1529         971.00      4206.72
 1215.32        2973.25           1533         523.00      2253.42
 1215.35        2973.50           1536         404.00      1734.62
 1215.38        2973.75           1539         355.00      1520.99
 1215.41        2974.00           1543         301.00      1285.58
 1215.44        2974.25           1546         225.00       954.26
 1215.47        2974.50           1549         169.00       710.13
 1215.50        2974.75           1553         129.00       535.75
 1215.53        2975.00           1556          93.00       378.82
 1215.56        2975.25           1559          84.00       339.59
 1215.59        2975.50           1563          81.00       326.51
 1215.63        2975.75           1566          76.00       304.71
 1215.66        2976.00           1569          83.00       335.23
 1215.69        2976.25           1573          82.00       330.87
 1215.72        2976.50           1576          71.00       282.91
 1215.75        2976.75           1579          74.00       295.99
 1215.78        2977.00           1583          76.00       304.71
 1215.81        2977.25           1586          74.00       295.99
 1215.84        2977.50           1590          68.00       269.84
 1215.87        2977.75           1593          75.00       300.35
 1215.90        2978.00           1596          77.00       309.07
 1215.93        2978.25           1600          79.00       317.79
 1215.96        2978.50           1603          80.00       322.15
 1216.00        2978.75           1606          62.00       243.68
 1216.03        2979.00           1610          82.00       330.87
 1216.06        2979.25           1613          82.00       330.87
 1216.09        2979.50           1616          78.00       313.43
 1216.12        2979.75           1620          76.00       304.71
 1216.15        2980.00           1623          67.00       265.48
 1216.18        2980.25           1626          70.00       278.56
 1216.21        2980.50           1630          68.00       269.84
 1216.24        2980.75           1633          73.00       291.63
 1216.27        2981.00           1637          74.00       295.99
 1216.30        2981.25           1640          70.00       278.56
 1216.33        2981.50           1643          63.00       248.04
 1216.36        2981.75           1647          73.00       291.63
 1216.39        2982.00           1650          75.00       300.35
 1216.42        2982.25           1653          71.00       282.91
 1216.45        2982.50           1657          69.00       274.20
 1216.49        2982.75           1660          74.00       295.99
 1216.52        2983.00           1663          64.00       252.40
 1216.55        2983.25           1667          67.00       265.48
 1216.58        2983.50           1670          72.00       287.27
 1216.61        2983.75           1673          71.00       282.91
 1216.64        2984.00           1677          72.00       287.27
HS scan finished at 20:16:51
end
