************************************************************
  HS Scan of (1) Internal mercury lamp
************************************************************
Integration time is 0.2294 seconds per sample
dh220818Manchester 53.47 2.23 2.911481pr1000
************************************************************
Dead Time -------------------------  3E-08 
Number of Cycles Used -------------  4 
Starting Wavelength (Angstroms) ---  2950 
Final Wavelength (Angstoms) -------  2984 
Wavelength Increment (Angstroms) --  .25 
Filter Wheel #1 Position ---------- (1) Ground quartz diffuser (ND=2.32)
Filter Wheel #2 Position ---------- (1) Neutral Density 0.494



************************************************************
HS scan start time = 01:39:45
Dark Count =  7 


Time (GMT)  Wavelength (Ang)  Step Number  Raw Counts  Counts/Second

  100.11        2950.00           1222          44.00       161.29
  100.18        2950.25           1226          56.00       213.60
  100.21        2950.50           1229          54.00       204.88
  100.24        2950.75           1232          45.00       165.65
  100.27        2951.00           1236          53.00       200.52
  100.30        2951.25           1239          50.00       187.45
  100.33        2951.50           1242          52.00       196.17
  100.36        2951.75           1246          47.00       174.37
  100.39        2952.00           1249          55.00       209.24
  100.42        2952.25           1252          50.00       187.45
  100.45        2952.50           1256          52.00       196.17
  100.48        2952.75           1259          58.00       222.32
  100.52        2953.00           1262          50.00       187.45
  100.55        2953.25           1266          45.00       165.65
  100.58        2953.50           1269          48.00       178.73
  100.61        2953.75           1272          58.00       222.32
  100.64        2954.00           1276          49.00       183.09
  100.67        2954.25           1279          52.00       196.17
  100.70        2954.50           1282          51.00       191.81
  100.73        2954.75           1286          50.00       187.45
  100.76        2955.00           1289          54.00       204.88
  100.79        2955.25           1292          51.00       191.81
  100.82        2955.50           1296          65.00       252.84
  100.85        2955.75           1299          60.00       231.04
  100.88        2956.00           1302          52.00       196.17
  100.91        2956.25           1306          53.00       200.52
  100.94        2956.50           1309          53.00       200.52
  100.98        2956.75           1312          57.00       217.96
  101.01        2957.00           1316          47.00       174.37
  101.04        2957.25           1319          48.00       178.73
  101.07        2957.50           1322          52.00       196.17
  101.10        2957.75           1326          54.00       204.88
  101.13        2958.00           1329          55.00       209.24
  101.16        2958.25           1332          66.00       257.19
  101.19        2958.50           1336          56.00       213.60
  101.22        2958.75           1339          52.00       196.17
  101.25        2959.00           1342          51.00       191.81
  101.28        2959.25           1346          63.00       244.12
  101.31        2959.50           1349          70.00       274.63
  101.34        2959.75           1352          91.00       366.18
  101.37        2960.00           1356         114.00       466.44
  101.40        2960.25           1359         145.00       601.58
  101.43        2960.50           1362         197.00       828.27
  101.46        2960.75           1366         242.00      1024.44
  101.50        2961.00           1369         270.00      1146.51
  101.53        2961.25           1372         317.00      1351.41
  101.56        2961.50           1376         419.00      1796.09
  101.59        2961.75           1379         782.00      3378.72
  101.62        2962.00           1382        1678.00      7285.81
  101.65        2962.25           1386        3400.00     14797.33
  101.68        2962.50           1389        4786.00     20845.64
  101.71        2962.75           1392        6110.00     26625.44
  101.74        2963.00           1396        7886.00     34381.57
  101.77        2963.25           1399        9184.00     40052.46
  101.80        2963.50           1402       10618.00     46319.77
  101.84        2963.75           1406       12351.00     53897.02
  101.87        2964.00           1409       13717.00     59872.05
  101.90        2964.25           1412       15158.00     66177.47
  101.93        2964.50           1416       16783.00     73290.88
  101.96        2964.75           1419       18250.00     79715.26
  101.99        2965.00           1422       19760.00     86330.54
  102.02        2965.25           1426       21611.00     94443.32
  102.05        2965.50           1429       22994.00    100507.50
  102.08        2965.75           1432       24315.00    106301.80
  102.11        2966.00           1436       26042.00    113880.10
  102.14        2966.25           1439       27241.00    119143.50
  102.18        2966.50           1442       28537.00    124834.60
  102.21        2966.75           1446       29217.00    127821.40
  102.24        2967.00           1449       29489.00    129016.30
  102.27        2967.25           1452       29420.00    128713.10
  102.30        2967.50           1456       29501.00    129069.00
  102.33        2967.75           1459       29349.00    128401.30
  102.36        2968.00           1462       29107.00    127338.20
  102.39        2968.25           1466       27716.00    121229.10
  102.42        2968.50           1469       26354.00    115249.60
  102.45        2968.75           1472       25062.00    109579.40
  102.48        2969.00           1476       23395.00    102266.20
  102.52        2969.25           1479       21975.00     96039.16
  102.55        2969.50           1482       20771.00     90761.18
  102.58        2969.75           1486       19045.00     83197.81
  102.61        2970.00           1489       17717.00     77380.82
  102.64        2970.25           1492       16464.00     71894.21
  102.67        2970.50           1496       14591.00     63696.14
  102.70        2970.75           1499       13162.00     57444.16
  102.73        2971.00           1502       11731.00     51185.78
  102.76        2971.25           1506        9914.00     43242.64
  102.79        2971.50           1509        8381.00     36543.97
  102.82        2971.75           1513        6696.00     29184.22
  102.86        2972.00           1516        5384.00     23455.91
  102.89        2972.25           1519        4055.00     17655.38
  102.92        2972.50           1523        2354.00     10234.18
  102.95        2972.75           1526        1196.00      5183.89
  102.98        2973.00           1529         526.00      2262.58
  103.01        2973.25           1533         325.00      1386.28
  103.04        2973.50           1536         270.00      1146.51
  103.07        2973.75           1539         239.00      1011.36
  103.10        2974.00           1543         188.00       789.03
  103.13        2974.25           1546         132.00       544.91
  103.16        2974.50           1549         107.00       435.93
  103.19        2974.75           1553          85.00       340.02
  103.22        2975.00           1556          65.00       252.84
  103.25        2975.25           1559          54.00       204.88
  103.28        2975.50           1563          51.00       191.81
  103.32        2975.75           1566          56.00       213.60
  103.35        2976.00           1569          59.00       226.68
  103.38        2976.25           1573          47.00       174.37
  103.41        2976.50           1576          51.00       191.81
  103.44        2976.75           1579          50.00       187.45
  103.47        2977.00           1583          49.00       183.09
  103.50        2977.25           1586          52.00       196.17
  103.53        2977.50           1590          48.00       178.73
  103.56        2977.75           1593          50.00       187.45
  103.59        2978.00           1596          54.00       204.88
  103.62        2978.25           1600          57.00       217.96
  103.65        2978.50           1603          45.00       165.65
  103.69        2978.75           1606          49.00       183.09
  103.72        2979.00           1610          49.00       183.09
  103.75        2979.25           1613          52.00       196.17
  103.78        2979.50           1616          47.00       174.37
  103.81        2979.75           1620          53.00       200.52
  103.84        2980.00           1623          51.00       191.81
  103.87        2980.25           1626          51.00       191.81
  103.90        2980.50           1630          53.00       200.52
  103.93        2980.75           1633          56.00       213.60
  103.96        2981.00           1637          55.00       209.24
  103.99        2981.25           1640          44.00       161.29
  104.03        2981.50           1643          44.00       161.29
  104.06        2981.75           1647          51.00       191.81
  104.09        2982.00           1650          47.00       174.37
  104.12        2982.25           1653          45.00       165.65
  104.15        2982.50           1657          44.00       161.29
  104.18        2982.75           1660          46.00       170.01
  104.21        2983.00           1663          52.00       196.17
  104.24        2983.25           1667          42.00       152.57
  104.27        2983.50           1670          47.00       174.37
  104.30        2983.75           1673          46.00       170.01
  104.33        2984.00           1677          45.00       165.65
HS scan finished at 01:44:33
end
************************************************************
  HS Scan of (1) Internal mercury lamp
************************************************************
Integration time is 0.2294 seconds per sample
dh220818Manchester 53.47 2.23 2.857833pr1000
************************************************************
Dead Time -------------------------  3E-08 
Number of Cycles Used -------------  4 
Starting Wavelength (Angstroms) ---  2950 
Final Wavelength (Angstoms) -------  2984 
Wavelength Increment (Angstroms) --  .25 
Filter Wheel #1 Position ---------- (1) Ground quartz diffuser (ND=2.32)
Filter Wheel #2 Position ---------- (1) Neutral Density 0.494



************************************************************
HS scan start time = 20:12:03
Dark Count =  5.9 


Time (GMT)  Wavelength (Ang)  Step Number  Raw Counts  Counts/Second

 1212.41        2950.00           1222          57.00       222.76
 1212.48        2950.25           1226          54.00       209.68
 1212.51        2950.50           1229          54.00       209.68
 1212.54        2950.75           1232          60.00       235.83
 1212.57        2951.00           1236          57.00       222.76
 1212.60        2951.25           1239          50.00       192.24
 1212.63        2951.50           1242          59.00       231.48
 1212.66        2951.75           1246          54.00       209.68
 1212.69        2952.00           1249          60.00       235.83
 1212.73        2952.25           1252          54.00       209.68
 1212.76        2952.50           1256          50.00       192.24
 1212.79        2952.75           1259          49.00       187.88
 1212.82        2953.00           1262          48.00       183.52
 1212.85        2953.25           1266          54.00       209.68
 1212.88        2953.50           1269          56.00       218.40
 1212.91        2953.75           1272          56.00       218.40
 1212.94        2954.00           1276          52.00       200.96
 1212.97        2954.25           1279          49.00       187.88
 1213.00        2954.50           1282          51.00       196.60
 1213.03        2954.75           1286          52.00       200.96
 1213.06        2955.00           1289          45.00       170.45
 1213.09        2955.25           1292          47.00       179.16
 1213.13        2955.50           1296          52.00       200.96
 1213.16        2955.75           1299          57.00       222.76
 1213.19        2956.00           1302          53.00       205.32
 1213.22        2956.25           1306          47.00       179.16
 1213.25        2956.50           1309          46.00       174.80
 1213.28        2956.75           1312          50.00       192.24
 1213.31        2957.00           1316          56.00       218.40
 1213.34        2957.25           1319          53.00       205.32
 1213.37        2957.50           1322          55.00       214.04
 1213.40        2957.75           1326          50.00       192.24
 1213.43        2958.00           1329          47.00       179.16
 1213.46        2958.25           1332          55.00       214.04
 1213.49        2958.50           1336          50.00       192.24
 1213.52        2958.75           1339          48.00       183.52
 1213.55        2959.00           1342          50.00       192.24
 1213.58        2959.25           1346          62.00       244.55
 1213.62        2959.50           1349          60.00       235.83
 1213.65        2959.75           1352          67.00       266.35
 1213.68        2960.00           1356          88.00       357.89
 1213.71        2960.25           1359         123.00       510.47
 1213.74        2960.50           1362         155.00       649.97
 1213.77        2960.75           1366         187.00       789.47
 1213.80        2961.00           1369         229.00       972.57
 1213.83        2961.25           1372         264.00      1125.15
 1213.86        2961.50           1376         328.00      1404.16
 1213.89        2961.75           1379         438.00      1883.72
 1213.92        2962.00           1382         953.00      4129.11
 1213.95        2962.25           1386        2479.00     10784.22
 1213.98        2962.50           1389        3776.00     16442.72
 1214.02        2962.75           1392        5083.00     22146.79
 1214.05        2963.00           1396        6845.00     29839.69
 1214.08        2963.25           1399        8161.00     35587.67
 1214.11        2963.50           1402        9411.00     41049.21
 1214.14        2963.75           1406       11258.00     49122.47
 1214.17        2964.00           1409       12527.00     54671.55
 1214.20        2964.25           1412       13840.00     60414.98
 1214.23        2964.50           1416       15645.00     68313.79
 1214.26        2964.75           1419       16866.00     73659.10
 1214.29        2965.00           1422       18156.00     79308.35
 1214.33        2965.25           1426       19920.00     87036.46
 1214.36        2965.50           1429       21171.00     92519.31
 1214.39        2965.75           1432       22536.00     98503.83
 1214.42        2966.00           1436       24258.00    106056.60
 1214.45        2966.25           1439       25356.00    110874.30
 1214.48        2966.50           1442       26829.00    117339.50
 1214.51        2966.75           1446       27924.00    122147.30
 1214.54        2967.00           1449       28194.00    123333.00
 1214.58        2967.25           1452       28178.00    123262.70
 1214.61        2967.50           1456       28387.00    124180.60
 1214.64        2967.75           1459       28335.00    123952.20
 1214.67        2968.00           1462       28122.00    123016.80
 1214.70        2968.25           1466       27352.00    119635.70
 1214.73        2968.50           1469       26049.00    113915.70
 1214.76        2968.75           1472       24869.00    108737.30
 1214.79        2969.00           1476       23075.00    100867.60
 1214.82        2969.25           1479       21905.00     95737.09
 1214.86        2969.50           1482       20368.00     88999.72
 1214.89        2969.75           1486       18733.00     81835.80
 1214.92        2970.00           1489       17406.00     76023.68
 1214.95        2970.25           1492       16119.00     70388.68
 1214.98        2970.50           1496       14457.00     63114.59
 1215.01        2970.75           1499       13149.00     57392.11
 1215.04        2971.00           1502       11862.00     51763.41
 1215.07        2971.25           1506       10134.00     44208.99
 1215.10        2971.50           1509        8760.00     38204.62
 1215.13        2971.75           1513        7014.00     30577.74
 1215.17        2972.00           1516        5737.00     25001.75
 1215.20        2972.25           1519        4513.00     19658.93
 1215.23        2972.50           1523        2854.00     12420.06
 1215.26        2972.75           1526        1568.00      6810.89
 1215.29        2973.00           1529         673.00      2908.27
 1215.32        2973.25           1533         337.00      1443.39
 1215.35        2973.50           1536         290.00      1238.49
 1215.38        2973.75           1539         242.00      1029.24
 1215.41        2974.00           1543         196.00       828.70
 1215.44        2974.25           1546         163.00       684.84
 1215.47        2974.50           1549         113.00       466.88
 1215.50        2974.75           1553          82.00       331.74
 1215.53        2975.00           1556          68.00       270.71
 1215.56        2975.25           1559          55.00       214.04
 1215.60        2975.50           1563          56.00       218.40
 1215.63        2975.75           1566          53.00       205.32
 1215.66        2976.00           1569          48.00       183.52
 1215.69        2976.25           1573          49.00       187.88
 1215.72        2976.50           1576          56.00       218.40
 1215.75        2976.75           1579          55.00       214.04
 1215.78        2977.00           1583          50.00       192.24
 1215.81        2977.25           1586          45.00       170.45
 1215.84        2977.50           1590          43.00       161.73
 1215.87        2977.75           1593          50.00       192.24
 1215.90        2978.00           1596          50.00       192.24
 1215.93        2978.25           1600          45.00       170.45
 1215.96        2978.50           1603          51.00       196.60
 1215.99        2978.75           1606          40.00       148.65
 1216.02        2979.00           1610          47.00       179.16
 1216.05        2979.25           1613          46.00       174.80
 1216.09        2979.50           1616          45.00       170.45
 1216.12        2979.75           1620          56.00       218.40
 1216.15        2980.00           1623          50.00       192.24
 1216.18        2980.25           1626          47.00       179.16
 1216.21        2980.50           1630          47.00       179.16
 1216.24        2980.75           1633          55.00       214.04
 1216.27        2981.00           1637          46.00       174.80
 1216.30        2981.25           1640          45.00       170.45
 1216.33        2981.50           1643          50.00       192.24
 1216.36        2981.75           1647          58.00       227.12
 1216.39        2982.00           1650          57.00       222.76
 1216.42        2982.25           1653          49.00       187.88
 1216.46        2982.50           1657          47.00       179.16
 1216.49        2982.75           1660          43.00       161.73
 1216.52        2983.00           1663          43.00       161.73
 1216.55        2983.25           1667          43.00       161.73
 1216.58        2983.50           1670          46.00       174.80
 1216.61        2983.75           1673          48.00       183.52
 1216.64        2984.00           1677          53.00       205.32
HS scan finished at 20:16:51
end
