************************************************************
  HS Scan of (1) Internal mercury lamp
************************************************************
Integration time is 0.2294 seconds per sample
dh270817Manchester 53.47 2.23 2.804185pr1000
************************************************************
Dead Time -------------------------  3E-08 
Number of Cycles Used -------------  4 
Starting Wavelength (Angstroms) ---  2950 
Final Wavelength (Angstoms) -------  2984 
Wavelength Increment (Angstroms) --  .25 
Filter Wheel #1 Position ---------- (1) Ground quartz diffuser (ND=2.32)
Filter Wheel #2 Position ---------- (1) Neutral Density 0.494



************************************************************
HS scan start time = 01:38:50
Dark Count =  6.5 


Time (GMT)  Wavelength (Ang)  Step Number  Raw Counts  Counts/Second

   99.21        2950.00           1222          93.00       377.07
   99.28        2950.25           1226          78.00       311.69
   99.31        2950.50           1229          80.00       320.40
   99.34        2950.75           1232          80.00       320.40
   99.37        2951.00           1236          83.00       333.48
   99.40        2951.25           1239          78.00       311.69
   99.43        2951.50           1242          86.00       346.56
   99.46        2951.75           1246          85.00       342.20
   99.49        2952.00           1249          84.00       337.84
   99.53        2952.25           1252          80.00       320.40
   99.56        2952.50           1256          78.00       311.69
   99.59        2952.75           1259          84.00       337.84
   99.62        2953.00           1262          86.00       346.56
   99.65        2953.25           1266          73.00       289.89
   99.68        2953.50           1269          75.00       298.61
   99.71        2953.75           1272          78.00       311.69
   99.74        2954.00           1276          79.00       316.04
   99.77        2954.25           1279          78.00       311.69
   99.80        2954.50           1282          77.00       307.33
   99.83        2954.75           1286          83.00       333.48
   99.86        2955.00           1289          80.00       320.40
   99.89        2955.25           1292          77.00       307.33
   99.92        2955.50           1296          79.00       316.04
   99.95        2955.75           1299          80.00       320.40
   99.98        2956.00           1302          80.00       320.40
  100.02        2956.25           1306          78.00       311.69
  100.05        2956.50           1309          84.00       337.84
  100.08        2956.75           1312          79.00       316.04
  100.11        2957.00           1316          80.00       320.40
  100.14        2957.25           1319          85.00       342.20
  100.17        2957.50           1322          78.00       311.69
  100.20        2957.75           1326          80.00       320.40
  100.23        2958.00           1329          75.00       298.61
  100.26        2958.25           1332          86.00       346.56
  100.29        2958.50           1336          88.00       355.28
  100.33        2958.75           1339          83.00       333.48
  100.36        2959.00           1342          78.00       311.69
  100.39        2959.25           1346          86.00       346.56
  100.42        2959.50           1349          83.00       333.48
  100.45        2959.75           1352          95.00       385.79
  100.48        2960.00           1356         126.00       520.93
  100.51        2960.25           1359         147.00       612.48
  100.54        2960.50           1362         174.00       730.18
  100.57        2960.75           1366         229.00       969.95
  100.60        2961.00           1369         280.00      1192.28
  100.63        2961.25           1372         323.00      1379.74
  100.66        2961.50           1376         451.00      1937.78
  100.69        2961.75           1379         875.00      3786.39
  100.73        2962.00           1382        1996.00      8674.88
  100.76        2962.25           1386        3971.00     17291.01
  100.79        2962.50           1389        5507.00     23995.04
  100.82        2962.75           1392        7034.00     30662.46
  100.85        2963.00           1396        9143.00     39875.49
  100.88        2963.25           1399       10591.00     46203.93
  100.91        2963.50           1402       12024.00     52469.19
  100.94        2963.75           1406       14428.00     62985.08
  100.97        2964.00           1409       15989.00     69816.96
  101.00        2964.25           1412       17698.00     77299.81
  101.03        2964.50           1416       19984.00     87314.29
  101.07        2964.75           1419       21292.00     93047.09
  101.10        2965.00           1422       23230.00    101544.70
  101.13        2965.25           1426       25090.00    109704.40
  101.16        2965.50           1429       26817.00    117284.20
  101.19        2965.75           1432       28814.00    126053.40
  101.22        2966.00           1436       30550.00    133680.20
  101.25        2966.25           1439       32175.00    140822.50
  101.28        2966.50           1442       33702.00    147536.90
  101.31        2966.75           1446       34326.00    150281.50
  101.35        2967.00           1449       34543.00    151236.10
  101.38        2967.25           1452       34579.00    151394.40
  101.41        2967.50           1456       34600.00    151486.80
  101.44        2967.75           1459       34363.00    150444.30
  101.47        2968.00           1462       34010.00    148891.60
  101.50        2968.25           1466       32713.00    143187.90
  101.53        2968.50           1469       31369.00    137279.60
  101.56        2968.75           1472       29675.00    129835.60
  101.59        2969.00           1476       27730.00    121292.80
  101.62        2969.25           1479       26100.00    114136.90
  101.65        2969.50           1482       24508.00    107150.80
  101.69        2969.75           1486       22433.00     98049.54
  101.72        2970.00           1489       20957.00     91578.62
  101.75        2970.25           1492       19625.00     85741.19
  101.78        2970.50           1496       17556.00     76677.93
  101.81        2970.75           1499       15851.00     69212.88
  101.84        2971.00           1502       14122.00     61646.16
  101.87        2971.25           1506       12052.00     52591.64
  101.90        2971.50           1509       10529.00     45932.91
  101.93        2971.75           1513        8389.00     36581.10
  101.96        2972.00           1516        6704.00     29221.34
  102.00        2972.25           1519        5183.00     22580.68
  102.03        2972.50           1523        3257.00     14175.60
  102.06        2972.75           1526        1841.00      7998.87
  102.09        2973.00           1529         886.00      3834.36
  102.12        2973.25           1533         467.00      2007.53
  102.15        2973.50           1536         373.00      1597.72
  102.18        2973.75           1539         335.00      1432.06
  102.21        2974.00           1543         287.00      1222.80
  102.24        2974.25           1546         242.00      1026.62
  102.28        2974.50           1549         187.00       786.85
  102.31        2974.75           1553         122.00       503.50
  102.34        2975.00           1556          93.00       377.07
  102.37        2975.25           1559          98.00       398.87
  102.40        2975.50           1563          75.00       298.61
  102.43        2975.75           1566          74.00       294.25
  102.46        2976.00           1569          73.00       289.89
  102.49        2976.25           1573          88.00       355.28
  102.52        2976.50           1576          68.00       268.09
  102.55        2976.75           1579          72.00       285.53
  102.58        2977.00           1583          75.00       298.61
  102.61        2977.25           1586          75.00       298.61
  102.64        2977.50           1590          76.00       302.97
  102.67        2977.75           1593          64.00       250.66
  102.71        2978.00           1596          76.00       302.97
  102.74        2978.25           1600          77.00       307.33
  102.77        2978.50           1603          73.00       289.89
  102.80        2978.75           1606          70.00       276.81
  102.83        2979.00           1610          74.00       294.25
  102.86        2979.25           1613          75.00       298.61
  102.89        2979.50           1616          87.00       350.92
  102.92        2979.75           1620          74.00       294.25
  102.95        2980.00           1623          65.00       255.02
  102.98        2980.25           1626          73.00       289.89
  103.01        2980.50           1630          68.00       268.09
  103.04        2980.75           1633          67.00       263.73
  103.07        2981.00           1637          73.00       289.89
  103.11        2981.25           1640          71.00       281.17
  103.14        2981.50           1643          73.00       289.89
  103.17        2981.75           1647          82.00       329.12
  103.20        2982.00           1650          76.00       302.97
  103.23        2982.25           1653          75.00       298.61
  103.26        2982.50           1657          74.00       294.25
  103.29        2982.75           1660          67.00       263.73
  103.32        2983.00           1663          67.00       263.73
  103.35        2983.25           1667          63.00       246.30
  103.38        2983.50           1670          66.00       259.37
  103.41        2983.75           1673          71.00       281.17
  103.45        2984.00           1677          66.00       259.37
HS scan finished at 01:43:40
end
************************************************************
  HS Scan of (1) Internal mercury lamp
************************************************************
Integration time is 0.2294 seconds per sample
dh270817Manchester 53.47 2.23 3.126073pr1000
************************************************************
Dead Time -------------------------  3E-08 
Number of Cycles Used -------------  4 
Starting Wavelength (Angstroms) ---  2950 
Final Wavelength (Angstoms) -------  2984 
Wavelength Increment (Angstroms) --  .25 
Filter Wheel #1 Position ---------- (1) Ground quartz diffuser (ND=2.32)
Filter Wheel #2 Position ---------- (1) Neutral Density 0.494



************************************************************
HS scan start time = 20:12:00
Dark Count =  7.1 


Time (GMT)  Wavelength (Ang)  Step Number  Raw Counts  Counts/Second

 1212.36        2950.00           1222          73.00       287.27
 1212.43        2950.25           1226          73.00       287.27
 1212.46        2950.50           1229          79.00       313.43
 1212.49        2950.75           1232          75.00       295.99
 1212.52        2951.00           1236          76.00       300.35
 1212.55        2951.25           1239          76.00       300.35
 1212.59        2951.50           1242          85.00       339.59
 1212.62        2951.75           1246          78.00       309.07
 1212.65        2952.00           1249          79.00       313.43
 1212.68        2952.25           1252          83.00       330.87
 1212.71        2952.50           1256          73.00       287.27
 1212.74        2952.75           1259          77.00       304.71
 1212.77        2953.00           1262          74.00       291.63
 1212.80        2953.25           1266          75.00       295.99
 1212.83        2953.50           1269          81.00       322.15
 1212.86        2953.75           1272          71.00       278.56
 1212.90        2954.00           1276          82.00       326.51
 1212.93        2954.25           1279          82.00       326.51
 1212.96        2954.50           1282          81.00       322.15
 1212.99        2954.75           1286          74.00       291.63
 1213.02        2955.00           1289          77.00       304.71
 1213.05        2955.25           1292          75.00       295.99
 1213.08        2955.50           1296          76.00       300.35
 1213.11        2955.75           1299          75.00       295.99
 1213.14        2956.00           1302          79.00       313.43
 1213.17        2956.25           1306          78.00       309.07
 1213.20        2956.50           1309          73.00       287.27
 1213.24        2956.75           1312          71.00       278.56
 1213.27        2957.00           1316          85.00       339.59
 1213.30        2957.25           1319          86.00       343.94
 1213.33        2957.50           1322          76.00       300.35
 1213.36        2957.75           1326          73.00       287.27
 1213.39        2958.00           1329          75.00       295.99
 1213.42        2958.25           1332          79.00       313.43
 1213.45        2958.50           1336          77.00       304.71
 1213.48        2958.75           1339          85.00       339.59
 1213.51        2959.00           1342          75.00       295.99
 1213.54        2959.25           1346          83.00       330.87
 1213.57        2959.50           1349          96.00       387.54
 1213.60        2959.75           1352         127.00       522.68
 1213.64        2960.00           1356         174.00       727.57
 1213.67        2960.25           1359         216.00       910.66
 1213.70        2960.50           1362         267.00      1132.99
 1213.73        2960.75           1366         338.00      1442.52
 1213.76        2961.00           1369         368.00      1573.31
 1213.79        2961.25           1372         410.00      1756.41
 1213.82        2961.50           1376         501.00      2153.15
 1213.85        2961.75           1379         703.00      3033.84
 1213.88        2962.00           1382        1588.00      6892.88
 1213.91        2962.25           1386        3765.00     16389.49
 1213.94        2962.50           1389        5537.00     24123.38
 1213.98        2962.75           1392        7238.00     31550.77
 1214.01        2963.00           1396        9539.00     41603.33
 1214.04        2963.25           1399       11093.00     48395.85
 1214.07        2963.50           1402       12969.00     56599.52
 1214.10        2963.75           1406       15239.00     66531.53
 1214.13        2964.00           1409       17166.00     74967.46
 1214.16        2964.25           1412       18972.00     82877.56
 1214.19        2964.50           1416       21364.00     93360.08
 1214.22        2964.75           1419       23084.00    100901.80
 1214.26        2965.00           1422       24994.00    109280.50
 1214.29        2965.25           1426       27619.00    120802.80
 1214.32        2965.50           1429       29465.00    128910.40
 1214.35        2965.75           1432       31407.00    137443.90
 1214.38        2966.00           1436       33512.00    146698.70
 1214.41        2966.25           1439       35267.00    154418.60
 1214.44        2966.50           1442       36848.00    161376.10
 1214.47        2966.75           1446       38926.00    170525.30
 1214.50        2967.00           1449       39434.00    172762.80
 1214.53        2967.25           1452       39418.00    172692.30
 1214.57        2967.50           1456       39649.00    173709.80
 1214.60        2967.75           1459       39498.00    173044.60
 1214.63        2968.00           1462       39393.00    172582.20
 1214.66        2968.25           1466       38318.00    167847.90
 1214.69        2968.50           1469       36902.00    161613.90
 1214.72        2968.75           1472       34976.00    153138.30
 1214.75        2969.00           1476       32722.00    143224.80
 1214.78        2969.25           1479       30965.00    135501.30
 1214.81        2969.50           1482       29035.00    127021.50
 1214.84        2969.75           1486       26825.00    117316.70
 1214.88        2970.00           1489       24854.00    108666.20
 1214.91        2970.25           1492       23062.00    100805.30
 1214.94        2970.50           1496       20758.00     90703.76
 1214.97        2970.75           1499       18865.00     82408.81
 1215.00        2971.00           1502       17141.00     74857.99
 1215.03        2971.25           1506       14524.00     63402.53
 1215.06        2971.50           1509       12504.00     54565.71
 1215.09        2971.75           1513       10278.00     44833.15
 1215.12        2972.00           1516        8444.00     36818.77
 1215.15        2972.25           1519        6640.00     28939.24
 1215.18        2972.50           1523        4284.00     18654.29
 1215.22        2972.75           1526        2660.00     11568.53
 1215.25        2973.00           1529        1205.00      5222.70
 1215.28        2973.25           1533         513.00      2205.46
 1215.31        2973.50           1536         377.00      1612.55
 1215.34        2973.75           1539         327.00      1394.57
 1215.37        2974.00           1543         259.00      1098.12
 1215.40        2974.25           1546         200.00       840.91
 1215.43        2974.50           1549         151.00       627.30
 1215.46        2974.75           1553         104.00       422.41
 1215.50        2975.00           1556          79.00       313.43
 1215.53        2975.25           1559          81.00       322.15
 1215.56        2975.50           1563          70.00       274.20
 1215.59        2975.75           1566          75.00       295.99
 1215.62        2976.00           1569          85.00       339.59
 1215.65        2976.25           1573          78.00       309.07
 1215.68        2976.50           1576          81.00       322.15
 1215.71        2976.75           1579          82.00       326.51
 1215.74        2977.00           1583          79.00       313.43
 1215.77        2977.25           1586          70.00       274.20
 1215.80        2977.50           1590          76.00       300.35
 1215.83        2977.75           1593          73.00       287.27
 1215.87        2978.00           1596          74.00       291.63
 1215.90        2978.25           1600          70.00       274.20
 1215.93        2978.50           1603          76.00       300.35
 1215.96        2978.75           1606          77.00       304.71
 1215.99        2979.00           1610          65.00       252.40
 1216.02        2979.25           1613          71.00       278.56
 1216.05        2979.50           1616          85.00       339.59
 1216.08        2979.75           1620          71.00       278.56
 1216.11        2980.00           1623          67.00       261.12
 1216.15        2980.25           1626          73.00       287.27
 1216.18        2980.50           1630          62.00       239.32
 1216.21        2980.75           1633          74.00       291.63
 1216.24        2981.00           1637          72.00       282.91
 1216.27        2981.25           1640          68.00       265.48
 1216.30        2981.50           1643          69.00       269.84
 1216.33        2981.75           1647          70.00       274.20
 1216.36        2982.00           1650          70.00       274.20
 1216.39        2982.25           1653          70.00       274.20
 1216.42        2982.50           1657          69.00       269.84
 1216.45        2982.75           1660          74.00       291.63
 1216.48        2983.00           1663          68.00       265.48
 1216.51        2983.25           1667          72.00       282.91
 1216.55        2983.50           1670          70.00       274.20
 1216.58        2983.75           1673          69.00       269.84
 1216.61        2984.00           1677          70.00       274.20
HS scan finished at 20:16:49
end
