************************************************************
  HS Scan of (1) Internal mercury lamp
************************************************************
Integration time is 0.2294 seconds per sample
dh210817Manchester 53.47 2.23 2.857833pr1000
************************************************************
Dead Time -------------------------  3E-08 
Number of Cycles Used -------------  4 
Starting Wavelength (Angstroms) ---  2950 
Final Wavelength (Angstoms) -------  2984 
Wavelength Increment (Angstroms) --  .25 
Filter Wheel #1 Position ---------- (1) Ground quartz diffuser (ND=2.32)
Filter Wheel #2 Position ---------- (1) Neutral Density 0.494



************************************************************
HS scan start time = 01:40:30
Dark Count =  5.6 


Time (GMT)  Wavelength (Ang)  Step Number  Raw Counts  Counts/Second

  100.88        2950.00           1222          83.00       337.41
  100.94        2950.25           1226          86.00       350.48
  100.97        2950.50           1229          82.00       333.05
  101.00        2950.75           1232          75.00       302.53
  101.03        2951.00           1236          77.00       311.25
  101.06        2951.25           1239          78.00       315.61
  101.10        2951.50           1242          88.00       359.20
  101.13        2951.75           1246          79.00       319.97
  101.16        2952.00           1249          79.00       319.97
  101.19        2952.25           1252          81.00       328.69
  101.22        2952.50           1256          77.00       311.25
  101.25        2952.75           1259          83.00       337.41
  101.28        2953.00           1262          83.00       337.41
  101.31        2953.25           1266          89.00       363.56
  101.34        2953.50           1269          85.00       346.12
  101.37        2953.75           1272          80.00       324.33
  101.40        2954.00           1276          82.00       333.05
  101.43        2954.25           1279          77.00       311.25
  101.46        2954.50           1282          76.00       306.89
  101.49        2954.75           1286          81.00       328.69
  101.53        2955.00           1289          80.00       324.33
  101.56        2955.25           1292          89.00       363.56
  101.59        2955.50           1296          68.00       272.02
  101.62        2955.75           1299          79.00       319.97
  101.65        2956.00           1302          86.00       350.48
  101.68        2956.25           1306          78.00       315.61
  101.71        2956.50           1309          88.00       359.20
  101.74        2956.75           1312          80.00       324.33
  101.77        2957.00           1316          87.00       354.84
  101.80        2957.25           1319          79.00       319.97
  101.83        2957.50           1322          77.00       311.25
  101.86        2957.75           1326          80.00       324.33
  101.89        2958.00           1329          82.00       333.05
  101.93        2958.25           1332          75.00       302.53
  101.96        2958.50           1336          83.00       337.41
  101.99        2958.75           1339          83.00       337.41
  102.02        2959.00           1342          71.00       285.09
  102.05        2959.25           1346          80.00       324.33
  102.08        2959.50           1349          87.00       354.84
  102.11        2959.75           1352         104.00       428.95
  102.14        2960.00           1356         149.00       625.12
  102.17        2960.25           1359         160.00       673.07
  102.20        2960.50           1362         198.00       838.73
  102.23        2960.75           1366         263.00      1122.10
  102.26        2961.00           1369         305.00      1305.20
  102.29        2961.25           1372         354.00      1518.81
  102.32        2961.50           1376         476.00      2050.69
  102.35        2961.75           1379         923.00      3999.61
  102.39        2962.00           1382        2105.00      9154.21
  102.42        2962.25           1386        4093.00     17827.32
  102.45        2962.50           1389        5820.00     25365.42
  102.48        2962.75           1392        7444.00     32457.05
  102.51        2963.00           1396        9586.00     41815.29
  102.54        2963.25           1399       11105.00     48454.87
  102.57        2963.50           1402       12913.00     56361.14
  102.60        2963.75           1406       15124.00     66034.79
  102.63        2964.00           1409       16676.00     72828.53
  102.66        2964.25           1412       18477.00     80715.71
  102.70        2964.50           1416       20845.00     91091.66
  102.73        2964.75           1419       22526.00     98461.29
  102.76        2965.00           1422       24279.00    106150.10
  102.79        2965.25           1426       26538.00    116063.40
  102.82        2965.50           1429       28221.00    123452.90
  102.85        2965.75           1432       29739.00    130120.70
  102.88        2966.00           1436       32078.00    140400.10
  102.91        2966.25           1439       33633.00    147237.40
  102.94        2966.50           1442       35173.00    154011.60
  102.98        2966.75           1446       35940.00    157386.50
  103.01        2967.00           1449       35940.00    157386.50
  103.04        2967.25           1452       35948.00    157421.70
  103.07        2967.50           1456       36043.00    157839.80
  103.10        2967.75           1459       35940.00    157386.50
  103.13        2968.00           1462       35305.00    154592.40
  103.16        2968.25           1466       33556.00    146898.80
  103.19        2968.50           1469       31929.00    139745.10
  103.22        2968.75           1472       30323.00    132686.70
  103.25        2969.00           1476       28188.00    123308.00
  103.29        2969.25           1479       26889.00    117604.30
  103.32        2969.50           1482       25210.00    110234.90
  103.35        2969.75           1486       22903.00    100114.60
  103.38        2970.00           1489       21440.00     93699.82
  103.41        2970.25           1492       19839.00     86682.84
  103.44        2970.50           1496       17493.00     76405.97
  103.47        2970.75           1499       15788.00     68941.06
  103.50        2971.00           1502       14033.00     61260.70
  103.53        2971.25           1506       11935.00     52083.94
  103.57        2971.50           1509       10161.00     44328.32
  103.60        2971.75           1513        8055.00     35125.92
  103.63        2972.00           1516        6363.00     27736.24
  103.66        2972.25           1519        4846.00     21113.63
  103.69        2972.50           1523        2680.00     11662.32
  103.72        2972.75           1526        1351.00      5865.90
  103.75        2973.00           1529         668.00      2887.78
  103.78        2973.25           1533         435.00      1871.94
  103.81        2973.50           1536         358.00      1536.25
  103.84        2973.75           1539         333.00      1427.26
  103.88        2974.00           1543         267.00      1139.53
  103.91        2974.25           1546         210.00       891.04
  103.94        2974.50           1549         149.00       625.12
  103.97        2974.75           1553         108.00       446.39
  104.00        2975.00           1556          99.00       407.15
  104.03        2975.25           1559          79.00       319.97
  104.06        2975.50           1563          74.00       298.17
  104.09        2975.75           1566          82.00       333.05
  104.12        2976.00           1569          84.00       341.76
  104.15        2976.25           1573          70.00       280.73
  104.18        2976.50           1576          87.00       354.84
  104.21        2976.75           1579          76.00       306.89
  104.24        2977.00           1583          69.00       276.38
  104.27        2977.25           1586          73.00       293.81
  104.30        2977.50           1590          75.00       302.53
  104.34        2977.75           1593          79.00       319.97
  104.37        2978.00           1596          86.00       350.48
  104.40        2978.25           1600          69.00       276.38
  104.43        2978.50           1603          74.00       298.17
  104.46        2978.75           1606          70.00       280.73
  104.49        2979.00           1610          83.00       337.41
  104.52        2979.25           1613          63.00       250.22
  104.55        2979.50           1616          74.00       298.17
  104.58        2979.75           1620          74.00       298.17
  104.61        2980.00           1623          82.00       333.05
  104.64        2980.25           1626          69.00       276.38
  104.68        2980.50           1630          77.00       311.25
  104.71        2980.75           1633          75.00       302.53
  104.74        2981.00           1637          79.00       319.97
  104.77        2981.25           1640          75.00       302.53
  104.80        2981.50           1643          77.00       311.25
  104.83        2981.75           1647          64.00       254.58
  104.86        2982.00           1650          65.00       258.94
  104.89        2982.25           1653          70.00       280.73
  104.92        2982.50           1657          76.00       306.89
  104.95        2982.75           1660          80.00       324.33
  104.98        2983.00           1663          72.00       289.45
  105.01        2983.25           1667          64.00       254.58
  105.04        2983.50           1670          79.00       319.97
  105.07        2983.75           1673          69.00       276.38
  105.10        2984.00           1677          77.00       311.25
HS scan finished at 01:45:19
end
************************************************************
  HS Scan of (1) Internal mercury lamp
************************************************************
Integration time is 0.2294 seconds per sample
dh210817Manchester 53.47 2.23 2.965129pr1000
************************************************************
Dead Time -------------------------  3E-08 
Number of Cycles Used -------------  4 
Starting Wavelength (Angstroms) ---  2950 
Final Wavelength (Angstoms) -------  2984 
Wavelength Increment (Angstroms) --  .25 
Filter Wheel #1 Position ---------- (1) Ground quartz diffuser (ND=2.32)
Filter Wheel #2 Position ---------- (1) Neutral Density 0.494



************************************************************
HS scan start time = 20:12:03
Dark Count =  6.9 


Time (GMT)  Wavelength (Ang)  Step Number  Raw Counts  Counts/Second

 1212.42        2950.00           1222          82.00       327.38
 1212.49        2950.25           1226          76.00       301.22
 1212.52        2950.50           1229          68.00       266.35
 1212.55        2950.75           1232          89.00       357.89
 1212.58        2951.00           1236          83.00       331.74
 1212.61        2951.25           1239          76.00       301.22
 1212.64        2951.50           1242          86.00       344.82
 1212.67        2951.75           1246          79.00       314.30
 1212.70        2952.00           1249          81.00       323.02
 1212.73        2952.25           1252          83.00       331.74
 1212.76        2952.50           1256          83.00       331.74
 1212.79        2952.75           1259          85.00       340.46
 1212.82        2953.00           1262          87.00       349.18
 1212.85        2953.25           1266          86.00       344.82
 1212.89        2953.50           1269          82.00       327.38
 1212.92        2953.75           1272          82.00       327.38
 1212.95        2954.00           1276          78.00       309.94
 1212.98        2954.25           1279          80.00       318.66
 1213.01        2954.50           1282          78.00       309.94
 1213.04        2954.75           1286          88.00       353.53
 1213.07        2955.00           1289          81.00       323.02
 1213.10        2955.25           1292          82.00       327.38
 1213.13        2955.50           1296          84.00       336.10
 1213.16        2955.75           1299          75.00       296.86
 1213.19        2956.00           1302          81.00       323.02
 1213.23        2956.25           1306          84.00       336.10
 1213.26        2956.50           1309          79.00       314.30
 1213.29        2956.75           1312          85.00       340.46
 1213.32        2957.00           1316          81.00       323.02
 1213.35        2957.25           1319          79.00       314.30
 1213.38        2957.50           1322          78.00       309.94
 1213.41        2957.75           1326          81.00       323.02
 1213.44        2958.00           1329          72.00       283.79
 1213.47        2958.25           1332          78.00       309.94
 1213.50        2958.50           1336          83.00       331.74
 1213.53        2958.75           1339          92.00       370.97
 1213.56        2959.00           1342          76.00       301.22
 1213.59        2959.25           1346          91.00       366.61
 1213.63        2959.50           1349          95.00       384.05
 1213.66        2959.75           1352         100.00       405.85
 1213.69        2960.00           1356         140.00       580.22
 1213.72        2960.25           1359         175.00       732.80
 1213.75        2960.50           1362         217.00       915.89
 1213.78        2960.75           1366         281.00      1194.90
 1213.81        2961.00           1369         317.00      1351.84
 1213.84        2961.25           1372         373.00      1595.98
 1213.87        2961.50           1376         454.00      1949.11
 1213.90        2961.75           1379         611.00      2633.60
 1213.93        2962.00           1382        1250.00      5419.80
 1213.96        2962.25           1386        3065.00     13336.20
 1213.99        2962.50           1389        4795.00     20885.36
 1214.03        2962.75           1392        6414.00     27953.25
 1214.06        2963.00           1396        8593.00     37470.61
 1214.09        2963.25           1399       10352.00     45157.47
 1214.12        2963.50           1402       12097.00     52786.67
 1214.15        2963.75           1406       14447.00     63066.46
 1214.18        2964.00           1409       16268.00     71036.58
 1214.21        2964.25           1412       17958.00     78436.75
 1214.24        2964.50           1416       20565.00     89858.74
 1214.27        2964.75           1419       22078.00     96491.21
 1214.30        2965.00           1422       23791.00    104003.60
 1214.33        2965.25           1426       26072.00    114012.20
 1214.37        2965.50           1429       27811.00    121646.70
 1214.40        2965.75           1432       29430.00    128757.50
 1214.43        2966.00           1436       31684.00    138662.40
 1214.46        2966.25           1439       33078.00    144791.10
 1214.49        2966.50           1442       35035.00    153398.80
 1214.52        2966.75           1446       36919.00    161689.60
 1214.55        2967.00           1449       37493.00    164216.40
 1214.58        2967.25           1452       37571.00    164559.80
 1214.61        2967.50           1456       37443.00    163996.30
 1214.65        2967.75           1459       37504.00    164264.80
 1214.68        2968.00           1462       37369.00    163670.50
 1214.71        2968.25           1466       36602.00    160294.30
 1214.74        2968.50           1469       35057.00    153495.50
 1214.77        2968.75           1472       33499.00    146642.40
 1214.80        2969.00           1476       31234.00    136684.40
 1214.83        2969.25           1479       29531.00    129201.20
 1214.86        2969.50           1482       28037.00    122639.10
 1214.89        2969.75           1486       25590.00    111896.80
 1214.93        2970.00           1489       23824.00    104148.40
 1214.96        2970.25           1492       22160.00     96850.75
 1214.99        2970.50           1496       19939.00     87115.34
 1215.02        2970.75           1499       18028.00     78743.34
 1215.05        2971.00           1502       16457.00     71864.01
 1215.08        2971.25           1506       14241.00     62165.09
 1215.11        2971.50           1509       12439.00     54282.32
 1215.14        2971.75           1513       10281.00     44847.14
 1215.17        2972.00           1516        8478.00     36968.18
 1215.20        2972.25           1519        6778.00     29542.74
 1215.23        2972.50           1523        4490.00     19554.19
 1215.27        2972.75           1526        2737.00     11905.30
 1215.30        2973.00           1529        1222.00      5297.70
 1215.33        2973.25           1533         516.00      2219.42
 1215.36        2973.50           1536         378.00      1617.78
 1215.39        2973.75           1539         316.00      1347.48
 1215.42        2974.00           1543         266.00      1129.51
 1215.45        2974.25           1546         210.00       885.38
 1215.48        2974.50           1549         170.00       711.00
 1215.51        2974.75           1553         111.00       453.80
 1215.54        2975.00           1556          99.00       401.49
 1215.58        2975.25           1559          78.00       309.94
 1215.61        2975.50           1563          83.00       331.74
 1215.64        2975.75           1566          79.00       314.30
 1215.67        2976.00           1569          83.00       331.74
 1215.70        2976.25           1573          82.00       327.38
 1215.73        2976.50           1576          74.00       292.50
 1215.76        2976.75           1579          79.00       314.30
 1215.79        2977.00           1583          83.00       331.74
 1215.82        2977.25           1586          67.00       261.99
 1215.85        2977.50           1590          65.00       253.27
 1215.88        2977.75           1593          76.00       301.22
 1215.91        2978.00           1596          65.00       253.27
 1215.94        2978.25           1600          71.00       279.43
 1215.97        2978.50           1603          72.00       283.79
 1216.01        2978.75           1606          76.00       301.22
 1216.04        2979.00           1610          80.00       318.66
 1216.07        2979.25           1613          71.00       279.43
 1216.10        2979.50           1616          79.00       314.30
 1216.13        2979.75           1620          71.00       279.43
 1216.16        2980.00           1623          73.00       288.15
 1216.19        2980.25           1626          71.00       279.43
 1216.22        2980.50           1630          76.00       301.22
 1216.25        2980.75           1633          77.00       305.58
 1216.28        2981.00           1637          90.00       362.25
 1216.31        2981.25           1640          74.00       292.50
 1216.35        2981.50           1643          78.00       309.94
 1216.38        2981.75           1647          74.00       292.50
 1216.41        2982.00           1650          73.00       288.15
 1216.44        2982.25           1653          69.00       270.71
 1216.47        2982.50           1657          70.00       275.07
 1216.50        2982.75           1660          65.00       253.27
 1216.53        2983.00           1663          82.00       327.38
 1216.56        2983.25           1667          83.00       331.74
 1216.59        2983.50           1670          73.00       288.15
 1216.62        2983.75           1673          75.00       296.86
 1216.65        2984.00           1677          75.00       296.86
HS scan finished at 20:16:52
end
