************************************************************
  HS Scan of (1) Internal mercury lamp
************************************************************
Integration time is 0.2294 seconds per sample
dh050918Manchester 53.47 2.23 2.804185pr1000
************************************************************
Dead Time -------------------------  3E-08 
Number of Cycles Used -------------  4 
Starting Wavelength (Angstroms) ---  2950 
Final Wavelength (Angstoms) -------  2984 
Wavelength Increment (Angstroms) --  .25 
Filter Wheel #1 Position ---------- (1) Ground quartz diffuser (ND=2.32)
Filter Wheel #2 Position ---------- (1) Neutral Density 0.494



************************************************************
HS scan start time = 01:35:44
Dark Count =  6.9 


Time (GMT)  Wavelength (Ang)  Step Number  Raw Counts  Counts/Second

   96.11        2950.00           1222          49.00       183.52
   96.18        2950.25           1226          54.00       205.32
   96.21        2950.50           1229          58.00       222.76
   96.24        2950.75           1232          50.00       187.88
   96.27        2951.00           1236          48.00       179.16
   96.30        2951.25           1239          54.00       205.32
   96.33        2951.50           1242          49.00       183.52
   96.36        2951.75           1246          47.00       174.80
   96.39        2952.00           1249          45.00       166.09
   96.42        2952.25           1252          49.00       183.52
   96.46        2952.50           1256          50.00       187.88
   96.49        2952.75           1259          51.00       192.24
   96.52        2953.00           1262          55.00       209.68
   96.55        2953.25           1266          47.00       174.80
   96.58        2953.50           1269          51.00       192.24
   96.61        2953.75           1272          50.00       187.88
   96.64        2954.00           1276          54.00       205.32
   96.67        2954.25           1279          52.00       196.60
   96.70        2954.50           1282          52.00       196.60
   96.73        2954.75           1286          49.00       183.52
   96.76        2955.00           1289          55.00       209.68
   96.79        2955.25           1292          54.00       205.32
   96.82        2955.50           1296          47.00       174.80
   96.86        2955.75           1299          47.00       174.80
   96.89        2956.00           1302          53.00       200.96
   96.92        2956.25           1306          49.00       183.52
   96.95        2956.50           1309          48.00       179.16
   96.98        2956.75           1312          51.00       192.24
   97.01        2957.00           1316          53.00       200.96
   97.04        2957.25           1319          53.00       200.96
   97.07        2957.50           1322          50.00       187.88
   97.10        2957.75           1326          56.00       214.04
   97.13        2958.00           1329          49.00       183.52
   97.17        2958.25           1332          48.00       179.16
   97.20        2958.50           1336          53.00       200.96
   97.23        2958.75           1339          56.00       214.04
   97.26        2959.00           1342          48.00       179.16
   97.29        2959.25           1346          58.00       222.76
   97.32        2959.50           1349          62.00       240.19
   97.35        2959.75           1352          65.00       253.27
   97.38        2960.00           1356          95.00       384.05
   97.41        2960.25           1359         120.00       493.03
   97.44        2960.50           1362         142.00       588.94
   97.47        2960.75           1366         188.00       789.47
   97.50        2961.00           1369         202.00       850.50
   97.54        2961.25           1372         258.00      1094.63
   97.57        2961.50           1376         315.00      1343.12
   97.60        2961.75           1379         400.00      1713.69
   97.63        2962.00           1382         848.00      3666.92
   97.66        2962.25           1386        2150.00      9344.82
   97.69        2962.50           1389        3437.00     14959.20
   97.72        2962.75           1392        4761.00     20736.96
   97.75        2963.00           1396        6419.00     27975.08
   97.78        2963.25           1399        7582.00     33054.12
   97.81        2963.50           1402        8865.00     38659.02
   97.84        2963.75           1406       10612.00     46293.98
   97.87        2964.00           1409       11892.00     51890.22
   97.91        2964.25           1412       13218.00     57689.56
   97.94        2964.50           1416       14818.00     64689.94
   97.97        2964.75           1419       16081.00     70217.95
   98.00        2965.00           1422       17481.00     76347.74
   98.03        2965.25           1426       19232.00     84017.52
   98.06        2965.50           1429       20436.00     89293.38
   98.09        2965.75           1432       21828.00     95395.10
   98.12        2966.00           1436       23578.00    103069.30
   98.16        2966.25           1439       24649.00    107767.60
   98.19        2966.50           1442       25863.00    113094.90
   98.22        2966.75           1446       26954.00    117883.90
   98.25        2967.00           1449       27260.00    119227.40
   98.28        2967.25           1452       27227.00    119082.50
   98.31        2967.50           1456       27282.00    119324.00
   98.34        2967.75           1459       27375.00    119732.30
   98.37        2968.00           1462       27070.00    118393.20
   98.40        2968.25           1466       26209.00    114613.60
   98.44        2968.50           1469       25177.00    110084.40
   98.47        2968.75           1472       24081.00    105275.70
   98.50        2969.00           1476       22340.00     97639.99
   98.53        2969.25           1479       21215.00     92707.79
   98.56        2969.50           1482       19782.00     86427.38
   98.59        2969.75           1486       18113.00     79115.63
   98.62        2970.00           1489       16852.00     73593.43
   98.65        2970.25           1492       15771.00     68860.93
   98.68        2970.50           1496       14091.00     61508.77
   98.71        2970.75           1499       12688.00     55371.33
   98.75        2971.00           1502       11445.00     49935.69
   98.78        2971.25           1506        9826.00     42858.47
   98.81        2971.50           1509        8462.00     36898.27
   98.84        2971.75           1513        6851.00     29861.53
   98.87        2972.00           1516        5708.00     24870.77
   98.90        2972.25           1519        4337.00     18886.46
   98.93        2972.50           1523        2825.00     12289.19
   98.96        2972.75           1526        1642.00      7129.25
   98.99        2973.00           1529         786.00      3396.60
   99.02        2973.25           1533         346.00      1478.27
   99.05        2973.50           1536         256.00      1085.91
   99.08        2973.75           1539         222.00       937.69
   99.11        2974.00           1543         181.00       758.95
   99.14        2974.25           1546         133.00       549.70
   99.18        2974.50           1549         106.00       432.00
   99.21        2974.75           1553          82.00       327.38
   99.24        2975.00           1556          61.00       235.83
   99.27        2975.25           1559          56.00       214.04
   99.30        2975.50           1563          51.00       192.24
   99.33        2975.75           1566          55.00       209.68
   99.36        2976.00           1569          57.00       218.40
   99.39        2976.25           1573          51.00       192.24
   99.42        2976.50           1576          44.00       161.73
   99.45        2976.75           1579          54.00       205.32
   99.48        2977.00           1583          43.00       157.37
   99.51        2977.25           1586          52.00       196.60
   99.54        2977.50           1590          52.00       196.60
   99.57        2977.75           1593          43.00       157.37
   99.60        2978.00           1596          46.00       170.45
   99.64        2978.25           1600          49.00       183.52
   99.67        2978.50           1603          49.00       183.52
   99.70        2978.75           1606          43.00       157.37
   99.73        2979.00           1610          47.00       174.80
   99.76        2979.25           1613          49.00       183.52
   99.79        2979.50           1616          55.00       209.68
   99.82        2979.75           1620          55.00       209.68
   99.85        2980.00           1623          44.00       161.73
   99.88        2980.25           1626          46.00       170.45
   99.91        2980.50           1630          47.00       174.80
   99.94        2980.75           1633          46.00       170.45
   99.97        2981.00           1637          46.00       170.45
  100.01        2981.25           1640          37.00       131.21
  100.04        2981.50           1643          51.00       192.24
  100.07        2981.75           1647          44.00       161.73
  100.10        2982.00           1650          48.00       179.16
  100.13        2982.25           1653          44.00       161.73
  100.16        2982.50           1657          42.00       153.01
  100.19        2982.75           1660          47.00       174.80
  100.22        2983.00           1663          42.00       153.01
  100.25        2983.25           1667          52.00       196.60
  100.28        2983.50           1670          45.00       166.09
  100.31        2983.75           1673          50.00       187.88
  100.34        2984.00           1677          46.00       170.45
HS scan finished at 01:40:34
end
************************************************************
  HS Scan of (1) Internal mercury lamp
************************************************************
Integration time is 0.2294 seconds per sample
dh050918Manchester 53.47 2.23 2.804185pr1000
************************************************************
Dead Time -------------------------  3E-08 
Number of Cycles Used -------------  4 
Starting Wavelength (Angstroms) ---  2950 
Final Wavelength (Angstoms) -------  2984 
Wavelength Increment (Angstroms) --  .25 
Filter Wheel #1 Position ---------- (1) Ground quartz diffuser (ND=2.32)
Filter Wheel #2 Position ---------- (1) Neutral Density 0.494



************************************************************
HS scan start time = 19:42:03
Dark Count =  6.4 


Time (GMT)  Wavelength (Ang)  Step Number  Raw Counts  Counts/Second

 1182.42        2950.00           1222          49.00       185.70
 1182.49        2950.25           1226          44.00       163.91
 1182.52        2950.50           1229          48.00       181.34
 1182.55        2950.75           1232          54.00       207.50
 1182.58        2951.00           1236          49.00       185.70
 1182.61        2951.25           1239          48.00       181.34
 1182.64        2951.50           1242          45.00       168.27
 1182.67        2951.75           1246          57.00       220.58
 1182.70        2952.00           1249          48.00       181.34
 1182.74        2952.25           1252          44.00       163.91
 1182.77        2952.50           1256          52.00       198.78
 1182.80        2952.75           1259          50.00       190.06
 1182.83        2953.00           1262          58.00       224.94
 1182.86        2953.25           1266          55.00       211.86
 1182.89        2953.50           1269          44.00       163.91
 1182.92        2953.75           1272          54.00       207.50
 1182.95        2954.00           1276          50.00       190.06
 1182.98        2954.25           1279          55.00       211.86
 1183.01        2954.50           1282          59.00       229.30
 1183.05        2954.75           1286          51.00       194.42
 1183.08        2955.00           1289          48.00       181.34
 1183.11        2955.25           1292          53.00       203.14
 1183.14        2955.50           1296          54.00       207.50
 1183.17        2955.75           1299          50.00       190.06
 1183.20        2956.00           1302          51.00       194.42
 1183.23        2956.25           1306          54.00       207.50
 1183.26        2956.50           1309          45.00       168.27
 1183.30        2956.75           1312          56.00       216.22
 1183.33        2957.00           1316          52.00       198.78
 1183.36        2957.25           1319          57.00       220.58
 1183.39        2957.50           1322          54.00       207.50
 1183.42        2957.75           1326          49.00       185.70
 1183.45        2958.00           1329          51.00       194.42
 1183.48        2958.25           1332          48.00       181.34
 1183.51        2958.50           1336          45.00       168.27
 1183.54        2958.75           1339          50.00       190.06
 1183.57        2959.00           1342          50.00       190.06
 1183.60        2959.25           1346          58.00       224.94
 1183.64        2959.50           1349          54.00       207.50
 1183.67        2959.75           1352          65.00       255.45
 1183.70        2960.00           1356          74.00       294.68
 1183.73        2960.25           1359         119.00       490.85
 1183.76        2960.50           1362         142.00       591.12
 1183.79        2960.75           1366         189.00       796.01
 1183.82        2961.00           1369         223.00       944.23
 1183.85        2961.25           1372         247.00      1048.86
 1183.88        2961.50           1376         309.00      1319.15
 1183.92        2961.75           1379         470.00      2021.05
 1183.95        2962.00           1382        1065.00      4615.29
 1183.98        2962.25           1386        2615.00     11375.29
 1184.01        2962.50           1389        3814.00     16606.35
 1184.04        2962.75           1392        5021.00     21873.99
 1184.07        2963.00           1396        6698.00     29195.57
 1184.10        2963.25           1399        7685.00     33506.20
 1184.13        2963.50           1402        9052.00     39478.29
 1184.16        2963.75           1406       10751.00     46903.79
 1184.20        2964.00           1409       11825.00     51599.43
 1184.23        2964.25           1412       13194.00     57586.76
 1184.26        2964.50           1416       14929.00     65177.89
 1184.29        2964.75           1419       16056.00     70110.69
 1184.32        2965.00           1422       17564.00     76713.40
 1184.35        2965.25           1426       19235.00     84032.85
 1184.38        2965.50           1429       20522.00     89672.47
 1184.41        2965.75           1432       21771.00     95147.41
 1184.44        2966.00           1436       23435.00    102444.30
 1184.48        2966.25           1439       24622.00    107651.40
 1184.51        2966.50           1442       25848.00    113031.30
 1184.54        2966.75           1446       26872.00    117526.10
 1184.57        2967.00           1449       27277.00    119304.20
 1184.60        2967.25           1452       27081.00    118443.70
 1184.63        2967.50           1456       27159.00    118786.10
 1184.66        2967.75           1459       27269.00    119269.10
 1184.69        2968.00           1462       27114.00    118588.60
 1184.72        2968.25           1466       26118.00    114216.30
 1184.76        2968.50           1469       25095.00    109726.80
 1184.79        2968.75           1472       23835.00    104198.80
 1184.82        2969.00           1476       22213.00     97085.33
 1184.85        2969.25           1479       21081.00     92122.59
 1184.88        2969.50           1482       19823.00     86609.22
 1184.91        2969.75           1486       18103.00     79074.02
 1184.94        2970.00           1489       16972.00     74121.04
 1184.97        2970.25           1492       15736.00     68709.93
 1185.00        2970.50           1496       14147.00     61755.99
 1185.04        2970.75           1499       12722.00     55522.22
 1185.07        2971.00           1502       11399.00     49736.76
 1185.10        2971.25           1506        9807.00     42777.62
 1185.13        2971.50           1509        8473.00     36948.52
 1185.16        2971.75           1513        6812.00     29693.40
 1185.19        2972.00           1516        5536.00     24122.07
 1185.22        2972.25           1519        4306.00     18753.36
 1185.25        2972.50           1523        2743.00     11933.65
 1185.28        2972.75           1526        1563.00      6786.91
 1185.32        2973.00           1529         703.00      3036.89
 1185.35        2973.25           1533         365.00      1563.28
 1185.38        2973.50           1536         268.00      1140.41
 1185.41        2973.75           1539         229.00       970.39
 1185.44        2974.00           1543         189.00       796.01
 1185.47        2974.25           1546         143.00       595.48
 1185.50        2974.50           1549          98.00       399.31
 1185.53        2974.75           1553          83.00       333.92
 1185.56        2975.00           1556          66.00       259.81
 1185.59        2975.25           1559          55.00       211.86
 1185.63        2975.50           1563          48.00       181.34
 1185.66        2975.75           1566          52.00       198.78
 1185.69        2976.00           1569          55.00       211.86
 1185.72        2976.25           1573          46.00       172.63
 1185.75        2976.50           1576          47.00       176.98
 1185.78        2976.75           1579          52.00       198.78
 1185.81        2977.00           1583          48.00       181.34
 1185.84        2977.25           1586          51.00       194.42
 1185.87        2977.50           1590          50.00       190.06
 1185.91        2977.75           1593          50.00       190.06
 1185.94        2978.00           1596          48.00       181.34
 1185.97        2978.25           1600          47.00       176.98
 1186.00        2978.50           1603          45.00       168.27
 1186.03        2978.75           1606          45.00       168.27
 1186.06        2979.00           1610          56.00       216.22
 1186.09        2979.25           1613          50.00       190.06
 1186.12        2979.50           1616          49.00       185.70
 1186.15        2979.75           1620          48.00       181.34
 1186.18        2980.00           1623          50.00       190.06
 1186.21        2980.25           1626          48.00       181.34
 1186.25        2980.50           1630          50.00       190.06
 1186.28        2980.75           1633          45.00       168.27
 1186.31        2981.00           1637          42.00       155.19
 1186.34        2981.25           1640          49.00       185.70
 1186.37        2981.50           1643          43.00       159.55
 1186.40        2981.75           1647          41.00       150.83
 1186.43        2982.00           1650          42.00       155.19
 1186.46        2982.25           1653          51.00       194.42
 1186.49        2982.50           1657          47.00       176.98
 1186.53        2982.75           1660          42.00       155.19
 1186.56        2983.00           1663          45.00       168.27
 1186.59        2983.25           1667          46.00       172.63
 1186.62        2983.50           1670          46.00       172.63
 1186.65        2983.75           1673          45.00       168.27
 1186.68        2984.00           1677          41.00       150.83
HS scan finished at 19:46:54
end
