************************************************************
  HS Scan of (1) Internal mercury lamp
************************************************************
Integration time is 0.2294 seconds per sample
dh290818Manchester 53.47 2.23 2.911481pr1000
************************************************************
Dead Time -------------------------  3E-08 
Number of Cycles Used -------------  4 
Starting Wavelength (Angstroms) ---  2950 
Final Wavelength (Angstoms) -------  2984 
Wavelength Increment (Angstroms) --  .25 
Filter Wheel #1 Position ---------- (1) Ground quartz diffuser (ND=2.32)
Filter Wheel #2 Position ---------- (1) Neutral Density 0.494



************************************************************
HS scan start time = 01:38:17
Dark Count =  4.8 


Time (GMT)  Wavelength (Ang)  Step Number  Raw Counts  Counts/Second

   98.65        2950.00           1222          54.00       214.47
   98.72        2950.25           1226          45.00       175.24
   98.75        2950.50           1229          49.00       192.68
   98.78        2950.75           1232          47.00       183.96
   98.81        2951.00           1236          57.00       227.55
   98.84        2951.25           1239          58.00       231.91
   98.87        2951.50           1242          49.00       192.68
   98.90        2951.75           1246          52.00       205.76
   98.93        2952.00           1249          53.00       210.11
   98.96        2952.25           1252          64.00       258.07
   98.99        2952.50           1256          58.00       231.91
   99.02        2952.75           1259          54.00       214.47
   99.05        2953.00           1262          62.00       249.35
   99.08        2953.25           1266          50.00       197.04
   99.11        2953.50           1269          53.00       210.11
   99.14        2953.75           1272          53.00       210.11
   99.17        2954.00           1276          45.00       175.24
   99.21        2954.25           1279          53.00       210.11
   99.24        2954.50           1282          56.00       223.19
   99.27        2954.75           1286          45.00       175.24
   99.30        2955.00           1289          53.00       210.11
   99.33        2955.25           1292          53.00       210.11
   99.36        2955.50           1296          47.00       183.96
   99.39        2955.75           1299          54.00       214.47
   99.42        2956.00           1302          56.00       223.19
   99.45        2956.25           1306          56.00       223.19
   99.48        2956.50           1309          49.00       192.68
   99.51        2956.75           1312          55.00       218.83
   99.54        2957.00           1316          59.00       236.27
   99.58        2957.25           1319          54.00       214.47
   99.61        2957.50           1322          47.00       183.96
   99.64        2957.75           1326          56.00       223.19
   99.67        2958.00           1329          53.00       210.11
   99.70        2958.25           1332          48.00       188.32
   99.73        2958.50           1336          50.00       197.04
   99.76        2958.75           1339          56.00       223.19
   99.79        2959.00           1342          51.00       201.40
   99.82        2959.25           1346          68.00       275.50
   99.85        2959.50           1349          55.00       218.83
   99.89        2959.75           1352          75.00       306.02
   99.92        2960.00           1356          86.00       353.97
   99.95        2960.25           1359         116.00       484.75
   99.98        2960.50           1362         139.00       585.01
  100.01        2960.75           1366         177.00       750.67
  100.04        2961.00           1369         232.00       990.44
  100.07        2961.25           1372         262.00      1121.22
  100.10        2961.50           1376         300.00      1286.89
  100.13        2961.75           1379         409.00      1762.08
  100.16        2962.00           1382         664.00      2873.83
  100.19        2962.25           1386        1875.00      8154.57
  100.23        2962.50           1389        3099.00     13493.69
  100.26        2962.75           1392        4344.00     18926.18
  100.29        2963.00           1396        6069.00     26456.04
  100.32        2963.25           1399        7421.00     32360.09
  100.35        2963.50           1402        8797.00     38371.09
  100.38        2963.75           1406       10626.00     46364.36
  100.41        2964.00           1409       11917.00     52008.73
  100.44        2964.25           1412       13443.00     58683.00
  100.47        2964.50           1416       15280.00     66721.05
  100.50        2964.75           1419       16517.00     72135.88
  100.54        2965.00           1422       17866.00     78043.02
  100.57        2965.25           1426       19629.00     85766.18
  100.60        2965.50           1429       20899.00     91331.86
  100.63        2965.75           1432       22479.00     98258.71
  100.66        2966.00           1436       23989.00    104881.40
  100.69        2966.25           1439       25429.00    111199.50
  100.72        2966.50           1442       26523.00    116001.10
  100.75        2966.75           1446       28090.00    122881.10
  100.78        2967.00           1449       28618.00    125200.00
  100.82        2967.25           1452       28898.00    126429.80
  100.85        2967.50           1456       28716.00    125630.40
  100.88        2967.75           1459       28786.00    125937.90
  100.91        2968.00           1462       28659.00    125380.00
  100.94        2968.25           1466       28214.00    123425.70
  100.97        2968.50           1469       27163.00    118810.70
  101.00        2968.75           1472       26001.00    113709.80
  101.03        2969.00           1476       24179.00    105714.90
  101.06        2969.25           1479       22977.00    100442.60
  101.09        2969.50           1482       21589.00     94356.51
  101.12        2969.75           1486       20044.00     87584.66
  101.16        2970.00           1489       18694.00     81669.78
  101.19        2970.25           1492       17334.00     75713.20
  101.22        2970.50           1496       15537.00     67845.88
  101.25        2970.75           1499       14391.00     62830.62
  101.28        2971.00           1502       12993.00     56714.55
  101.31        2971.25           1506       11163.00     48711.94
  101.34        2971.50           1509        9795.00     42732.17
  101.37        2971.75           1513        8217.00     35837.12
  101.40        2972.00           1516        6865.00     29931.84
  101.44        2972.25           1519        5556.00     24216.37
  101.47        2972.50           1523        3864.00     16831.52
  101.50        2972.75           1526        2570.00     11185.97
  101.53        2973.00           1529        1427.00      6200.81
  101.56        2973.25           1533         489.00      2110.86
  101.59        2973.50           1536         298.00      1278.17
  101.62        2973.75           1539         227.00       968.64
  101.65        2974.00           1543         201.00       855.30
  101.68        2974.25           1546         140.00       589.37
  101.72        2974.50           1549         100.00       415.00
  101.75        2974.75           1553          86.00       353.97
  101.78        2975.00           1556          69.00       279.86
  101.81        2975.25           1559          51.00       201.40
  101.84        2975.50           1563          51.00       201.40
  101.87        2975.75           1566          51.00       201.40
  101.90        2976.00           1569          53.00       210.11
  101.93        2976.25           1573          51.00       201.40
  101.96        2976.50           1576          52.00       205.76
  101.99        2976.75           1579          49.00       192.68
  102.02        2977.00           1583          47.00       183.96
  102.06        2977.25           1586          48.00       188.32
  102.09        2977.50           1590          53.00       210.11
  102.12        2977.75           1593          47.00       183.96
  102.15        2978.00           1596          48.00       188.32
  102.18        2978.25           1600          51.00       201.40
  102.21        2978.50           1603          54.00       214.47
  102.24        2978.75           1606          52.00       205.76
  102.27        2979.00           1610          51.00       201.40
  102.30        2979.25           1613          50.00       197.04
  102.33        2979.50           1616          47.00       183.96
  102.36        2979.75           1620          44.00       170.88
  102.39        2980.00           1623          50.00       197.04
  102.43        2980.25           1626          41.00       157.80
  102.46        2980.50           1630          62.00       249.35
  102.49        2980.75           1633          47.00       183.96
  102.52        2981.00           1637          50.00       197.04
  102.55        2981.25           1640          49.00       192.68
  102.58        2981.50           1643          48.00       188.32
  102.61        2981.75           1647          47.00       183.96
  102.64        2982.00           1650          48.00       188.32
  102.67        2982.25           1653          44.00       170.88
  102.70        2982.50           1657          48.00       188.32
  102.73        2982.75           1660          43.00       166.52
  102.76        2983.00           1663          45.00       175.24
  102.79        2983.25           1667          43.00       166.52
  102.82        2983.50           1670          45.00       175.24
  102.85        2983.75           1673          43.00       166.52
  102.89        2984.00           1677          45.00       175.24
HS scan finished at 01:43:06
end
************************************************************
  HS Scan of (1) Internal mercury lamp
************************************************************
Integration time is 0.2294 seconds per sample
dh290818Manchester 53.47 2.23 2.804185pr1000
************************************************************
Dead Time -------------------------  3E-08 
Number of Cycles Used -------------  4 
Starting Wavelength (Angstroms) ---  2950 
Final Wavelength (Angstoms) -------  2984 
Wavelength Increment (Angstroms) --  .25 
Filter Wheel #1 Position ---------- (1) Ground quartz diffuser (ND=2.32)
Filter Wheel #2 Position ---------- (1) Neutral Density 0.494



************************************************************
HS scan start time = 20:11:59
Dark Count =  7.2 


Time (GMT)  Wavelength (Ang)  Step Number  Raw Counts  Counts/Second

 1212.35        2950.00           1222          50.00       186.57
 1212.42        2950.25           1226          50.00       186.57
 1212.45        2950.50           1229          47.00       173.50
 1212.48        2950.75           1232          52.00       195.29
 1212.51        2951.00           1236          48.00       177.86
 1212.54        2951.25           1239          56.00       212.73
 1212.58        2951.50           1242          54.00       204.01
 1212.61        2951.75           1246          53.00       199.65
 1212.64        2952.00           1249          50.00       186.57
 1212.67        2952.25           1252          54.00       204.01
 1212.70        2952.50           1256          50.00       186.57
 1212.73        2952.75           1259          55.00       208.37
 1212.76        2953.00           1262          53.00       199.65
 1212.79        2953.25           1266          48.00       177.86
 1212.82        2953.50           1269          56.00       212.73
 1212.85        2953.75           1272          55.00       208.37
 1212.88        2954.00           1276          53.00       199.65
 1212.92        2954.25           1279          41.00       147.34
 1212.95        2954.50           1282          51.00       190.93
 1212.98        2954.75           1286          55.00       208.37
 1213.01        2955.00           1289          52.00       195.29
 1213.04        2955.25           1292          45.00       164.78
 1213.07        2955.50           1296          45.00       164.78
 1213.10        2955.75           1299          52.00       195.29
 1213.13        2956.00           1302          53.00       199.65
 1213.16        2956.25           1306          56.00       212.73
 1213.19        2956.50           1309          48.00       177.86
 1213.22        2956.75           1312          55.00       208.37
 1213.25        2957.00           1316          62.00       238.89
 1213.28        2957.25           1319          51.00       190.93
 1213.31        2957.50           1322          49.00       182.22
 1213.34        2957.75           1326          48.00       177.86
 1213.38        2958.00           1329          54.00       204.01
 1213.41        2958.25           1332          61.00       234.53
 1213.44        2958.50           1336          44.00       160.42
 1213.47        2958.75           1339          47.00       173.50
 1213.50        2959.00           1342          53.00       199.65
 1213.53        2959.25           1346          61.00       234.53
 1213.56        2959.50           1349          57.00       217.09
 1213.59        2959.75           1352          76.00       299.92
 1213.62        2960.00           1356          90.00       360.95
 1213.65        2960.25           1359         111.00       452.49
 1213.68        2960.50           1362         157.00       653.02
 1213.71        2960.75           1366         186.00       779.44
 1213.74        2961.00           1369         236.00       997.41
 1213.77        2961.25           1372         270.00      1145.64
 1213.80        2961.50           1376         294.00      1250.26
 1213.83        2961.75           1379         418.00      1790.85
 1213.86        2962.00           1382         819.00      3539.17
 1213.90        2962.25           1386        2085.00      9060.00
 1213.93        2962.50           1389        3298.00     14351.43
 1213.96        2962.75           1392        4496.00     19579.07
 1213.99        2963.00           1396        6075.00     26471.76
 1214.02        2963.25           1399        7482.00     32616.03
 1214.05        2963.50           1402        8832.00     38513.52
 1214.08        2963.75           1406       10519.00     45886.14
 1214.11        2964.00           1409       11778.00     51390.42
 1214.14        2964.25           1412       13077.00     57071.48
 1214.18        2964.50           1416       14806.00     64636.12
 1214.21        2964.75           1419       16077.00     70199.12
 1214.24        2965.00           1422       17428.00     76114.33
 1214.27        2965.25           1426       19120.00     83525.52
 1214.30        2965.50           1429       20197.00     88244.64
 1214.33        2965.75           1432       21817.00     95345.58
 1214.36        2966.00           1436       23410.00    102331.10
 1214.39        2966.25           1439       24768.00    108288.50
 1214.43        2966.50           1442       25843.00    113005.80
 1214.46        2966.75           1446       26997.00    118071.40
 1214.49        2967.00           1449       27236.00    119120.70
 1214.52        2967.25           1452       27508.00    120314.90
 1214.55        2967.50           1456       27446.00    120042.70
 1214.58        2967.75           1459       27535.00    120433.50
 1214.61        2968.00           1462       27406.00    119867.10
 1214.64        2968.25           1466       26702.00    116776.30
 1214.67        2968.50           1469       25518.00    111579.50
 1214.70        2968.75           1472       24308.00    106270.30
 1214.73        2969.00           1476       22668.00     99076.97
 1214.76        2969.25           1479       21360.00     93342.10
 1214.80        2969.50           1482       20176.00     88152.62
 1214.83        2969.75           1486       18389.00     80323.23
 1214.86        2970.00           1489       17126.00     74791.87
 1214.89        2970.25           1492       15919.00     69507.47
 1214.92        2970.50           1496       14307.00     62452.56
 1214.95        2970.75           1499       13174.00     57495.78
 1214.98        2971.00           1502       11907.00     51954.50
 1215.01        2971.25           1506       10312.00     44981.33
 1215.04        2971.50           1509        9005.00     39269.43
 1215.07        2971.75           1513        7247.00     31589.65
 1215.10        2972.00           1516        6013.00     26201.06
 1215.13        2972.25           1519        4677.00     20369.03
 1215.16        2972.50           1523        3029.00     13177.83
 1215.20        2972.75           1526        1903.00      8266.22
 1215.23        2973.00           1529         931.00      4027.51
 1215.26        2973.25           1533         393.00      1681.86
 1215.29        2973.50           1536         276.00      1171.79
 1215.32        2973.75           1539         235.00       993.05
 1215.35        2974.00           1543         175.00       731.49
 1215.38        2974.25           1546         147.00       609.43
 1215.41        2974.50           1549         108.00       439.41
 1215.44        2974.75           1553          74.00       291.20
 1215.47        2975.00           1556          62.00       238.89
 1215.50        2975.25           1559          51.00       190.93
 1215.53        2975.50           1563          41.00       147.34
 1215.56        2975.75           1566          47.00       173.50
 1215.59        2976.00           1569          45.00       164.78
 1215.62        2976.25           1573          56.00       212.73
 1215.65        2976.50           1576          44.00       160.42
 1215.68        2976.75           1579          53.00       199.65
 1215.72        2977.00           1583          47.00       173.50
 1215.75        2977.25           1586          55.00       208.37
 1215.78        2977.50           1590          50.00       186.57
 1215.81        2977.75           1593          44.00       160.42
 1215.84        2978.00           1596          51.00       190.93
 1215.87        2978.25           1600          53.00       199.65
 1215.90        2978.50           1603          45.00       164.78
 1215.93        2978.75           1606          48.00       177.86
 1215.96        2979.00           1610          54.00       204.01
 1215.99        2979.25           1613          49.00       182.22
 1216.02        2979.50           1616          53.00       199.65
 1216.05        2979.75           1620          47.00       173.50
 1216.08        2980.00           1623          47.00       173.50
 1216.11        2980.25           1626          50.00       186.57
 1216.15        2980.50           1630          49.00       182.22
 1216.18        2980.75           1633          44.00       160.42
 1216.21        2981.00           1637          46.00       169.14
 1216.24        2981.25           1640          45.00       164.78
 1216.27        2981.50           1643          49.00       182.22
 1216.30        2981.75           1647          47.00       173.50
 1216.33        2982.00           1650          45.00       164.78
 1216.36        2982.25           1653          46.00       169.14
 1216.39        2982.50           1657          43.00       156.06
 1216.43        2982.75           1660          46.00       169.14
 1216.46        2983.00           1663          54.00       204.01
 1216.49        2983.25           1667          43.00       156.06
 1216.52        2983.50           1670          43.00       156.06
 1216.55        2983.75           1673          50.00       186.57
 1216.58        2984.00           1677          42.00       151.70
HS scan finished at 20:16:48
end
