************************************************************
  HS Scan of (1) Internal mercury lamp
************************************************************
Integration time is 0.2294 seconds per sample
dh040918Manchester 53.47 2.23 2.804185pr1000
************************************************************
Dead Time -------------------------  3E-08 
Number of Cycles Used -------------  4 
Starting Wavelength (Angstroms) ---  2950 
Final Wavelength (Angstoms) -------  2984 
Wavelength Increment (Angstroms) --  .25 
Filter Wheel #1 Position ---------- (1) Ground quartz diffuser (ND=2.32)
Filter Wheel #2 Position ---------- (1) Neutral Density 0.494



************************************************************
HS scan start time = 01:36:45
Dark Count =  5.1 


Time (GMT)  Wavelength (Ang)  Step Number  Raw Counts  Counts/Second

   97.13        2950.00           1222          51.00       200.09
   97.19        2950.25           1226          54.00       213.17
   97.22        2950.50           1229          50.00       195.73
   97.26        2950.75           1232          56.00       221.88
   97.29        2951.00           1236          56.00       221.88
   97.32        2951.25           1239          47.00       182.65
   97.35        2951.50           1242          55.00       217.53
   97.38        2951.75           1246          59.00       234.96
   97.41        2952.00           1249          49.00       191.37
   97.44        2952.25           1252          45.00       173.93
   97.47        2952.50           1256          52.00       204.45
   97.50        2952.75           1259          47.00       182.65
   97.53        2953.00           1262          49.00       191.37
   97.56        2953.25           1266          58.00       230.60
   97.60        2953.50           1269          52.00       204.45
   97.63        2953.75           1272          48.00       187.01
   97.66        2954.00           1276          49.00       191.37
   97.69        2954.25           1279          49.00       191.37
   97.72        2954.50           1282          56.00       221.88
   97.75        2954.75           1286          47.00       182.65
   97.78        2955.00           1289          50.00       195.73
   97.81        2955.25           1292          53.00       208.81
   97.84        2955.50           1296          44.00       169.57
   97.87        2955.75           1299          46.00       178.29
   97.91        2956.00           1302          44.00       169.57
   97.94        2956.25           1306          47.00       182.65
   97.97        2956.50           1309          49.00       191.37
   98.00        2956.75           1312          54.00       213.17
   98.03        2957.00           1316          54.00       213.17
   98.06        2957.25           1319          56.00       221.88
   98.09        2957.50           1322          48.00       187.01
   98.12        2957.75           1326          52.00       204.45
   98.15        2958.00           1329          58.00       230.60
   98.18        2958.25           1332          57.00       226.24
   98.21        2958.50           1336          52.00       204.45
   98.24        2958.75           1339          47.00       182.65
   98.27        2959.00           1342          46.00       178.29
   98.31        2959.25           1346          51.00       200.09
   98.34        2959.50           1349          64.00       256.76
   98.37        2959.75           1352          65.00       261.12
   98.40        2960.00           1356          94.00       387.54
   98.43        2960.25           1359         132.00       553.19
   98.46        2960.50           1362         146.00       614.22
   98.49        2960.75           1366         184.00       779.88
   98.52        2961.00           1369         221.00       941.18
   98.55        2961.25           1372         259.00      1106.84
   98.58        2961.50           1376         319.00      1368.41
   98.62        2961.75           1379         453.00      1952.60
   98.65        2962.00           1382         945.00      4097.71
   98.68        2962.25           1386        2370.00     10312.26
   98.71        2962.50           1389        3607.00     15708.80
   98.74        2962.75           1392        4754.00     20714.26
   98.77        2963.00           1396        6549.00     28550.60
   98.80        2963.25           1399        7629.00     33267.27
   98.83        2963.50           1402        8960.00     39081.98
   98.86        2963.75           1406       10598.00     46240.65
   98.89        2964.00           1409       11900.00     51933.08
   98.92        2964.25           1412       13169.00     57483.10
   98.96        2964.50           1416       14855.00     64859.74
   98.99        2964.75           1419       16202.00     70755.53
   99.02        2965.00           1422       17458.00     76254.90
   99.05        2965.25           1426       19252.00     84113.02
   99.08        2965.50           1429       20463.00     89419.59
   99.11        2965.75           1432       21687.00     94784.84
   99.14        2966.00           1436       23256.00    101664.90
   99.17        2966.25           1439       24513.00    107178.90
   99.21        2966.50           1442       25785.00    112760.50
   99.24        2966.75           1446       27005.00    118115.70
   99.27        2967.00           1449       27287.00    119353.80
   99.30        2967.25           1452       27351.00    119634.80
   99.33        2967.50           1456       27440.00    120025.60
   99.36        2967.75           1459       27430.00    119981.70
   99.39        2968.00           1462       27219.00    119055.30
   99.42        2968.25           1466       26502.00    115907.60
   99.45        2968.50           1469       25484.00    111439.50
   99.48        2968.75           1472       24289.00    106196.10
   99.51        2969.00           1476       22474.00     98235.46
   99.55        2969.25           1479       21353.00     93320.62
   99.58        2969.50           1482       20142.00     88012.81
   99.61        2969.75           1486       18426.00     80494.50
   99.64        2970.00           1489       17179.00     75033.15
   99.67        2970.25           1492       15890.00     69389.73
   99.70        2970.50           1496       14309.00     62470.51
   99.73        2970.75           1499       12958.00     56560.15
   99.76        2971.00           1502       11655.00     50861.78
   99.79        2971.25           1506        9846.00     42953.75
   99.82        2971.50           1509        8600.00     37509.06
   99.85        2971.75           1513        7000.00     30520.09
   99.89        2972.00           1516        5840.00     25454.92
   99.92        2972.25           1519        4561.00     19871.91
   99.95        2972.50           1523        3041.00     13239.35
   99.98        2972.75           1526        1890.00      8218.68
  100.01        2973.00           1529         851.00      3687.85
  100.04        2973.25           1533         371.00      1595.11
  100.07        2973.50           1536         286.00      1224.54
  100.10        2973.75           1539         243.00      1037.09
  100.13        2974.00           1543         213.00       906.30
  100.16        2974.25           1546         151.00       636.02
  100.19        2974.50           1549         122.00       509.60
  100.22        2974.75           1553          81.00       330.87
  100.26        2975.00           1556          66.00       265.48
  100.29        2975.25           1559          65.00       261.12
  100.32        2975.50           1563          55.00       217.53
  100.35        2975.75           1566          51.00       200.09
  100.38        2976.00           1569          48.00       187.01
  100.41        2976.25           1573          49.00       191.37
  100.44        2976.50           1576          50.00       195.73
  100.47        2976.75           1579          48.00       187.01
  100.50        2977.00           1583          48.00       187.01
  100.53        2977.25           1586          50.00       195.73
  100.56        2977.50           1590          47.00       182.65
  100.59        2977.75           1593          51.00       200.09
  100.62        2978.00           1596          40.00       152.14
  100.65        2978.25           1600          43.00       165.21
  100.69        2978.50           1603          48.00       187.01
  100.72        2978.75           1606          51.00       200.09
  100.75        2979.00           1610          44.00       169.57
  100.78        2979.25           1613          43.00       165.21
  100.81        2979.50           1616          48.00       187.01
  100.84        2979.75           1620          52.00       204.45
  100.87        2980.00           1623          47.00       182.65
  100.90        2980.25           1626          43.00       165.21
  100.93        2980.50           1630          50.00       195.73
  100.96        2980.75           1633          42.00       160.86
  100.99        2981.00           1637          47.00       182.65
  101.02        2981.25           1640          43.00       165.21
  101.05        2981.50           1643          43.00       165.21
  101.08        2981.75           1647          55.00       217.53
  101.11        2982.00           1650          50.00       195.73
  101.14        2982.25           1653          40.00       152.14
  101.18        2982.50           1657          58.00       230.60
  101.21        2982.75           1660          44.00       169.57
  101.24        2983.00           1663          53.00       208.81
  101.27        2983.25           1667          43.00       165.21
  101.30        2983.50           1670          43.00       165.21
  101.33        2983.75           1673          48.00       187.01
  101.36        2984.00           1677          40.00       152.14
HS scan finished at 01:41:35
end
************************************************************
  HS Scan of (1) Internal mercury lamp
************************************************************
Integration time is 0.2294 seconds per sample
dh040918Manchester 53.47 2.23 2.911481pr1000
************************************************************
Dead Time -------------------------  3E-08 
Number of Cycles Used -------------  4 
Starting Wavelength (Angstroms) ---  2950 
Final Wavelength (Angstoms) -------  2984 
Wavelength Increment (Angstroms) --  .25 
Filter Wheel #1 Position ---------- (1) Ground quartz diffuser (ND=2.32)
Filter Wheel #2 Position ---------- (1) Neutral Density 0.494



************************************************************
HS scan start time = 19:42:03
Dark Count =  7.7 


Time (GMT)  Wavelength (Ang)  Step Number  Raw Counts  Counts/Second

 1182.42        2950.00           1222          52.00       193.11
 1182.49        2950.25           1226          50.00       184.40
 1182.52        2950.50           1229          52.00       193.11
 1182.55        2950.75           1232          47.00       171.32
 1182.58        2951.00           1236          50.00       184.40
 1182.61        2951.25           1239          52.00       193.11
 1182.64        2951.50           1242          50.00       184.40
 1182.67        2951.75           1246          52.00       193.11
 1182.70        2952.00           1249          48.00       175.68
 1182.73        2952.25           1252          51.00       188.75
 1182.76        2952.50           1256          59.00       223.63
 1182.79        2952.75           1259          45.00       162.60
 1182.83        2953.00           1262          50.00       184.40
 1182.86        2953.25           1266          57.00       214.91
 1182.89        2953.50           1269          54.00       201.83
 1182.92        2953.75           1272          49.00       180.04
 1182.95        2954.00           1276          48.00       175.68
 1182.98        2954.25           1279          55.00       206.19
 1183.01        2954.50           1282          47.00       171.32
 1183.04        2954.75           1286          48.00       175.68
 1183.07        2955.00           1289          50.00       184.40
 1183.10        2955.25           1292          50.00       184.40
 1183.13        2955.50           1296          52.00       193.11
 1183.16        2955.75           1299          54.00       201.83
 1183.19        2956.00           1302          59.00       223.63
 1183.22        2956.25           1306          55.00       206.19
 1183.26        2956.50           1309          53.00       197.47
 1183.29        2956.75           1312          52.00       193.11
 1183.32        2957.00           1316          59.00       223.63
 1183.35        2957.25           1319          56.00       210.55
 1183.38        2957.50           1322          57.00       214.91
 1183.41        2957.75           1326          60.00       227.99
 1183.44        2958.00           1329          49.00       180.04
 1183.47        2958.25           1332          49.00       180.04
 1183.50        2958.50           1336          54.00       201.83
 1183.53        2958.75           1339          54.00       201.83
 1183.56        2959.00           1342          53.00       197.47
 1183.59        2959.25           1346          59.00       223.63
 1183.62        2959.50           1349          62.00       236.71
 1183.66        2959.75           1352          74.00       289.02
 1183.69        2960.00           1356          99.00       398.00
 1183.72        2960.25           1359         132.00       541.86
 1183.75        2960.50           1362         150.00       620.33
 1183.78        2960.75           1366         214.00       899.33
 1183.81        2961.00           1369         250.00      1056.27
 1183.84        2961.25           1372         277.00      1173.97
 1183.87        2961.50           1376         360.00      1535.82
 1183.90        2961.75           1379         525.00      2255.17
 1183.93        2962.00           1382        1229.00      5324.74
 1183.96        2962.25           1386        2838.00     12342.41
 1183.99        2962.50           1389        4217.00     18359.28
 1184.02        2962.75           1392        5488.00     23906.85
 1184.05        2963.00           1396        7224.00     31487.01
 1184.08        2963.25           1399        8497.00     37047.70
 1184.12        2963.50           1402        9715.00     42369.87
 1184.15        2963.75           1406       11485.00     50107.09
 1184.18        2964.00           1409       12772.00     55735.23
 1184.21        2964.25           1412       14209.00     62021.57
 1184.24        2964.50           1416       16026.00     69973.68
 1184.27        2964.75           1419       17295.00     75529.71
 1184.30        2965.00           1422       18918.00     82638.36
 1184.33        2965.25           1426       20476.00     89465.18
 1184.36        2965.50           1429       21769.00     95132.94
 1184.39        2965.75           1432       23391.00    102245.60
 1184.42        2966.00           1436       25114.00    109804.50
 1184.45        2966.25           1439       26394.00    115422.10
 1184.48        2966.50           1442       27511.00    120325.90
 1184.52        2966.75           1446       28657.00    125358.50
 1184.55        2967.00           1449       28954.00    126663.00
 1184.58        2967.25           1452       28870.00    126294.10
 1184.61        2967.50           1456       28937.00    126588.40
 1184.64        2967.75           1459       28908.00    126461.00
 1184.67        2968.00           1462       28761.00    125815.30
 1184.70        2968.25           1466       27642.00    120901.10
 1184.73        2968.50           1469       26525.00    115997.10
 1184.76        2968.75           1472       25200.00    110181.80
 1184.80        2969.00           1476       23387.00    102228.00
 1184.83        2969.25           1479       22151.00     96807.78
 1184.86        2969.50           1482       20695.00     90425.01
 1184.89        2969.75           1486       18964.00     82839.88
 1184.92        2970.00           1489       17855.00     77982.15
 1184.95        2970.25           1492       16552.00     72276.43
 1184.98        2970.50           1496       14875.00     64935.89
 1185.01        2970.75           1499       13406.00     58508.45
 1185.04        2971.00           1502       12068.00     52656.35
 1185.07        2971.25           1506       10216.00     44559.53
 1185.10        2971.50           1509        8873.00     38690.48
 1185.13        2971.75           1513        7157.00     31194.39
 1185.17        2972.00           1516        5776.00     25164.15
 1185.20        2972.25           1519        4464.00     19437.22
 1185.23        2972.50           1523        2662.00     11574.64
 1185.26        2972.75           1526        1433.00      6214.32
 1185.29        2973.00           1529         635.00      2734.75
 1185.32        2973.25           1533         341.00      1452.98
 1185.35        2973.50           1536         266.00      1126.02
 1185.38        2973.75           1539         230.00       969.08
 1185.41        2974.00           1543         185.00       772.90
 1185.44        2974.25           1546         136.00       559.29
 1185.48        2974.50           1549          95.00       380.56
 1185.51        2974.75           1553          81.00       319.53
 1185.54        2975.00           1556          55.00       206.19
 1185.57        2975.25           1559          54.00       201.83
 1185.60        2975.50           1563          50.00       184.40
 1185.63        2975.75           1566          48.00       175.68
 1185.66        2976.00           1569          54.00       201.83
 1185.69        2976.25           1573          40.00       140.80
 1185.72        2976.50           1576          55.00       206.19
 1185.75        2976.75           1579          53.00       197.47
 1185.78        2977.00           1583          43.00       153.88
 1185.82        2977.25           1586          51.00       188.75
 1185.85        2977.50           1590          48.00       175.68
 1185.88        2977.75           1593          50.00       184.40
 1185.91        2978.00           1596          54.00       201.83
 1185.94        2978.25           1600          44.00       158.24
 1185.97        2978.50           1603          46.00       166.96
 1186.00        2978.75           1606          42.00       149.52
 1186.03        2979.00           1610          47.00       171.32
 1186.06        2979.25           1613          59.00       223.63
 1186.09        2979.50           1616          44.00       158.24
 1186.13        2979.75           1620          45.00       162.60
 1186.16        2980.00           1623          57.00       214.91
 1186.19        2980.25           1626          51.00       188.75
 1186.22        2980.50           1630          48.00       175.68
 1186.25        2980.75           1633          55.00       206.19
 1186.28        2981.00           1637          45.00       162.60
 1186.31        2981.25           1640          48.00       175.68
 1186.34        2981.50           1643          39.00       136.44
 1186.37        2981.75           1647          47.00       171.32
 1186.40        2982.00           1650          49.00       180.04
 1186.43        2982.25           1653          45.00       162.60
 1186.47        2982.50           1657          41.00       145.16
 1186.50        2982.75           1660          49.00       180.04
 1186.53        2983.00           1663          45.00       162.60
 1186.56        2983.25           1667          50.00       184.40
 1186.59        2983.50           1670          63.00       241.07
 1186.62        2983.75           1673          51.00       188.75
 1186.65        2984.00           1677          47.00       171.32
HS scan finished at 19:46:52
end
