************************************************************
  HS Scan of (1) Internal mercury lamp
************************************************************
Integration time is 0.2294 seconds per sample
dh300818Manchester 53.47 2.23 2.804185pr1000
************************************************************
Dead Time -------------------------  3E-08 
Number of Cycles Used -------------  4 
Starting Wavelength (Angstroms) ---  2950 
Final Wavelength (Angstoms) -------  2984 
Wavelength Increment (Angstroms) --  .25 
Filter Wheel #1 Position ---------- (1) Ground quartz diffuser (ND=2.32)
Filter Wheel #2 Position ---------- (1) Neutral Density 0.494



************************************************************
HS scan start time = 02:14:53
Dark Count =  6.8 


Time (GMT)  Wavelength (Ang)  Step Number  Raw Counts  Counts/Second

  135.26        2950.00           1222          50.00       188.32
  135.32        2950.25           1226          56.00       214.47
  135.36        2950.50           1229          49.00       183.96
  135.39        2950.75           1232          51.00       192.68
  135.42        2951.00           1236          56.00       214.47
  135.45        2951.25           1239          41.00       149.09
  135.48        2951.50           1242          48.00       179.60
  135.51        2951.75           1246          48.00       179.60
  135.54        2952.00           1249          55.00       210.11
  135.57        2952.25           1252          50.00       188.32
  135.60        2952.50           1256          50.00       188.32
  135.63        2952.75           1259          70.00       275.50
  135.66        2953.00           1262          45.00       166.52
  135.69        2953.25           1266          46.00       170.88
  135.72        2953.50           1269          56.00       214.47
  135.75        2953.75           1272          50.00       188.32
  135.78        2954.00           1276          51.00       192.68
  135.81        2954.25           1279          59.00       227.55
  135.84        2954.50           1282          49.00       183.96
  135.87        2954.75           1286          56.00       214.47
  135.90        2955.00           1289          48.00       179.60
  135.93        2955.25           1292          49.00       183.96
  135.96        2955.50           1296          53.00       201.40
  136.00        2955.75           1299          46.00       170.88
  136.03        2956.00           1302          57.00       218.83
  136.06        2956.25           1306          49.00       183.96
  136.09        2956.50           1309          55.00       210.11
  136.12        2956.75           1312          51.00       192.68
  136.15        2957.00           1316          45.00       166.52
  136.18        2957.25           1319          54.00       205.76
  136.21        2957.50           1322          54.00       205.76
  136.24        2957.75           1326          51.00       192.68
  136.27        2958.00           1329          49.00       183.96
  136.30        2958.25           1332          62.00       240.63
  136.33        2958.50           1336          51.00       192.68
  136.36        2958.75           1339          47.00       175.24
  136.40        2959.00           1342          52.00       197.04
  136.43        2959.25           1346          58.00       223.19
  136.46        2959.50           1349          63.00       244.99
  136.49        2959.75           1352          75.00       297.30
  136.52        2960.00           1356         119.00       489.11
  136.55        2960.25           1359         142.00       589.37
  136.58        2960.50           1362         183.00       768.11
  136.61        2960.75           1366         211.00       890.17
  136.64        2961.00           1369         239.00      1012.24
  136.67        2961.25           1372         286.00      1217.13
  136.70        2961.50           1376         354.00      1513.58
  136.73        2961.75           1379         487.00      2093.42
  136.77        2962.00           1382        1036.00      4487.09
  136.80        2962.25           1386        2462.00     10706.14
  136.83        2962.50           1389        3659.00     15928.27
  136.86        2962.75           1392        4834.00     21056.02
  136.89        2963.00           1396        6489.00     28281.18
  136.92        2963.25           1399        7561.00     32962.83
  136.95        2963.50           1402        8969.00     39113.88
  136.98        2963.75           1406       10596.00     46224.48
  137.01        2964.00           1409       11908.00     51960.63
  137.05        2964.25           1412       13280.00     57961.21
  137.08        2964.50           1416       14928.00     65171.76
  137.11        2964.75           1419       16155.00     70542.33
  137.14        2965.00           1422       17320.00     75643.13
  137.17        2965.25           1426       19040.00     83176.78
  137.20        2965.50           1429       20558.00     89828.50
  137.23        2965.75           1432       21653.00     94628.33
  137.26        2966.00           1436       23543.00    102916.20
  137.29        2966.25           1439       24548.00    107325.00
  137.32        2966.50           1442       25626.00    112055.20
  137.35        2966.75           1446       27161.00    118793.10
  137.39        2967.00           1449       27524.00    120386.90
  137.42        2967.25           1452       27729.00    121287.10
  137.45        2967.50           1456       27429.00    119969.80
  137.48        2967.75           1459       27605.00    120742.60
  137.51        2968.00           1462       27456.00    120088.40
  137.54        2968.25           1466       26764.00    117050.20
  137.57        2968.50           1469       25621.00    112033.30
  137.60        2968.75           1472       24637.00    107715.40
  137.63        2969.00           1476       23055.00    100775.90
  137.66        2969.25           1479       21680.00     94746.69
  137.69        2969.50           1482       20463.00     89412.14
  137.73        2969.75           1486       18871.00     82436.40
  137.76        2970.00           1489       17487.00     76374.44
  137.79        2970.25           1492       16279.00     71085.18
  137.82        2970.50           1496       14724.00     64279.03
  137.85        2970.75           1499       13451.00     58709.24
  137.88        2971.00           1502       12170.00     53106.34
  137.91        2971.25           1506       10392.00     45332.76
  137.94        2971.50           1509        9065.00     39533.35
  137.97        2971.75           1513        7350.00     32041.25
  138.01        2972.00           1516        5978.00     26050.00
  138.04        2972.25           1519        4725.00     20580.27
  138.07        2972.50           1523        3085.00     13423.89
  138.10        2972.75           1526        1834.00      7967.03
  138.13        2973.00           1529         796.00      3440.63
  138.16        2973.25           1533         351.00      1500.50
  138.19        2973.50           1536         262.00      1112.50
  138.22        2973.75           1539         209.00       881.45
  138.25        2974.00           1543         171.00       715.80
  138.28        2974.25           1546         119.00       489.11
  138.31        2974.50           1549          97.00       393.20
  138.34        2974.75           1553          69.00       271.14
  138.38        2975.00           1556          53.00       201.40
  138.41        2975.25           1559          47.00       175.24
  138.44        2975.50           1563          46.00       170.88
  138.47        2975.75           1566          51.00       192.68
  138.50        2976.00           1569          47.00       175.24
  138.53        2976.25           1573          60.00       231.91
  138.56        2976.50           1576          48.00       179.60
  138.59        2976.75           1579          47.00       175.24
  138.62        2977.00           1583          51.00       192.68
  138.65        2977.25           1586          46.00       170.88
  138.68        2977.50           1590          46.00       170.88
  138.71        2977.75           1593          48.00       179.60
  138.74        2978.00           1596          51.00       192.68
  138.78        2978.25           1600          54.00       205.76
  138.81        2978.50           1603          51.00       192.68
  138.84        2978.75           1606          52.00       197.04
  138.87        2979.00           1610          47.00       175.24
  138.90        2979.25           1613          44.00       162.16
  138.93        2979.50           1616          45.00       166.52
  138.96        2979.75           1620          44.00       162.16
  138.99        2980.00           1623          49.00       183.96
  139.02        2980.25           1626          53.00       201.40
  139.05        2980.50           1630          50.00       188.32
  139.08        2980.75           1633          49.00       183.96
  139.11        2981.00           1637          50.00       188.32
  139.14        2981.25           1640          52.00       197.04
  139.17        2981.50           1643          46.00       170.88
  139.20        2981.75           1647          44.00       162.16
  139.23        2982.00           1650          45.00       166.52
  139.26        2982.25           1653          48.00       179.60
  139.29        2982.50           1657          55.00       210.11
  139.32        2982.75           1660          41.00       149.09
  139.36        2983.00           1663          43.00       157.80
  139.39        2983.25           1667          51.00       192.68
  139.42        2983.50           1670          44.00       162.16
  139.45        2983.75           1673          54.00       205.76
  139.48        2984.00           1677          51.00       192.68
HS scan finished at 02:19:42
end
************************************************************
  HS Scan of (1) Internal mercury lamp
************************************************************
Integration time is 0.2294 seconds per sample
dh300818Manchester 53.47 2.23 2.911481pr1000
************************************************************
Dead Time -------------------------  3E-08 
Number of Cycles Used -------------  4 
Starting Wavelength (Angstroms) ---  2950 
Final Wavelength (Angstoms) -------  2984 
Wavelength Increment (Angstroms) --  .25 
Filter Wheel #1 Position ---------- (1) Ground quartz diffuser (ND=2.32)
Filter Wheel #2 Position ---------- (1) Neutral Density 0.494



************************************************************
HS scan start time = 20:12:01
Dark Count =  5.9 


Time (GMT)  Wavelength (Ang)  Step Number  Raw Counts  Counts/Second

 1212.38        2950.00           1222          49.00       187.88
 1212.45        2950.25           1226          50.00       192.24
 1212.48        2950.50           1229          48.00       183.52
 1212.51        2950.75           1232          52.00       200.96
 1212.54        2951.00           1236          50.00       192.24
 1212.57        2951.25           1239          48.00       183.52
 1212.60        2951.50           1242          55.00       214.04
 1212.63        2951.75           1246          47.00       179.16
 1212.66        2952.00           1249          54.00       209.68
 1212.69        2952.25           1252          55.00       214.04
 1212.72        2952.50           1256          54.00       209.68
 1212.75        2952.75           1259          51.00       196.60
 1212.78        2953.00           1262          48.00       183.52
 1212.81        2953.25           1266          49.00       187.88
 1212.85        2953.50           1269          47.00       179.16
 1212.88        2953.75           1272          58.00       227.12
 1212.91        2954.00           1276          54.00       209.68
 1212.94        2954.25           1279          59.00       231.48
 1212.97        2954.50           1282          58.00       227.12
 1213.00        2954.75           1286          44.00       166.09
 1213.03        2955.00           1289          61.00       240.19
 1213.06        2955.25           1292          49.00       187.88
 1213.09        2955.50           1296          55.00       214.04
 1213.12        2955.75           1299          53.00       205.32
 1213.15        2956.00           1302          46.00       174.80
 1213.18        2956.25           1306          59.00       231.48
 1213.21        2956.50           1309          50.00       192.24
 1213.24        2956.75           1312          48.00       183.52
 1213.27        2957.00           1316          52.00       200.96
 1213.31        2957.25           1319          50.00       192.24
 1213.34        2957.50           1322          52.00       200.96
 1213.37        2957.75           1326          56.00       218.40
 1213.40        2958.00           1329          55.00       214.04
 1213.43        2958.25           1332          59.00       231.48
 1213.46        2958.50           1336          56.00       218.40
 1213.49        2958.75           1339          48.00       183.52
 1213.52        2959.00           1342          54.00       209.68
 1213.55        2959.25           1346          73.00       292.50
 1213.58        2959.50           1349          59.00       231.48
 1213.61        2959.75           1352          69.00       275.07
 1213.64        2960.00           1356         111.00       458.16
 1213.68        2960.25           1359         128.00       532.27
 1213.71        2960.50           1362         156.00       654.33
 1213.74        2960.75           1366         210.00       889.74
 1213.77        2961.00           1369         247.00      1051.04
 1213.80        2961.25           1372         274.00      1168.74
 1213.83        2961.50           1376         322.00      1378.00
 1213.86        2961.75           1379         430.00      1848.84
 1213.89        2962.00           1382         929.00      4024.46
 1213.92        2962.25           1386        2273.00      9885.67
 1213.95        2962.50           1389        3613.00     15731.49
 1213.98        2962.75           1392        4867.00     21203.98
 1214.02        2963.00           1396        6569.00     28634.44
 1214.05        2963.25           1399        7829.00     34137.38
 1214.08        2963.50           1402        9100.00     39690.21
 1214.11        2963.75           1406       10846.00     47321.27
 1214.14        2964.00           1409       12344.00     53871.21
 1214.17        2964.25           1412       13729.00     59929.36
 1214.20        2964.50           1416       15636.00     68274.40
 1214.23        2964.75           1419       16975.00     74136.37
 1214.26        2965.00           1422       18260.00     79763.88
 1214.30        2965.25           1426       20141.00     88004.91
 1214.33        2965.50           1429       21541.00     94141.27
 1214.36        2965.75           1432       22927.00    100218.50
 1214.39        2966.00           1436       24708.00    108030.90
 1214.42        2966.25           1439       25838.00    112989.60
 1214.45        2966.50           1442       26856.00    117458.10
 1214.48        2966.75           1446       28266.00    123649.20
 1214.51        2967.00           1449       28591.00    125076.60
 1214.54        2967.25           1452       28927.00    126552.40
 1214.57        2967.50           1456       28817.00    126069.20
 1214.61        2967.75           1459       28819.00    126078.00
 1214.64        2968.00           1462       28662.00    125388.40
 1214.67        2968.25           1466       27779.00    121510.60
 1214.70        2968.50           1469       26876.00    117545.90
 1214.73        2968.75           1472       25754.00    112620.90
 1214.76        2969.00           1476       23806.00    104073.80
 1214.79        2969.25           1479       22630.00     98916.02
 1214.82        2969.50           1482       21235.00     92799.84
 1214.85        2969.75           1486       19475.00     85086.58
 1214.89        2970.00           1489       18208.00     79536.11
 1214.92        2970.25           1492       16834.00     73518.99
 1214.95        2970.50           1496       15215.00     66431.75
 1214.98        2970.75           1499       13844.00     60432.48
 1215.01        2971.00           1502       12528.00     54675.92
 1215.04        2971.25           1506       10825.00     47229.47
 1215.07        2971.50           1509        9417.00     41075.43
 1215.10        2971.75           1513        7617.00     33211.37
 1215.13        2972.00           1516        6375.00     27787.32
 1215.16        2972.25           1519        4988.00     21732.13
 1215.20        2972.50           1523        3361.00     14631.97
 1215.23        2972.75           1526        2061.00      8961.00
 1215.26        2973.00           1529         866.00      3749.77
 1215.29        2973.25           1533         359.00      1539.30
 1215.32        2973.50           1536         270.00      1151.30
 1215.35        2973.75           1539         230.00       976.92
 1215.38        2974.00           1543         194.00       819.99
 1215.41        2974.25           1546         158.00       663.05
 1215.44        2974.50           1549         118.00       488.67
 1215.48        2974.75           1553          84.00       340.46
 1215.51        2975.00           1556          60.00       235.83
 1215.54        2975.25           1559          56.00       218.40
 1215.57        2975.50           1563          50.00       192.24
 1215.60        2975.75           1566          47.00       179.16
 1215.63        2976.00           1569          46.00       174.80
 1215.66        2976.25           1573          45.00       170.45
 1215.69        2976.50           1576          52.00       200.96
 1215.72        2976.75           1579          54.00       209.68
 1215.75        2977.00           1583          53.00       205.32
 1215.78        2977.25           1586          49.00       187.88
 1215.81        2977.50           1590          43.00       161.73
 1215.84        2977.75           1593          53.00       205.32
 1215.88        2978.00           1596          46.00       174.80
 1215.91        2978.25           1600          46.00       174.80
 1215.94        2978.50           1603          49.00       187.88
 1215.97        2978.75           1606          49.00       187.88
 1216.00        2979.00           1610          53.00       205.32
 1216.03        2979.25           1613          46.00       174.80
 1216.06        2979.50           1616          41.00       153.01
 1216.09        2979.75           1620          48.00       183.52
 1216.12        2980.00           1623          51.00       196.60
 1216.15        2980.25           1626          44.00       166.09
 1216.18        2980.50           1630          46.00       174.80
 1216.21        2980.75           1633          43.00       161.73
 1216.25        2981.00           1637          43.00       161.73
 1216.28        2981.25           1640          52.00       200.96
 1216.31        2981.50           1643          52.00       200.96
 1216.34        2981.75           1647          46.00       174.80
 1216.37        2982.00           1650          52.00       200.96
 1216.40        2982.25           1653          48.00       183.52
 1216.43        2982.50           1657          43.00       161.73
 1216.46        2982.75           1660          46.00       174.80
 1216.49        2983.00           1663          47.00       179.16
 1216.52        2983.25           1667          49.00       187.88
 1216.55        2983.50           1670          48.00       183.52
 1216.58        2983.75           1673          46.00       174.80
 1216.61        2984.00           1677          58.00       227.12
HS scan finished at 20:16:50
end
