************************************************************
  HS Scan of (1) Internal mercury lamp
************************************************************
Integration time is 0.2294 seconds per sample
dh290817Manchester 53.47 2.23 3.018777pr1000
************************************************************
Dead Time -------------------------  3E-08 
Number of Cycles Used -------------  4 
Starting Wavelength (Angstroms) ---  2950 
Final Wavelength (Angstoms) -------  2984 
Wavelength Increment (Angstroms) --  .25 
Filter Wheel #1 Position ---------- (1) Ground quartz diffuser (ND=2.32)
Filter Wheel #2 Position ---------- (1) Neutral Density 0.494



************************************************************
HS scan start time = 01:37:54
Dark Count =  5.6 


Time (GMT)  Wavelength (Ang)  Step Number  Raw Counts  Counts/Second

   98.27        2950.00           1222          73.00       293.81
   98.34        2950.25           1226          80.00       324.33
   98.37        2950.50           1229          85.00       346.12
   98.40        2950.75           1232          84.00       341.76
   98.43        2951.00           1236          86.00       350.48
   98.46        2951.25           1239          86.00       350.48
   98.49        2951.50           1242          75.00       302.53
   98.52        2951.75           1246          85.00       346.12
   98.55        2952.00           1249          78.00       315.61
   98.58        2952.25           1252          75.00       302.53
   98.61        2952.50           1256          77.00       311.25
   98.64        2952.75           1259          73.00       293.81
   98.67        2953.00           1262          82.00       333.05
   98.71        2953.25           1266          75.00       302.53
   98.74        2953.50           1269          76.00       306.89
   98.77        2953.75           1272          79.00       319.97
   98.80        2954.00           1276          80.00       324.33
   98.83        2954.25           1279          74.00       298.17
   98.86        2954.50           1282          78.00       315.61
   98.89        2954.75           1286          75.00       302.53
   98.92        2955.00           1289          82.00       333.05
   98.95        2955.25           1292          79.00       319.97
   98.99        2955.50           1296          73.00       293.81
   99.02        2955.75           1299          77.00       311.25
   99.05        2956.00           1302          75.00       302.53
   99.08        2956.25           1306          73.00       293.81
   99.11        2956.50           1309          85.00       346.12
   99.14        2956.75           1312          84.00       341.76
   99.17        2957.00           1316          78.00       315.61
   99.20        2957.25           1319          80.00       324.33
   99.23        2957.50           1322          84.00       341.76
   99.26        2957.75           1326          79.00       319.97
   99.29        2958.00           1329          78.00       315.61
   99.32        2958.25           1332          75.00       302.53
   99.35        2958.50           1336          98.00       402.79
   99.38        2958.75           1339          88.00       359.20
   99.41        2959.00           1342          79.00       319.97
   99.44        2959.25           1346          94.00       385.36
   99.48        2959.50           1349          86.00       350.48
   99.51        2959.75           1352         114.00       472.54
   99.54        2960.00           1356         135.00       564.09
   99.57        2960.25           1359         176.00       742.82
   99.60        2960.50           1362         205.00       869.25
   99.63        2960.75           1366         281.00      1200.57
   99.66        2961.00           1369         337.00      1444.70
   99.69        2961.25           1372         375.00      1610.37
   99.72        2961.50           1376         485.00      2089.93
   99.75        2961.75           1379         754.00      3262.74
   99.78        2962.00           1382        1702.00      7396.59
   99.81        2962.25           1386        3721.00     16204.04
   99.85        2962.50           1389        5338.00     23261.21
   99.88        2962.75           1392        7069.00     30819.24
   99.91        2963.00           1396        9278.00     40469.34
   99.94        2963.25           1399       10874.00     47444.99
   99.97        2963.50           1402       12647.00     55197.69
  100.00        2963.75           1406       15090.00     65886.00
  100.03        2964.00           1409       16772.00     73248.85
  100.06        2964.25           1412       18769.00     81994.82
  100.09        2964.50           1416       20826.00     91008.38
  100.12        2964.75           1419       22692.00     99189.22
  100.15        2965.00           1422       24681.00    107913.70
  100.19        2965.25           1426       27146.00    118732.60
  100.22        2965.50           1429       28833.00    126140.80
  100.25        2965.75           1432       30531.00    133600.70
  100.28        2966.00           1436       33032.00    144594.50
  100.31        2966.25           1439       34518.00    151130.00
  100.34        2966.50           1442       36049.00    157866.20
  100.37        2966.75           1446       37605.00    164715.20
  100.40        2967.00           1449       37980.00    166366.20
  100.43        2967.25           1452       38063.00    166731.60
  100.46        2967.50           1456       37998.00    166445.40
  100.49        2967.75           1459       38034.00    166603.90
  100.53        2968.00           1462       37926.00    166128.40
  100.56        2968.25           1466       36675.00    160621.30
  100.59        2968.50           1469       35226.00    154244.80
  100.62        2968.75           1472       33654.00    147329.80
  100.65        2969.00           1476       31512.00    137912.10
  100.68        2969.25           1479       29577.00    129409.00
  100.71        2969.50           1482       28183.00    123286.00
  100.74        2969.75           1486       25669.00    112249.20
  100.77        2970.00           1489       24081.00    105281.40
  100.80        2970.25           1492       22377.00     97807.94
  100.83        2970.50           1496       19876.00     86844.98
  100.87        2970.75           1499       18151.00     79287.76
  100.90        2971.00           1502       16284.00     71112.32
  100.93        2971.25           1506       14031.00     61251.95
  100.96        2971.50           1509       12129.00     52932.29
  100.99        2971.75           1513        9946.00     43388.61
  101.02        2972.00           1516        8069.00     35187.08
  101.05        2972.25           1519        6428.00     28020.06
  101.08        2972.50           1523        4073.00     17740.04
  101.11        2972.75           1526        2487.00     10820.42
  101.14        2973.00           1529        1170.00      5076.62
  101.17        2973.25           1533         492.00      2120.45
  101.21        2973.50           1536         384.00      1649.60
  101.24        2973.75           1539         315.00      1348.79
  101.27        2974.00           1543         265.00      1130.81
  101.30        2974.25           1546         208.00       882.32
  101.33        2974.50           1549         161.00       677.43
  101.36        2974.75           1553         118.00       489.98
  101.39        2975.00           1556          90.00       367.92
  101.42        2975.25           1559          88.00       359.20
  101.45        2975.50           1563          75.00       302.53
  101.48        2975.75           1566          82.00       333.05
  101.51        2976.00           1569          67.00       267.66
  101.54        2976.25           1573          75.00       302.53
  101.57        2976.50           1576          75.00       302.53
  101.60        2976.75           1579          75.00       302.53
  101.64        2977.00           1583          63.00       250.22
  101.67        2977.25           1586          78.00       315.61
  101.70        2977.50           1590          68.00       272.02
  101.73        2977.75           1593          75.00       302.53
  101.76        2978.00           1596          67.00       267.66
  101.79        2978.25           1600          72.00       289.45
  101.82        2978.50           1603          78.00       315.61
  101.85        2978.75           1606          61.00       241.50
  101.88        2979.00           1610          65.00       258.94
  101.91        2979.25           1613          69.00       276.38
  101.94        2979.50           1616          79.00       319.97
  101.97        2979.75           1620          79.00       319.97
  102.00        2980.00           1623          74.00       298.17
  102.04        2980.25           1626          64.00       254.58
  102.07        2980.50           1630          67.00       267.66
  102.10        2980.75           1633          76.00       306.89
  102.13        2981.00           1637          69.00       276.38
  102.16        2981.25           1640          69.00       276.38
  102.19        2981.50           1643          72.00       289.45
  102.22        2981.75           1647          68.00       272.02
  102.25        2982.00           1650          71.00       285.09
  102.28        2982.25           1653          69.00       276.38
  102.31        2982.50           1657          71.00       285.09
  102.34        2982.75           1660          70.00       280.73
  102.37        2983.00           1663          69.00       276.38
  102.40        2983.25           1667          64.00       254.58
  102.43        2983.50           1670          72.00       289.45
  102.47        2983.75           1673          72.00       289.45
  102.50        2984.00           1677          73.00       293.81
HS scan finished at 01:42:43
end
************************************************************
  HS Scan of (1) Internal mercury lamp
************************************************************
Integration time is 0.2294 seconds per sample
dh290817Manchester 53.47 2.23 2.804185pr1000
************************************************************
Dead Time -------------------------  3E-08 
Number of Cycles Used -------------  4 
Starting Wavelength (Angstroms) ---  2950 
Final Wavelength (Angstoms) -------  2984 
Wavelength Increment (Angstroms) --  .25 
Filter Wheel #1 Position ---------- (1) Ground quartz diffuser (ND=2.32)
Filter Wheel #2 Position ---------- (1) Neutral Density 0.494



************************************************************
HS scan start time = 20:11:58
Dark Count =  6 


Time (GMT)  Wavelength (Ang)  Step Number  Raw Counts  Counts/Second

 1212.34        2950.00           1222          76.00       305.15
 1212.41        2950.25           1226          72.00       287.71
 1212.44        2950.50           1229          82.00       331.30
 1212.47        2950.75           1232          77.00       309.51
 1212.50        2951.00           1236          88.00       357.46
 1212.53        2951.25           1239          78.00       313.87
 1212.56        2951.50           1242          82.00       331.30
 1212.60        2951.75           1246          94.00       383.61
 1212.63        2952.00           1249          84.00       340.02
 1212.66        2952.25           1252          73.00       292.07
 1212.69        2952.50           1256          86.00       348.74
 1212.72        2952.75           1259          84.00       340.02
 1212.75        2953.00           1262          78.00       313.87
 1212.78        2953.25           1266          84.00       340.02
 1212.81        2953.50           1269          74.00       296.43
 1212.84        2953.75           1272          78.00       313.87
 1212.87        2954.00           1276          86.00       348.74
 1212.90        2954.25           1279          78.00       313.87
 1212.93        2954.50           1282          78.00       313.87
 1212.96        2954.75           1286          78.00       313.87
 1213.00        2955.00           1289          78.00       313.87
 1213.03        2955.25           1292          75.00       300.79
 1213.06        2955.50           1296          75.00       300.79
 1213.09        2955.75           1299          72.00       287.71
 1213.12        2956.00           1302          82.00       331.30
 1213.15        2956.25           1306          74.00       296.43
 1213.18        2956.50           1309          70.00       278.99
 1213.21        2956.75           1312          75.00       300.79
 1213.24        2957.00           1316          76.00       305.15
 1213.27        2957.25           1319          77.00       309.51
 1213.30        2957.50           1322          76.00       305.15
 1213.34        2957.75           1326          79.00       318.22
 1213.37        2958.00           1329          73.00       292.07
 1213.40        2958.25           1332          81.00       326.94
 1213.43        2958.50           1336          78.00       313.87
 1213.46        2958.75           1339          81.00       326.94
 1213.49        2959.00           1342          79.00       318.22
 1213.52        2959.25           1346          85.00       344.38
 1213.55        2959.50           1349          96.00       392.33
 1213.58        2959.75           1352         103.00       422.85
 1213.61        2960.00           1356         146.00       610.30
 1213.64        2960.25           1359         157.00       658.25
 1213.67        2960.50           1362         209.00       884.94
 1213.70        2960.75           1366         265.00      1129.07
 1213.73        2961.00           1369         316.00      1351.41
 1213.77        2961.25           1372         350.00      1499.63
 1213.80        2961.50           1376         430.00      1848.40
 1213.83        2961.75           1379         556.00      2397.73
 1213.86        2962.00           1382        1255.00      5445.53
 1213.89        2962.25           1386        2992.00     13021.65
 1213.92        2962.50           1389        4563.00     19876.72
 1213.95        2962.75           1392        6025.00     26258.69
 1213.98        2963.00           1396        8136.00     35478.02
 1214.01        2963.25           1399        9664.00     42154.41
 1214.05        2963.50           1402       11238.00     49034.59
 1214.08        2963.75           1406       13372.00     58367.15
 1214.11        2964.00           1409       15030.00     65621.65
 1214.14        2964.25           1412       16743.00     73120.12
 1214.17        2964.50           1416       19014.00     83066.38
 1214.20        2964.75           1419       20556.00     89823.24
 1214.23        2965.00           1422       22153.00     96823.99
 1214.26        2965.25           1426       24110.00    105406.90
 1214.29        2965.50           1429       25706.00    112409.80
 1214.32        2965.75           1432       27541.00    120465.10
 1214.35        2966.00           1436       29520.00    129156.80
 1214.39        2966.25           1439       31030.00    135791.80
 1214.42        2966.50           1442       32550.00    142473.40
 1214.45        2966.75           1446       34152.00    149518.40
 1214.48        2967.00           1449       34692.00    151893.70
 1214.51        2967.25           1452       34752.00    152157.70
 1214.54        2967.50           1456       34695.00    151906.90
 1214.57        2967.75           1459       34526.00    151163.50
 1214.60        2968.00           1462       34745.00    152126.90
 1214.63        2968.25           1466       33550.00    146870.60
 1214.66        2968.50           1469       32179.00    140842.30
 1214.70        2968.75           1472       30767.00    134636.00
 1214.73        2969.00           1476       28774.00    125879.90
 1214.76        2969.25           1479       27333.00    119551.80
 1214.79        2969.50           1482       25429.00    111194.20
 1214.82        2969.75           1486       23262.00    101687.30
 1214.85        2970.00           1489       21861.00     95543.74
 1214.88        2970.25           1492       20122.00     87921.22
 1214.91        2970.50           1496       18004.00     78642.16
 1214.94        2970.75           1499       16406.00     71644.66
 1214.97        2971.00           1502       14721.00     64269.40
 1215.01        2971.25           1506       12775.00     55755.78
 1215.04        2971.50           1509       11081.00     48348.19
 1215.07        2971.75           1513        9101.00     39694.15
 1215.10        2972.00           1516        7522.00     32795.98
 1215.13        2972.25           1519        5874.00     25599.43
 1215.16        2972.50           1523        3825.00     16656.10
 1215.19        2972.75           1526        2270.00      9872.15
 1215.22        2973.00           1529        1004.00      4351.05
 1215.25        2973.25           1533         444.00      1909.44
 1215.28        2973.50           1536         335.00      1434.24
 1215.31        2973.75           1539         279.00      1190.10
 1215.35        2974.00           1543         251.00      1068.04
 1215.38        2974.25           1546         179.00       754.16
 1215.41        2974.50           1549         145.00       605.94
 1215.44        2974.75           1553          89.00       361.82
 1215.47        2975.00           1556          90.00       366.18
 1215.50        2975.25           1559          84.00       340.02
 1215.53        2975.50           1563          75.00       300.79
 1215.56        2975.75           1566          71.00       283.35
 1215.59        2976.00           1569          70.00       278.99
 1215.62        2976.25           1573          70.00       278.99
 1215.65        2976.50           1576          69.00       274.63
 1215.69        2976.75           1579          75.00       300.79
 1215.72        2977.00           1583          70.00       278.99
 1215.75        2977.25           1586          65.00       257.19
 1215.78        2977.50           1590          77.00       309.51
 1215.81        2977.75           1593          70.00       278.99
 1215.84        2978.00           1596          71.00       283.35
 1215.87        2978.25           1600          70.00       278.99
 1215.90        2978.50           1603          81.00       326.94
 1215.93        2978.75           1606          68.00       270.27
 1215.96        2979.00           1610          72.00       287.71
 1215.99        2979.25           1613          71.00       283.35
 1216.03        2979.50           1616          73.00       292.07
 1216.06        2979.75           1620          69.00       274.63
 1216.09        2980.00           1623          78.00       313.87
 1216.12        2980.25           1626          72.00       287.71
 1216.15        2980.50           1630          69.00       274.63
 1216.18        2980.75           1633          65.00       257.19
 1216.21        2981.00           1637          76.00       305.15
 1216.24        2981.25           1640          68.00       270.27
 1216.27        2981.50           1643          73.00       292.07
 1216.30        2981.75           1647          62.00       244.12
 1216.34        2982.00           1650          74.00       296.43
 1216.37        2982.25           1653          65.00       257.19
 1216.40        2982.50           1657          70.00       278.99
 1216.43        2982.75           1660          69.00       274.63
 1216.46        2983.00           1663          67.00       265.91
 1216.49        2983.25           1667          77.00       309.51
 1216.52        2983.50           1670          75.00       300.79
 1216.55        2983.75           1673          75.00       300.79
 1216.58        2984.00           1677          71.00       283.35
HS scan finished at 20:16:48
end
