************************************************************
  HS Scan of (1) Internal mercury lamp
************************************************************
Integration time is 0.2294 seconds per sample
dh280818Manchester 53.47 2.23 2.857833pr1000
************************************************************
Dead Time -------------------------  3E-08 
Number of Cycles Used -------------  4 
Starting Wavelength (Angstroms) ---  2950 
Final Wavelength (Angstoms) -------  2984 
Wavelength Increment (Angstroms) --  .25 
Filter Wheel #1 Position ---------- (1) Ground quartz diffuser (ND=2.32)
Filter Wheel #2 Position ---------- (1) Neutral Density 0.494



************************************************************
HS scan start time = 01:37:03
Dark Count =  7.6 


Time (GMT)  Wavelength (Ang)  Step Number  Raw Counts  Counts/Second

   97.43        2950.00           1222          52.00       193.55
   97.49        2950.25           1226          56.00       210.99
   97.52        2950.50           1229          53.00       197.91
   97.56        2950.75           1232          56.00       210.99
   97.59        2951.00           1236          55.00       206.63
   97.62        2951.25           1239          48.00       176.11
   97.65        2951.50           1242          52.00       193.55
   97.68        2951.75           1246          54.00       202.27
   97.71        2952.00           1249          50.00       184.83
   97.74        2952.25           1252          49.00       180.47
   97.77        2952.50           1256          46.00       167.39
   97.80        2952.75           1259          53.00       197.91
   97.83        2953.00           1262          53.00       197.91
   97.86        2953.25           1266          54.00       202.27
   97.89        2953.50           1269          57.00       215.35
   97.92        2953.75           1272          49.00       180.47
   97.96        2954.00           1276          52.00       193.55
   97.99        2954.25           1279          49.00       180.47
   98.02        2954.50           1282          59.00       224.06
   98.05        2954.75           1286          51.00       189.19
   98.08        2955.00           1289          52.00       193.55
   98.11        2955.25           1292          52.00       193.55
   98.14        2955.50           1296          49.00       180.47
   98.17        2955.75           1299          60.00       228.42
   98.20        2956.00           1302          52.00       193.55
   98.23        2956.25           1306          49.00       180.47
   98.26        2956.50           1309          53.00       197.91
   98.29        2956.75           1312          59.00       224.06
   98.32        2957.00           1316          46.00       167.39
   98.35        2957.25           1319          52.00       193.55
   98.38        2957.50           1322          48.00       176.11
   98.42        2957.75           1326          57.00       215.35
   98.45        2958.00           1329          51.00       189.19
   98.48        2958.25           1332          52.00       193.55
   98.51        2958.50           1336          50.00       184.83
   98.54        2958.75           1339          46.00       167.39
   98.57        2959.00           1342          50.00       184.83
   98.60        2959.25           1346          52.00       193.55
   98.63        2959.50           1349          52.00       193.55
   98.66        2959.75           1352          70.00       272.02
   98.69        2960.00           1356          95.00       381.00
   98.72        2960.25           1359         119.00       485.62
   98.75        2960.50           1362         148.00       612.04
   98.78        2960.75           1366         188.00       786.42
   98.82        2961.00           1369         242.00      1021.83
   98.85        2961.25           1372         268.00      1135.17
   98.88        2961.50           1376         309.00      1313.91
   98.91        2961.75           1379         453.00      1941.70
   98.94        2962.00           1382         923.00      3990.89
   98.97        2962.25           1386        2372.00     10310.08
   99.00        2962.50           1389        3768.00     16400.40
   99.03        2962.75           1392        5069.00     22078.26
   99.06        2963.00           1396        6802.00     29644.49
   99.10        2963.25           1399        8101.00     35318.14
   99.13        2963.50           1402        9309.00     40596.06
   99.16        2963.75           1406       11078.00     48328.08
   99.19        2964.00           1409       12443.00     54296.74
   99.22        2964.25           1412       13908.00     60705.05
   99.25        2964.50           1416       15524.00     67776.74
   99.28        2964.75           1419       16943.00     73988.82
   99.31        2965.00           1422       18397.00     80356.53
   99.34        2965.25           1426       20184.00     88185.91
   99.37        2965.50           1429       21630.00     94523.99
   99.41        2965.75           1432       22960.00    100355.70
   99.44        2966.00           1436       24542.00    107295.10
   99.47        2966.25           1439       25725.00    112486.20
   99.50        2966.50           1442       26933.00    117788.60
   99.53        2966.75           1446       28345.00    123988.70
   99.56        2967.00           1449       28555.00    124911.00
   99.59        2967.25           1452       28707.00    125578.60
   99.62        2967.50           1456       28582.00    125029.60
   99.65        2967.75           1459       28536.00    124827.50
   99.69        2968.00           1462       28435.00    124384.00
   99.72        2968.25           1466       27620.00    120805.00
   99.75        2968.50           1469       26630.00    116458.50
   99.78        2968.75           1472       25168.00    110041.90
   99.81        2969.00           1476       23605.00    103184.70
   99.84        2969.25           1479       22170.00     96891.52
   99.87        2969.50           1482       20693.00     90416.68
   99.90        2969.75           1486       19061.00     83265.28
   99.93        2970.00           1489       18009.00     78657.06
   99.96        2970.25           1492       16629.00     72614.00
  100.00        2970.50           1496       14900.00     65045.73
  100.03        2970.75           1499       13567.00     59213.21
  100.06        2971.00           1502       12363.00     53946.87
  100.09        2971.25           1506       10475.00     45692.07
  100.12        2971.50           1509        9051.00     39468.68
  100.15        2971.75           1513        7414.00     32317.28
  100.18        2972.00           1516        5984.00     26072.70
  100.21        2972.25           1519        4725.00     20576.78
  100.24        2972.50           1523        3077.00     13385.50
  100.28        2972.75           1526        1882.00      8172.88
  100.31        2973.00           1529         885.00      3825.20
  100.34        2973.25           1533         358.00      1527.53
  100.37        2973.50           1536         273.00      1156.97
  100.40        2973.75           1539         228.00       960.79
  100.43        2974.00           1543         201.00       843.09
  100.46        2974.25           1546         159.00       660.00
  100.49        2974.50           1549         105.00       424.59
  100.52        2974.75           1553          81.00       319.97
  100.55        2975.00           1556          65.00       250.22
  100.58        2975.25           1559          53.00       197.91
  100.61        2975.50           1563          52.00       193.55
  100.64        2975.75           1566          57.00       215.35
  100.68        2976.00           1569          46.00       167.39
  100.71        2976.25           1573          54.00       202.27
  100.74        2976.50           1576          48.00       176.11
  100.77        2976.75           1579          53.00       197.91
  100.80        2977.00           1583          47.00       171.75
  100.83        2977.25           1586          50.00       184.83
  100.86        2977.50           1590          44.00       158.68
  100.89        2977.75           1593          48.00       176.11
  100.92        2978.00           1596          54.00       202.27
  100.95        2978.25           1600          53.00       197.91
  100.98        2978.50           1603          46.00       167.39
  101.01        2978.75           1606          49.00       180.47
  101.05        2979.00           1610          52.00       193.55
  101.08        2979.25           1613          54.00       202.27
  101.11        2979.50           1616          54.00       202.27
  101.14        2979.75           1620          49.00       180.47
  101.17        2980.00           1623          41.00       145.60
  101.20        2980.25           1626          49.00       180.47
  101.23        2980.50           1630          49.00       180.47
  101.26        2980.75           1633          54.00       202.27
  101.29        2981.00           1637          51.00       189.19
  101.32        2981.25           1640          47.00       171.75
  101.35        2981.50           1643          45.00       163.03
  101.38        2981.75           1647          48.00       176.11
  101.41        2982.00           1650          47.00       171.75
  101.45        2982.25           1653          50.00       184.83
  101.48        2982.50           1657          42.00       149.96
  101.51        2982.75           1660          49.00       180.47
  101.54        2983.00           1663          41.00       145.60
  101.57        2983.25           1667          49.00       180.47
  101.60        2983.50           1670          49.00       180.47
  101.63        2983.75           1673          44.00       158.68
  101.66        2984.00           1677          46.00       167.39
HS scan finished at 01:41:53
end
************************************************************
  HS Scan of (1) Internal mercury lamp
************************************************************
Integration time is 0.2294 seconds per sample
dh280818Manchester 53.47 2.23 2.911481pr1000
************************************************************
Dead Time -------------------------  3E-08 
Number of Cycles Used -------------  4 
Starting Wavelength (Angstroms) ---  2950 
Final Wavelength (Angstoms) -------  2984 
Wavelength Increment (Angstroms) --  .25 
Filter Wheel #1 Position ---------- (1) Ground quartz diffuser (ND=2.32)
Filter Wheel #2 Position ---------- (1) Neutral Density 0.494



************************************************************
HS scan start time = 20:12:01
Dark Count =  5.2 


Time (GMT)  Wavelength (Ang)  Step Number  Raw Counts  Counts/Second

 1212.38        2950.00           1222          54.00       212.73
 1212.44        2950.25           1226          54.00       212.73
 1212.48        2950.50           1229          50.00       195.29
 1212.51        2950.75           1232          48.00       186.57
 1212.54        2951.00           1236          54.00       212.73
 1212.57        2951.25           1239          54.00       212.73
 1212.60        2951.50           1242          51.00       199.65
 1212.63        2951.75           1246          56.00       221.45
 1212.66        2952.00           1249          55.00       217.09
 1212.69        2952.25           1252          53.00       208.37
 1212.72        2952.50           1256          54.00       212.73
 1212.76        2952.75           1259          49.00       190.93
 1212.79        2953.00           1262          49.00       190.93
 1212.82        2953.25           1266          47.00       182.22
 1212.85        2953.50           1269          54.00       212.73
 1212.88        2953.75           1272          52.00       204.01
 1212.91        2954.00           1276          51.00       199.65
 1212.94        2954.25           1279          50.00       195.29
 1212.97        2954.50           1282          55.00       217.09
 1213.00        2954.75           1286          54.00       212.73
 1213.03        2955.00           1289          57.00       225.81
 1213.06        2955.25           1292          49.00       190.93
 1213.09        2955.50           1296          53.00       208.37
 1213.13        2955.75           1299          45.00       173.50
 1213.16        2956.00           1302          53.00       208.37
 1213.19        2956.25           1306          54.00       212.73
 1213.22        2956.50           1309          51.00       199.65
 1213.25        2956.75           1312          49.00       190.93
 1213.28        2957.00           1316          49.00       190.93
 1213.31        2957.25           1319          52.00       204.01
 1213.34        2957.50           1322          53.00       208.37
 1213.37        2957.75           1326          46.00       177.86
 1213.40        2958.00           1329          53.00       208.37
 1213.43        2958.25           1332          47.00       182.22
 1213.46        2958.50           1336          43.00       164.78
 1213.49        2958.75           1339          54.00       212.73
 1213.53        2959.00           1342          47.00       182.22
 1213.56        2959.25           1346          45.00       173.50
 1213.59        2959.50           1349          57.00       225.81
 1213.62        2959.75           1352          66.00       265.04
 1213.65        2960.00           1356          87.00       356.59
 1213.68        2960.25           1359         107.00       443.77
 1213.71        2960.50           1362         140.00       587.63
 1213.74        2960.75           1366         180.00       762.01
 1213.77        2961.00           1369         225.00       958.18
 1213.81        2961.25           1372         240.00      1023.57
 1213.84        2961.50           1376         311.00      1333.10
 1213.87        2961.75           1379         487.00      2100.39
 1213.90        2962.00           1382        1146.00      4973.72
 1213.93        2962.25           1386        2716.00     11821.11
 1213.96        2962.50           1389        4037.00     17584.69
 1213.99        2962.75           1392        5368.00     23393.92
 1214.02        2963.00           1396        7051.00     30742.38
 1214.05        2963.25           1399        8307.00     36228.54
 1214.08        2963.50           1402        9528.00     41563.56
 1214.12        2963.75           1406       11268.00     49169.25
 1214.15        2964.00           1409       12690.00     55387.51
 1214.18        2964.25           1412       14069.00     61419.96
 1214.21        2964.50           1416       15712.00     68610.13
 1214.24        2964.75           1419       17069.00     74551.03
 1214.27        2965.00           1422       18458.00     80634.24
 1214.30        2965.25           1426       20304.00     88722.32
 1214.33        2965.50           1429       21646.00     94604.66
 1214.36        2965.75           1432       22876.00     99997.89
 1214.39        2966.00           1436       24677.00    107898.00
 1214.43        2966.25           1439       25880.00    113177.00
 1214.46        2966.50           1442       27203.00    118984.60
 1214.49        2966.75           1446       28405.00    124262.70
 1214.52        2967.00           1449       28496.00    124662.40
 1214.55        2967.25           1452       28621.00    125211.40
 1214.58        2967.50           1456       28684.00    125488.10
 1214.61        2967.75           1459       28608.00    125154.30
 1214.64        2968.00           1462       28564.00    124961.00
 1214.67        2968.25           1466       27593.00    120696.90
 1214.71        2968.50           1469       26395.00    115437.50
 1214.74        2968.75           1472       25096.00    109736.40
 1214.77        2969.00           1476       23295.00    101835.50
 1214.80        2969.25           1479       21911.00     95766.47
 1214.83        2969.50           1482       20605.00     90041.50
 1214.86        2969.75           1486       19039.00     83179.41
 1214.89        2970.00           1489       17748.00     77524.47
 1214.92        2970.25           1492       16377.00     71521.21
 1214.95        2970.50           1496       14893.00     65025.60
 1214.99        2970.75           1499       13455.00     58733.74
 1215.02        2971.00           1502       12105.00     52829.08
 1215.05        2971.25           1506       10210.00     44544.23
 1215.08        2971.50           1509        8889.00     38771.31
 1215.11        2971.75           1513        7228.00     31515.40
 1215.14        2972.00           1516        5818.00     25358.43
 1215.17        2972.25           1519        4550.00     19823.47
 1215.20        2972.50           1523        2888.00     12571.44
 1215.23        2972.75           1526        1650.00      7171.55
 1215.26        2973.00           1529         776.00      3360.41
 1215.30        2973.25           1533         368.00      1581.59
 1215.33        2973.50           1536         296.00      1267.70
 1215.36        2973.75           1539         254.00      1084.60
 1215.39        2974.00           1543         229.00       975.62
 1215.42        2974.25           1546         167.00       705.33
 1215.45        2974.50           1549         142.00       596.35
 1215.48        2974.75           1553          87.00       356.59
 1215.51        2975.00           1556          68.00       273.76
 1215.54        2975.25           1559          62.00       247.60
 1215.58        2975.50           1563          51.00       199.65
 1215.61        2975.75           1566          52.00       204.01
 1215.64        2976.00           1569          53.00       208.37
 1215.67        2976.25           1573          58.00       230.17
 1215.70        2976.50           1576          47.00       182.22
 1215.73        2976.75           1579          52.00       204.01
 1215.76        2977.00           1583          44.00       169.14
 1215.79        2977.25           1586          47.00       182.22
 1215.82        2977.50           1590          47.00       182.22
 1215.85        2977.75           1593          53.00       208.37
 1215.88        2978.00           1596          47.00       182.22
 1215.91        2978.25           1600          43.00       164.78
 1215.94        2978.50           1603          53.00       208.37
 1215.97        2978.75           1606          43.00       164.78
 1216.00        2979.00           1610          43.00       164.78
 1216.03        2979.25           1613          50.00       195.29
 1216.07        2979.50           1616          46.00       177.86
 1216.10        2979.75           1620          43.00       164.78
 1216.13        2980.00           1623          53.00       208.37
 1216.16        2980.25           1626          50.00       195.29
 1216.19        2980.50           1630          52.00       204.01
 1216.22        2980.75           1633          58.00       230.17
 1216.25        2981.00           1637          48.00       186.57
 1216.28        2981.25           1640          45.00       173.50
 1216.31        2981.50           1643          48.00       186.57
 1216.34        2981.75           1647          52.00       204.01
 1216.37        2982.00           1650          45.00       173.50
 1216.41        2982.25           1653          57.00       225.81
 1216.44        2982.50           1657          48.00       186.57
 1216.47        2982.75           1660          49.00       190.93
 1216.50        2983.00           1663          54.00       212.73
 1216.53        2983.25           1667          49.00       190.93
 1216.56        2983.50           1670          42.00       160.42
 1216.59        2983.75           1673          44.00       169.14
 1216.62        2984.00           1677          49.00       190.93
HS scan finished at 20:16:50
end
