************************************************************
  HS Scan of (1) Internal mercury lamp
************************************************************
Integration time is 0.2294 seconds per sample
dh040917Manchester 53.47 2.23 2.965129pr1000
************************************************************
Dead Time -------------------------  3E-08 
Number of Cycles Used -------------  4 
Starting Wavelength (Angstroms) ---  2950 
Final Wavelength (Angstoms) -------  2984 
Wavelength Increment (Angstroms) --  .25 
Filter Wheel #1 Position ---------- (1) Ground quartz diffuser (ND=2.32)
Filter Wheel #2 Position ---------- (1) Neutral Density 0.494



************************************************************
HS scan start time = 19:42:06
Dark Count =  6.7 


Time (GMT)  Wavelength (Ang)  Step Number  Raw Counts  Counts/Second

 1182.47        2950.00           1222          87.00       350.05
 1182.53        2950.25           1226          76.00       302.10
 1182.56        2950.50           1229          83.00       332.61
 1182.59        2950.75           1232          82.00       328.25
 1182.63        2951.00           1236          83.00       332.61
 1182.66        2951.25           1239          76.00       302.10
 1182.69        2951.50           1242          76.00       302.10
 1182.72        2951.75           1246          84.00       336.97
 1182.75        2952.00           1249          65.00       254.14
 1182.78        2952.25           1252          79.00       315.17
 1182.81        2952.50           1256          77.00       306.45
 1182.84        2952.75           1259          80.00       319.53
 1182.87        2953.00           1262          75.00       297.74
 1182.90        2953.25           1266          75.00       297.74
 1182.93        2953.50           1269          74.00       293.38
 1182.96        2953.75           1272          75.00       297.74
 1182.99        2954.00           1276          79.00       315.17
 1183.03        2954.25           1279          71.00       280.30
 1183.06        2954.50           1282          78.00       310.81
 1183.09        2954.75           1286          77.00       306.45
 1183.12        2955.00           1289          80.00       319.53
 1183.15        2955.25           1292          77.00       306.45
 1183.18        2955.50           1296          73.00       289.02
 1183.21        2955.75           1299          79.00       315.17
 1183.24        2956.00           1302          83.00       332.61
 1183.27        2956.25           1306          76.00       302.10
 1183.30        2956.50           1309          83.00       332.61
 1183.33        2956.75           1312          71.00       280.30
 1183.36        2957.00           1316          83.00       332.61
 1183.40        2957.25           1319          78.00       310.81
 1183.43        2957.50           1322          80.00       319.53
 1183.46        2957.75           1326          80.00       319.53
 1183.49        2958.00           1329          75.00       297.74
 1183.52        2958.25           1332          85.00       341.33
 1183.55        2958.50           1336          83.00       332.61
 1183.58        2958.75           1339          79.00       315.17
 1183.61        2959.00           1342          73.00       289.02
 1183.64        2959.25           1346          77.00       306.45
 1183.67        2959.50           1349          93.00       376.20
 1183.70        2959.75           1352         122.00       502.62
 1183.73        2960.00           1356         151.00       629.04
 1183.76        2960.25           1359         193.00       812.14
 1183.80        2960.50           1362         234.00       990.88
 1183.83        2960.75           1366         310.00      1322.20
 1183.86        2961.00           1369         339.00      1448.62
 1183.89        2961.25           1372         380.00      1627.37
 1183.92        2961.50           1376         474.00      2037.18
 1183.95        2961.75           1379         645.00      2782.71
 1183.98        2962.00           1382        1368.00      5935.23
 1184.01        2962.25           1386        3332.00     14501.95
 1184.04        2962.50           1389        5072.00     22095.29
 1184.07        2962.75           1392        6870.00     29945.37
 1184.10        2963.00           1396        9075.00     39577.48
 1184.13        2963.25           1399       10780.00     47029.26
 1184.17        2963.50           1402       12346.00     53876.46
 1184.20        2963.75           1406       14762.00     64445.75
 1184.23        2964.00           1409       16438.00     71781.71
 1184.26        2964.25           1412       18198.00     79488.81
 1184.29        2964.50           1416       20597.00     89999.87
 1184.32        2964.75           1419       22223.00     97127.87
 1184.35        2965.00           1422       24147.00    105566.20
 1184.38        2965.25           1426       26581.00    116247.40
 1184.41        2965.50           1429       28354.00    124032.20
 1184.44        2965.75           1432       30170.00    132009.60
 1184.48        2966.00           1436       32465.00    142096.60
 1184.51        2966.25           1439       33975.00    148736.70
 1184.54        2966.50           1442       35703.00    156338.80
 1184.57        2966.75           1446       37467.00    164102.80
 1184.60        2967.00           1449       37891.00    165969.50
 1184.63        2967.25           1452       37936.00    166167.60
 1184.66        2967.50           1456       38094.00    166863.30
 1184.69        2967.75           1459       38003.00    166462.60
 1184.72        2968.00           1462       37938.00    166176.40
 1184.75        2968.25           1466       36599.00    160281.90
 1184.79        2968.50           1469       35162.00    153958.40
 1184.82        2968.75           1472       33570.00    146955.50
 1184.85        2969.00           1476       31294.00    136949.00
 1184.88        2969.25           1479       29728.00    130067.60
 1184.91        2969.50           1482       28066.00    122767.40
 1184.94        2969.75           1486       25768.00    112678.90
 1184.97        2970.00           1489       24009.00    104960.80
 1185.00        2970.25           1492       22218.00     97105.94
 1185.03        2970.50           1496       19856.00     86752.52
 1185.06        2970.75           1499       18044.00     78814.30
 1185.10        2971.00           1502       16230.00     70871.10
 1185.13        2971.25           1506       13993.00     61080.88
 1185.16        2971.50           1509       12232.00     53377.92
 1185.19        2971.75           1513        9893.00     43152.17
 1185.22        2972.00           1516        8070.00     35186.65
 1185.25        2972.25           1519        6207.00     27050.28
 1185.28        2972.50           1523        3925.00     17089.41
 1185.31        2972.75           1526        2417.00     10510.29
 1185.34        2973.00           1529        1047.00      4535.49
 1185.37        2973.25           1533         501.00      2154.89
 1185.40        2973.50           1536         385.00      1649.17
 1185.43        2973.75           1539         325.00      1387.59
 1185.47        2974.00           1543         276.00      1173.97
 1185.50        2974.25           1546         206.00       868.81
 1185.53        2974.50           1549         168.00       703.15
 1185.56        2974.75           1553         106.00       432.87
 1185.59        2975.00           1556          93.00       376.20
 1185.62        2975.25           1559          78.00       310.81
 1185.65        2975.50           1563          78.00       310.81
 1185.68        2975.75           1566          69.00       271.58
 1185.71        2976.00           1569          81.00       323.89
 1185.74        2976.25           1573          76.00       302.10
 1185.77        2976.50           1576          79.00       315.17
 1185.80        2976.75           1579          80.00       319.53
 1185.83        2977.00           1583          68.00       267.22
 1185.87        2977.25           1586          77.00       306.45
 1185.90        2977.50           1590          70.00       275.94
 1185.93        2977.75           1593          77.00       306.45
 1185.96        2978.00           1596          74.00       293.38
 1185.99        2978.25           1600          73.00       289.02
 1186.02        2978.50           1603          75.00       297.74
 1186.05        2978.75           1606          73.00       289.02
 1186.08        2979.00           1610          68.00       267.22
 1186.11        2979.25           1613          77.00       306.45
 1186.14        2979.50           1616          75.00       297.74
 1186.17        2979.75           1620          76.00       302.10
 1186.20        2980.00           1623          72.00       284.66
 1186.23        2980.25           1626          88.00       354.41
 1186.26        2980.50           1630          65.00       254.14
 1186.29        2980.75           1633          69.00       271.58
 1186.33        2981.00           1637          66.00       258.50
 1186.36        2981.25           1640          69.00       271.58
 1186.39        2981.50           1643          66.00       258.50
 1186.42        2981.75           1647          74.00       293.38
 1186.45        2982.00           1650          66.00       258.50
 1186.48        2982.25           1653          71.00       280.30
 1186.51        2982.50           1657          68.00       267.22
 1186.54        2982.75           1660          69.00       271.58
 1186.57        2983.00           1663          70.00       275.94
 1186.60        2983.25           1667          72.00       284.66
 1186.63        2983.50           1670          58.00       223.63
 1186.66        2983.75           1673          68.00       267.22
 1186.69        2984.00           1677          69.00       271.58
HS scan finished at 19:46:55
end
