************************************************************
  HS Scan of (1) Internal mercury lamp
************************************************************
Integration time is 0.2294 seconds per sample
dh060918Manchester 53.47 2.23 2.804185pr1000
************************************************************
Dead Time -------------------------  3E-08 
Number of Cycles Used -------------  4 
Starting Wavelength (Angstroms) ---  2950 
Final Wavelength (Angstoms) -------  2984 
Wavelength Increment (Angstroms) --  .25 
Filter Wheel #1 Position ---------- (1) Ground quartz diffuser (ND=2.32)
Filter Wheel #2 Position ---------- (1) Neutral Density 0.494



************************************************************
HS scan start time = 02:13:46
Dark Count =  8.399999 


Time (GMT)  Wavelength (Ang)  Step Number  Raw Counts  Counts/Second

  134.14        2950.00           1222          53.00       194.42
  134.20        2950.25           1226          54.00       198.78
  134.23        2950.50           1229          48.00       172.63
  134.26        2950.75           1232          48.00       172.63
  134.29        2951.00           1236          48.00       172.63
  134.33        2951.25           1239          45.00       159.55
  134.36        2951.50           1242          54.00       198.78
  134.39        2951.75           1246          58.00       216.22
  134.42        2952.00           1249          47.00       168.27
  134.45        2952.25           1252          52.00       190.06
  134.48        2952.50           1256          49.00       176.98
  134.51        2952.75           1259          53.00       194.42
  134.54        2953.00           1262          55.00       203.14
  134.57        2953.25           1266          53.00       194.42
  134.60        2953.50           1269          57.00       211.86
  134.63        2953.75           1272          50.00       181.34
  134.67        2954.00           1276          51.00       185.70
  134.70        2954.25           1279          54.00       198.78
  134.73        2954.50           1282          49.00       176.98
  134.76        2954.75           1286          47.00       168.27
  134.79        2955.00           1289          49.00       176.98
  134.82        2955.25           1292          48.00       172.63
  134.85        2955.50           1296          53.00       194.42
  134.88        2955.75           1299          44.00       155.19
  134.91        2956.00           1302          50.00       181.34
  134.94        2956.25           1306          55.00       203.14
  134.97        2956.50           1309          52.00       190.06
  135.01        2956.75           1312          58.00       216.22
  135.04        2957.00           1316          51.00       185.70
  135.07        2957.25           1319          51.00       185.70
  135.10        2957.50           1322          56.00       207.50
  135.13        2957.75           1326          48.00       172.63
  135.16        2958.00           1329          43.00       150.83
  135.19        2958.25           1332          55.00       203.14
  135.22        2958.50           1336          51.00       185.70
  135.25        2958.75           1339          57.00       211.86
  135.28        2959.00           1342          48.00       172.63
  135.31        2959.25           1346          54.00       198.78
  135.34        2959.50           1349          57.00       211.86
  135.37        2959.75           1352          57.00       211.86
  135.40        2960.00           1356          82.00       320.84
  135.43        2960.25           1359         112.00       451.62
  135.47        2960.50           1362         137.00       560.60
  135.50        2960.75           1366         193.00       804.73
  135.53        2961.00           1369         217.00       909.35
  135.56        2961.25           1372         255.00      1075.01
  135.59        2961.50           1376         351.00      1493.53
  135.62        2961.75           1379         524.00      2247.75
  135.65        2962.00           1382        1138.00      4924.88
  135.68        2962.25           1386        2614.00     11362.20
  135.71        2962.50           1389        3878.00     16876.90
  135.74        2962.75           1392        5121.00     22301.75
  135.77        2963.00           1396        6653.00     28990.33
  135.81        2963.25           1399        7985.00     34807.91
  135.84        2963.50           1402        9283.00     40478.94
  135.87        2963.75           1406       10991.00     47944.24
  135.90        2964.00           1409       12302.00     53676.60
  135.93        2964.25           1412       13530.00     59047.84
  135.96        2964.50           1416       15330.00     66924.11
  135.99        2964.75           1419       16804.00     73376.69
  136.02        2965.00           1422       17995.00     78592.24
  136.05        2965.25           1426       19871.00     86810.80
  136.08        2965.50           1429       20981.00     91675.50
  136.12        2965.75           1432       22191.00     96980.09
  136.15        2966.00           1436       23857.00    104286.50
  136.18        2966.25           1439       24932.00    109002.80
  136.21        2966.50           1442       26184.00    114497.20
  136.24        2966.75           1446       27168.00    118816.90
  136.27        2967.00           1449       27518.00    120353.60
  136.30        2967.25           1452       27281.00    119313.00
  136.33        2967.50           1456       27358.00    119651.00
  136.36        2967.75           1459       27351.00    119620.30
  136.40        2968.00           1462       27098.00    118509.50
  136.43        2968.25           1466       25938.00    113417.50
  136.46        2968.50           1469       24964.00    109143.20
  136.49        2968.75           1472       23826.00    104150.50
  136.52        2969.00           1476       22104.00     96598.62
  136.55        2969.25           1479       20835.00     91035.56
  136.58        2969.50           1482       19624.00     85728.48
  136.61        2969.75           1486       17898.00     78167.40
  136.64        2970.00           1489       16753.00     73153.40
  136.68        2970.25           1492       15436.00     67388.06
  136.71        2970.50           1496       13726.00     59905.30
  136.74        2970.75           1499       12578.00     54883.67
  136.77        2971.00           1502       11287.00     49238.33
  136.80        2971.25           1506        9652.00     42091.48
  136.83        2971.50           1509        8422.00     36716.97
  136.86        2971.75           1513        6829.00     29758.90
  136.89        2972.00           1516        5554.00     24191.92
  136.93        2972.25           1519        4387.00     19098.13
  136.96        2972.50           1523        2741.00     11916.20
  136.99        2972.75           1526        1561.00      6769.47
  137.02        2973.00           1529         719.00      3097.93
  137.05        2973.25           1533         347.00      1476.09
  137.08        2973.50           1536         289.00      1223.24
  137.11        2973.75           1539         235.00       987.82
  137.14        2974.00           1543         199.00       830.88
  137.17        2974.25           1546         161.00       665.23
  137.20        2974.50           1549         119.00       482.13
  137.23        2974.75           1553          84.00       329.56
  137.27        2975.00           1556          68.00       259.81
  137.30        2975.25           1559          63.00       238.01
  137.33        2975.50           1563          53.00       194.42
  137.36        2975.75           1566          47.00       168.27
  137.39        2976.00           1569          54.00       198.78
  137.42        2976.25           1573          51.00       185.70
  137.45        2976.50           1576          48.00       172.63
  137.48        2976.75           1579          40.00       137.75
  137.51        2977.00           1583          43.00       150.83
  137.54        2977.25           1586          44.00       155.19
  137.58        2977.50           1590          50.00       181.34
  137.61        2977.75           1593          45.00       159.55
  137.64        2978.00           1596          47.00       168.27
  137.67        2978.25           1600          44.00       155.19
  137.70        2978.50           1603          43.00       150.83
  137.73        2978.75           1606          48.00       172.63
  137.76        2979.00           1610          39.00       133.39
  137.79        2979.25           1613          58.00       216.22
  137.82        2979.50           1616          48.00       172.63
  137.85        2979.75           1620          50.00       181.34
  137.89        2980.00           1623          44.00       155.19
  137.92        2980.25           1626          41.00       142.11
  137.95        2980.50           1630          48.00       172.63
  137.98        2980.75           1633          46.00       163.91
  138.01        2981.00           1637          44.00       155.19
  138.04        2981.25           1640          46.00       163.91
  138.07        2981.50           1643          41.00       142.11
  138.10        2981.75           1647          40.00       137.75
  138.13        2982.00           1650          50.00       181.34
  138.16        2982.25           1653          48.00       172.63
  138.19        2982.50           1657          43.00       150.83
  138.23        2982.75           1660          46.00       163.91
  138.26        2983.00           1663          40.00       137.75
  138.29        2983.25           1667          41.00       142.11
  138.32        2983.50           1670          65.00       246.73
  138.35        2983.75           1673          50.00       181.34
  138.38        2984.00           1677          47.00       168.27
HS scan finished at 02:18:36
end
************************************************************
  HS Scan of (1) Internal mercury lamp
************************************************************
Integration time is 0.2294 seconds per sample
dh060918Manchester 53.47 2.23 2.804185pr1000
************************************************************
Dead Time -------------------------  3E-08 
Number of Cycles Used -------------  4 
Starting Wavelength (Angstroms) ---  2950 
Final Wavelength (Angstoms) -------  2984 
Wavelength Increment (Angstroms) --  .25 
Filter Wheel #1 Position ---------- (1) Ground quartz diffuser (ND=2.32)
Filter Wheel #2 Position ---------- (1) Neutral Density 0.494



************************************************************
HS scan start time = 19:42:06
Dark Count =  5.4 


Time (GMT)  Wavelength (Ang)  Step Number  Raw Counts  Counts/Second

 1182.46        2950.00           1222          43.00       163.91
 1182.53        2950.25           1226          56.00       220.58
 1182.56        2950.50           1229          53.00       207.50
 1182.59        2950.75           1232          47.00       181.34
 1182.62        2951.00           1236          51.00       198.78
 1182.65        2951.25           1239          53.00       207.50
 1182.68        2951.50           1242          54.00       211.86
 1182.71        2951.75           1246          44.00       168.27
 1182.75        2952.00           1249          54.00       211.86
 1182.78        2952.25           1252          56.00       220.58
 1182.81        2952.50           1256          49.00       190.06
 1182.84        2952.75           1259          46.00       176.98
 1182.87        2953.00           1262          59.00       233.65
 1182.90        2953.25           1266          57.00       224.94
 1182.93        2953.50           1269          57.00       224.94
 1182.96        2953.75           1272          57.00       224.94
 1182.99        2954.00           1276          52.00       203.14
 1183.02        2954.25           1279          47.00       181.34
 1183.05        2954.50           1282          52.00       203.14
 1183.08        2954.75           1286          54.00       211.86
 1183.11        2955.00           1289          51.00       198.78
 1183.15        2955.25           1292          53.00       207.50
 1183.18        2955.50           1296          46.00       176.98
 1183.21        2955.75           1299          44.00       168.27
 1183.24        2956.00           1302          49.00       190.06
 1183.27        2956.25           1306          53.00       207.50
 1183.30        2956.50           1309          58.00       229.30
 1183.33        2956.75           1312          52.00       203.14
 1183.36        2957.00           1316          49.00       190.06
 1183.39        2957.25           1319          48.00       185.70
 1183.42        2957.50           1322          45.00       172.63
 1183.45        2957.75           1326          53.00       207.50
 1183.48        2958.00           1329          49.00       190.06
 1183.51        2958.25           1332          48.00       185.70
 1183.55        2958.50           1336          53.00       207.50
 1183.58        2958.75           1339          58.00       229.30
 1183.61        2959.00           1342          55.00       216.22
 1183.64        2959.25           1346          56.00       220.58
 1183.67        2959.50           1349          67.00       268.53
 1183.70        2959.75           1352          63.00       251.09
 1183.73        2960.00           1356          93.00       381.87
 1183.76        2960.25           1359         133.00       556.24
 1183.79        2960.50           1362         156.00       656.51
 1183.82        2960.75           1366         193.00       817.81
 1183.85        2961.00           1369         221.00       939.87
 1183.88        2961.25           1372         266.00      1136.05
 1183.91        2961.50           1376         354.00      1519.69
 1183.95        2961.75           1379         641.00      2770.94
 1183.98        2962.00           1382        1401.00      6084.81
 1184.01        2962.25           1386        2960.00     12884.67
 1184.04        2962.50           1389        4221.00     18386.77
 1184.07        2962.75           1392        5422.00     23628.78
 1184.10        2963.00           1396        7037.00     30680.36
 1184.13        2963.25           1399        8128.00     35445.70
 1184.16        2963.50           1402        9468.00     41300.49
 1184.19        2963.75           1406       11125.00     48543.18
 1184.22        2964.00           1409       12445.00     54315.11
 1184.25        2964.25           1412       13808.00     60277.17
 1184.28        2964.50           1416       15670.00     68425.41
 1184.32        2964.75           1419       16997.00     74234.90
 1184.35        2965.00           1422       18314.00     80002.60
 1184.38        2965.25           1426       19892.00     86915.96
 1184.41        2965.50           1429       21125.00     92319.84
 1184.44        2965.75           1432       22279.00     97379.09
 1184.47        2966.00           1436       24136.00    105523.60
 1184.50        2966.25           1439       25209.00    110231.40
 1184.53        2966.50           1442       26211.00    114628.90
 1184.56        2966.75           1446       27078.00    118434.90
 1184.60        2967.00           1449       27197.00    118957.30
 1184.63        2967.25           1452       27231.00    119106.60
 1184.66        2967.50           1456       27143.00    118720.30
 1184.69        2967.75           1459       27289.00    119361.30
 1184.72        2968.00           1462       26840.00    117390.00
 1184.75        2968.25           1466       25918.00    113342.90
 1184.78        2968.50           1469       24561.00    107388.10
 1184.81        2968.75           1472       23284.00    101786.40
 1184.84        2969.00           1476       21964.00     95997.94
 1184.87        2969.25           1479       20716.00     90527.12
 1184.90        2969.50           1482       19288.00     84269.44
 1184.93        2969.75           1486       17707.00     77344.04
 1184.97        2970.00           1489       16451.00     71844.31
 1185.00        2970.25           1492       15229.00     66495.21
 1185.03        2970.50           1496       13482.00     58850.98
 1185.06        2970.75           1499       12276.00     53576.02
 1185.09        2971.00           1502       11013.00     48053.53
 1185.12        2971.25           1506        9190.00     40085.67
 1185.15        2971.50           1509        7964.00     34729.28
 1185.18        2971.75           1513        6210.00     27069.05
 1185.21        2972.00           1516        5041.00     21965.65
 1185.24        2972.25           1519        3828.00     16671.81
 1185.28        2972.50           1523        2225.00      9678.49
 1185.31        2972.75           1526        1233.00      5352.21
 1185.34        2973.00           1529         518.00      2234.67
 1185.37        2973.25           1533         329.00      1410.70
 1185.40        2973.50           1536         267.00      1140.41
 1185.43        2973.75           1539         222.00       944.23
 1185.46        2974.00           1543         188.00       796.01
 1185.49        2974.25           1546         154.00       647.79
 1185.53        2974.50           1549         122.00       508.29
 1185.56        2974.75           1553          80.00       325.20
 1185.59        2975.00           1556          59.00       233.65
 1185.62        2975.25           1559          53.00       207.50
 1185.65        2975.50           1563          55.00       216.22
 1185.68        2975.75           1566          54.00       211.86
 1185.71        2976.00           1569          45.00       172.63
 1185.74        2976.25           1573          48.00       185.70
 1185.77        2976.50           1576          52.00       203.14
 1185.80        2976.75           1579          53.00       207.50
 1185.83        2977.00           1583          48.00       185.70
 1185.86        2977.25           1586          53.00       207.50
 1185.89        2977.50           1590          47.00       181.34
 1185.93        2977.75           1593          48.00       185.70
 1185.96        2978.00           1596          47.00       181.34
 1185.99        2978.25           1600          47.00       181.34
 1186.02        2978.50           1603          47.00       181.34
 1186.05        2978.75           1606          51.00       198.78
 1186.08        2979.00           1610          40.00       150.83
 1186.11        2979.25           1613          51.00       198.78
 1186.14        2979.50           1616          50.00       194.42
 1186.17        2979.75           1620          52.00       203.14
 1186.20        2980.00           1623          41.00       155.19
 1186.23        2980.25           1626          44.00       168.27
 1186.26        2980.50           1630          48.00       185.70
 1186.30        2980.75           1633          50.00       194.42
 1186.33        2981.00           1637          44.00       168.27
 1186.36        2981.25           1640          44.00       168.27
 1186.39        2981.50           1643          42.00       159.55
 1186.42        2981.75           1647          44.00       168.27
 1186.45        2982.00           1650          49.00       190.06
 1186.48        2982.25           1653          55.00       216.22
 1186.51        2982.50           1657          46.00       176.98
 1186.54        2982.75           1660          43.00       163.91
 1186.58        2983.00           1663          48.00       185.70
 1186.61        2983.25           1667          49.00       190.06
 1186.64        2983.50           1670          49.00       190.06
 1186.67        2983.75           1673          49.00       190.06
 1186.70        2984.00           1677          47.00       181.34
HS scan finished at 19:46:55
end
