************************************************************
  HS Scan of (1) Internal mercury lamp
************************************************************
Integration time is 0.2294 seconds per sample
dh300817Manchester 53.47 2.23 2.804185pr1000
************************************************************
Dead Time -------------------------  3E-08 
Number of Cycles Used -------------  4 
Starting Wavelength (Angstroms) ---  2950 
Final Wavelength (Angstoms) -------  2984 
Wavelength Increment (Angstroms) --  .25 
Filter Wheel #1 Position ---------- (1) Ground quartz diffuser (ND=2.32)
Filter Wheel #2 Position ---------- (1) Neutral Density 0.494



************************************************************
HS scan start time = 02:13:57
Dark Count =  6 


Time (GMT)  Wavelength (Ang)  Step Number  Raw Counts  Counts/Second

  134.33        2950.00           1222          79.00       318.22
  134.39        2950.25           1226          79.00       318.22
  134.42        2950.50           1229          73.00       292.07
  134.45        2950.75           1232          77.00       309.51
  134.48        2951.00           1236          80.00       322.58
  134.51        2951.25           1239          84.00       340.02
  134.55        2951.50           1242          80.00       322.58
  134.58        2951.75           1246          77.00       309.51
  134.61        2952.00           1249          76.00       305.15
  134.64        2952.25           1252          80.00       322.58
  134.67        2952.50           1256          78.00       313.87
  134.70        2952.75           1259          84.00       340.02
  134.73        2953.00           1262          80.00       322.58
  134.76        2953.25           1266          80.00       322.58
  134.79        2953.50           1269          72.00       287.71
  134.82        2953.75           1272          83.00       335.66
  134.85        2954.00           1276          83.00       335.66
  134.88        2954.25           1279          82.00       331.30
  134.91        2954.50           1282          79.00       318.22
  134.94        2954.75           1286          82.00       331.30
  134.98        2955.00           1289          79.00       318.22
  135.01        2955.25           1292          79.00       318.22
  135.04        2955.50           1296          80.00       322.58
  135.07        2955.75           1299          79.00       318.22
  135.10        2956.00           1302          76.00       305.15
  135.13        2956.25           1306          74.00       296.43
  135.16        2956.50           1309          77.00       309.51
  135.19        2956.75           1312          82.00       331.30
  135.22        2957.00           1316          84.00       340.02
  135.25        2957.25           1319          74.00       296.43
  135.28        2957.50           1322          78.00       313.87
  135.31        2957.75           1326          72.00       287.71
  135.34        2958.00           1329          72.00       287.71
  135.37        2958.25           1332          79.00       318.22
  135.40        2958.50           1336          77.00       309.51
  135.44        2958.75           1339          87.00       353.10
  135.47        2959.00           1342          79.00       318.22
  135.50        2959.25           1346          81.00       326.94
  135.53        2959.50           1349          87.00       353.10
  135.56        2959.75           1352          93.00       379.25
  135.59        2960.00           1356         128.00       531.83
  135.62        2960.25           1359         163.00       684.41
  135.65        2960.50           1362         184.00       775.96
  135.68        2960.75           1366         263.00      1120.35
  135.71        2961.00           1369         293.00      1251.14
  135.74        2961.25           1372         339.00      1451.68
  135.77        2961.50           1376         448.00      1926.88
  135.81        2961.75           1379         606.00      2615.72
  135.84        2962.00           1382        1346.00      5842.35
  135.87        2962.25           1386        3174.00     13815.67
  135.90        2962.50           1389        4848.00     21120.62
  135.93        2962.75           1392        6496.00     28315.24
  135.96        2963.00           1396        8507.00     37098.81
  135.99        2963.25           1399        9989.00     43574.80
  136.02        2963.50           1402       11711.00     51102.70
  136.05        2963.75           1406       13983.00     61040.19
  136.08        2964.00           1409       15462.00     67512.36
  136.11        2964.25           1412       17134.00     74832.15
  136.15        2964.50           1416       19321.00     84411.40
  136.18        2964.75           1419       21014.00     91830.68
  136.21        2965.00           1422       22744.00     99415.51
  136.24        2965.25           1426       25042.00    109496.00
  136.27        2965.50           1429       26654.00    116570.90
  136.30        2965.75           1432       28216.00    123429.20
  136.33        2966.00           1436       30511.00    133511.00
  136.36        2966.25           1439       32034.00    140204.90
  136.39        2966.50           1442       33457.00    146461.60
  136.42        2966.75           1446       34855.00    152610.80
  136.46        2967.00           1449       35085.00    153622.70
  136.49        2967.25           1452       35111.00    153737.10
  136.52        2967.50           1456       35145.00    153886.60
  136.55        2967.75           1459       35079.00    153596.30
  136.58        2968.00           1462       34944.00    153002.40
  136.61        2968.25           1466       33591.00    147051.00
  136.64        2968.50           1469       32138.00    140662.10
  136.67        2968.75           1472       30781.00    134697.50
  136.70        2969.00           1476       28697.00    125541.70
  136.73        2969.25           1479       27028.00    118212.70
  136.76        2969.50           1482       25372.00    110944.10
  136.80        2969.75           1486       23508.00    102766.20
  136.83        2970.00           1489       21854.00     95513.05
  136.86        2970.25           1492       20353.00     88933.56
  136.89        2970.50           1496       18102.00     79071.40
  136.92        2970.75           1499       16314.00     71241.91
  136.95        2971.00           1502       14826.00     64728.89
  136.98        2971.25           1506       12585.00     54924.78
  137.01        2971.50           1509       10936.00     47714.29
  137.04        2971.75           1513        8866.00     38667.33
  137.08        2972.00           1516        7102.00     30961.61
  137.11        2972.25           1519        5634.00     24551.64
  137.14        2972.50           1523        3423.00     14902.04
  137.17        2972.75           1526        1984.00      8624.73
  137.20        2973.00           1529         893.00      3867.06
  137.23        2973.25           1533         445.00      1913.80
  137.26        2973.50           1536         348.00      1490.91
  137.29        2973.75           1539         302.00      1290.37
  137.32        2974.00           1543         242.00      1028.80
  137.35        2974.25           1546         194.00       819.55
  137.38        2974.50           1549         144.00       601.58
  137.41        2974.75           1553         113.00       466.44
  137.44        2975.00           1556          86.00       348.74
  137.47        2975.25           1559          79.00       318.22
  137.51        2975.50           1563          80.00       322.58
  137.54        2975.75           1566          83.00       335.66
  137.57        2976.00           1569          71.00       283.35
  137.60        2976.25           1573          72.00       287.71
  137.63        2976.50           1576          69.00       274.63
  137.66        2976.75           1579          80.00       322.58
  137.69        2977.00           1583          70.00       278.99
  137.72        2977.25           1586          70.00       278.99
  137.75        2977.50           1590          71.00       283.35
  137.78        2977.75           1593          80.00       322.58
  137.81        2978.00           1596          66.00       261.55
  137.84        2978.25           1600          73.00       292.07
  137.87        2978.50           1603          80.00       322.58
  137.91        2978.75           1606          72.00       287.71
  137.94        2979.00           1610          67.00       265.91
  137.97        2979.25           1613          82.00       331.30
  138.00        2979.50           1616          73.00       292.07
  138.03        2979.75           1620          68.00       270.27
  138.06        2980.00           1623          65.00       257.19
  138.09        2980.25           1626          72.00       287.71
  138.12        2980.50           1630          73.00       292.07
  138.15        2980.75           1633          64.00       252.84
  138.18        2981.00           1637          70.00       278.99
  138.21        2981.25           1640          66.00       261.55
  138.24        2981.50           1643          75.00       300.79
  138.27        2981.75           1647          66.00       261.55
  138.30        2982.00           1650          70.00       278.99
  138.34        2982.25           1653          66.00       261.55
  138.37        2982.50           1657          79.00       318.22
  138.40        2982.75           1660          69.00       274.63
  138.43        2983.00           1663          68.00       270.27
  138.46        2983.25           1667          77.00       309.51
  138.49        2983.50           1670          67.00       265.91
  138.52        2983.75           1673          69.00       274.63
  138.55        2984.00           1677          68.00       270.27
HS scan finished at 02:18:46
end
