************************************************************
  HS Scan of (1) Internal mercury lamp
************************************************************
Integration time is 0.2294 seconds per sample
dh020918Manchester 53.47 2.23 3.179721pr1000
************************************************************
Dead Time -------------------------  3E-08 
Number of Cycles Used -------------  4 
Starting Wavelength (Angstroms) ---  2950 
Final Wavelength (Angstoms) -------  2984 
Wavelength Increment (Angstroms) --  .25 
Filter Wheel #1 Position ---------- (1) Ground quartz diffuser (ND=2.32)
Filter Wheel #2 Position ---------- (1) Neutral Density 0.494



************************************************************
HS scan start time = 19:42:07
Dark Count =  4.2 


Time (GMT)  Wavelength (Ang)  Step Number  Raw Counts  Counts/Second

 1182.48        2950.00           1222          47.00       186.57
 1182.55        2950.25           1226          60.00       243.25
 1182.58        2950.50           1229          49.00       195.29
 1182.61        2950.75           1232          50.00       199.65
 1182.64        2951.00           1236          49.00       195.29
 1182.67        2951.25           1239          47.00       186.57
 1182.70        2951.50           1242          51.00       204.01
 1182.73        2951.75           1246          50.00       199.65
 1182.76        2952.00           1249          48.00       190.93
 1182.80        2952.25           1252          52.00       208.37
 1182.83        2952.50           1256          57.00       230.17
 1182.86        2952.75           1259          49.00       195.29
 1182.89        2953.00           1262          51.00       204.01
 1182.92        2953.25           1266          45.00       177.86
 1182.95        2953.50           1269          46.00       182.22
 1182.98        2953.75           1272          51.00       204.01
 1183.01        2954.00           1276          47.00       186.57
 1183.04        2954.25           1279          44.00       173.50
 1183.07        2954.50           1282          46.00       182.22
 1183.10        2954.75           1286          43.00       169.14
 1183.13        2955.00           1289          44.00       173.50
 1183.17        2955.25           1292          48.00       190.93
 1183.20        2955.50           1296          50.00       199.65
 1183.23        2955.75           1299          54.00       217.09
 1183.26        2956.00           1302          50.00       199.65
 1183.29        2956.25           1306          49.00       195.29
 1183.32        2956.50           1309          52.00       208.37
 1183.35        2956.75           1312          51.00       204.01
 1183.38        2957.00           1316          40.00       156.06
 1183.41        2957.25           1319          50.00       199.65
 1183.44        2957.50           1322          43.00       169.14
 1183.47        2957.75           1326          41.00       160.42
 1183.50        2958.00           1329          52.00       208.37
 1183.53        2958.25           1332          46.00       182.22
 1183.56        2958.50           1336          52.00       208.37
 1183.59        2958.75           1339          47.00       186.57
 1183.63        2959.00           1342          51.00       204.01
 1183.66        2959.25           1346          65.00       265.04
 1183.69        2959.50           1349          63.00       256.32
 1183.72        2959.75           1352          71.00       291.20
 1183.75        2960.00           1356         104.00       435.05
 1183.78        2960.25           1359         128.00       539.68
 1183.81        2960.50           1362         160.00       679.18
 1183.84        2960.75           1366         220.00       940.74
 1183.87        2961.00           1369         254.00      1088.96
 1183.91        2961.25           1372         314.00      1350.53
 1183.94        2961.50           1376         371.00      1599.03
 1183.97        2961.75           1379         607.00      2627.93
 1184.00        2962.00           1382        1465.00      6369.13
 1184.03        2962.25           1386        3240.00     14111.47
 1184.06        2962.50           1389        4711.00     20530.51
 1184.09        2962.75           1392        5999.00     26153.03
 1184.12        2963.00           1396        7843.00     34205.97
 1184.15        2963.25           1399        9250.00     40353.10
 1184.18        2963.50           1402       10675.00     46581.18
 1184.22        2963.75           1406       12602.00     55007.00
 1184.25        2964.00           1409       14121.00     61651.85
 1184.28        2964.25           1412       15751.00     68785.22
 1184.31        2964.50           1416       17858.00     78010.61
 1184.34        2964.75           1419       19271.00     84200.21
 1184.37        2965.00           1422       20740.00     90637.59
 1184.40        2965.25           1426       22522.00     98449.89
 1184.43        2965.50           1429       24144.00    105564.00
 1184.46        2965.75           1432       25534.00    111662.90
 1184.49        2966.00           1436       27222.00    119072.40
 1184.53        2966.25           1439       28705.00    125584.70
 1184.56        2966.50           1442       30095.00    131691.00
 1184.59        2966.75           1446       31225.00    136656.80
 1184.62        2967.00           1449       31661.00    138573.20
 1184.65        2967.25           1452       31780.00    139096.20
 1184.68        2967.50           1456       31669.00    138608.30
 1184.71        2967.75           1459       31739.00    138916.00
 1184.74        2968.00           1462       31428.00    137549.00
 1184.77        2968.25           1466       30373.00    132912.50
 1184.81        2968.50           1469       29200.00    127759.00
 1184.84        2968.75           1472       27737.00    121333.60
 1184.87        2969.00           1476       25877.00    113168.20
 1184.90        2969.25           1479       24393.00    106656.30
 1184.93        2969.50           1482       22896.00    100090.00
 1184.96        2969.75           1486       20902.00     91347.64
 1184.99        2970.00           1489       19618.00     85720.60
 1185.02        2970.25           1492       18145.00     79267.62
 1185.05        2970.50           1496       16266.00     71039.65
 1185.09        2970.75           1499       14855.00     64863.67
 1185.12        2971.00           1502       13328.00     58182.55
 1185.15        2971.25           1506       11308.00     49348.51
 1185.18        2971.50           1509        9779.00     42664.87
 1185.21        2971.75           1513        7796.00     34000.67
 1185.24        2972.00           1516        6391.00     27864.61
 1185.27        2972.25           1519        4937.00     21516.94
 1185.30        2972.50           1523        3148.00     13710.09
 1185.33        2972.75           1526        1802.00      7838.81
 1185.36        2973.00           1529         714.00      3094.45
 1185.39        2973.25           1533         348.00      1498.76
 1185.43        2973.50           1536         290.00      1245.91
 1185.46        2973.75           1539         260.00      1115.12
 1185.49        2974.00           1543         208.00       888.43
 1185.52        2974.25           1546         156.00       661.74
 1185.55        2974.50           1549         110.00       461.21
 1185.58        2974.75           1553          69.00       282.48
 1185.61        2975.00           1556          49.00       195.29
 1185.64        2975.25           1559          56.00       225.81
 1185.67        2975.50           1563          44.00       173.50
 1185.70        2975.75           1566          47.00       186.57
 1185.73        2976.00           1569          47.00       186.57
 1185.76        2976.25           1573          51.00       204.01
 1185.79        2976.50           1576          50.00       199.65
 1185.83        2976.75           1579          57.00       230.17
 1185.86        2977.00           1583          48.00       190.93
 1185.89        2977.25           1586          49.00       195.29
 1185.92        2977.50           1590          49.00       195.29
 1185.95        2977.75           1593          42.00       164.78
 1185.98        2978.00           1596          44.00       173.50
 1186.01        2978.25           1600          43.00       169.14
 1186.04        2978.50           1603          48.00       190.93
 1186.07        2978.75           1606          48.00       190.93
 1186.10        2979.00           1610          48.00       190.93
 1186.14        2979.25           1613          45.00       177.86
 1186.17        2979.50           1616          44.00       173.50
 1186.20        2979.75           1620          41.00       160.42
 1186.23        2980.00           1623          55.00       221.45
 1186.26        2980.25           1626          48.00       190.93
 1186.29        2980.50           1630          53.00       212.73
 1186.32        2980.75           1633          50.00       199.65
 1186.35        2981.00           1637          46.00       182.22
 1186.38        2981.25           1640          43.00       169.14
 1186.41        2981.50           1643          47.00       186.57
 1186.45        2981.75           1647          45.00       177.86
 1186.48        2982.00           1650          54.00       217.09
 1186.51        2982.25           1653          45.00       177.86
 1186.54        2982.50           1657          54.00       217.09
 1186.57        2982.75           1660          47.00       186.57
 1186.60        2983.00           1663          48.00       190.93
 1186.63        2983.25           1667          37.00       142.98
 1186.66        2983.50           1670          43.00       169.14
 1186.69        2983.75           1673          50.00       199.65
 1186.72        2984.00           1677          40.00       156.06
HS scan finished at 19:46:57
end
