************************************************************
  HS Scan of (1) Internal mercury lamp
************************************************************
Integration time is 0.2294 seconds per sample
dh050917Manchester 53.47 2.23 2.965129pr1000
************************************************************
Dead Time -------------------------  3E-08 
Number of Cycles Used -------------  4 
Starting Wavelength (Angstroms) ---  2950 
Final Wavelength (Angstoms) -------  2984 
Wavelength Increment (Angstroms) --  .25 
Filter Wheel #1 Position ---------- (1) Ground quartz diffuser (ND=2.32)
Filter Wheel #2 Position ---------- (1) Neutral Density 0.494



************************************************************
HS scan start time = 01:37:37
Dark Count =  7.1 


Time (GMT)  Wavelength (Ang)  Step Number  Raw Counts  Counts/Second

   97.99        2950.00           1222          84.00       335.23
   98.06        2950.25           1226          71.00       278.56
   98.09        2950.50           1229          82.00       326.51
   98.12        2950.75           1232          80.00       317.79
   98.15        2951.00           1236          81.00       322.15
   98.18        2951.25           1239          72.00       282.91
   98.21        2951.50           1242          79.00       313.43
   98.25        2951.75           1246          80.00       317.79
   98.28        2952.00           1249          83.00       330.87
   98.31        2952.25           1252          71.00       278.56
   98.34        2952.50           1256          78.00       309.07
   98.37        2952.75           1259          83.00       330.87
   98.40        2953.00           1262          79.00       313.43
   98.43        2953.25           1266          78.00       309.07
   98.46        2953.50           1269          75.00       295.99
   98.49        2953.75           1272          79.00       313.43
   98.52        2954.00           1276          76.00       300.35
   98.56        2954.25           1279          75.00       295.99
   98.59        2954.50           1282          76.00       300.35
   98.62        2954.75           1286          75.00       295.99
   98.65        2955.00           1289          76.00       300.35
   98.68        2955.25           1292          76.00       300.35
   98.71        2955.50           1296          83.00       330.87
   98.74        2955.75           1299          76.00       300.35
   98.77        2956.00           1302          80.00       317.79
   98.80        2956.25           1306          84.00       335.23
   98.83        2956.50           1309          74.00       291.63
   98.86        2956.75           1312          82.00       326.51
   98.89        2957.00           1316          72.00       282.91
   98.92        2957.25           1319          78.00       309.07
   98.95        2957.50           1322          81.00       322.15
   98.99        2957.75           1326          75.00       295.99
   99.02        2958.00           1329          76.00       300.35
   99.05        2958.25           1332          72.00       282.91
   99.08        2958.50           1336          69.00       269.84
   99.11        2958.75           1339          75.00       295.99
   99.14        2959.00           1342          80.00       317.79
   99.17        2959.25           1346          82.00       326.51
   99.20        2959.50           1349          75.00       295.99
   99.23        2959.75           1352         101.00       409.33
   99.26        2960.00           1356         131.00       540.11
   99.29        2960.25           1359         170.00       710.13
   99.32        2960.50           1362         212.00       893.22
   99.35        2960.75           1366         259.00      1098.12
   99.38        2961.00           1369         283.00      1202.75
   99.42        2961.25           1372         326.00      1390.21
   99.45        2961.50           1376         431.00      1847.97
   99.48        2961.75           1379         580.00      2497.57
   99.51        2962.00           1382        1284.00      5567.19
   99.54        2962.25           1386        3290.00     14316.96
   99.57        2962.50           1389        4853.00     21137.64
   99.60        2962.75           1392        6670.00     29070.24
   99.63        2963.00           1396        8719.00     38020.24
   99.66        2963.25           1399       10448.00     45576.23
   99.70        2963.50           1402       12298.00     53664.80
   99.73        2963.75           1406       14858.00     64864.11
   99.76        2964.00           1409       16383.00     71539.16
   99.79        2964.25           1412       18474.00     80696.00
   99.82        2964.50           1416       20704.00     90467.09
   99.85        2964.75           1419       22313.00     97520.72
   99.88        2965.00           1422       24261.00    106064.50
   99.91        2965.25           1426       26458.00    115705.70
   99.94        2965.50           1429       28284.00    123723.00
   99.97        2965.75           1432       30208.00    132174.80
  100.01        2966.00           1436       32289.00    141321.10
  100.04        2966.25           1439       33895.00    148383.10
  100.07        2966.50           1442       35482.00    155364.60
  100.10        2966.75           1446       37328.00    163489.10
  100.13        2967.00           1449       37553.00    164479.60
  100.16        2967.25           1452       37627.00    164805.40
  100.19        2967.50           1456       37499.00    164241.90
  100.22        2967.75           1459       37608.00    164721.80
  100.25        2968.00           1462       37486.00    164184.60
  100.29        2968.25           1466       36398.00    159395.50
  100.32        2968.50           1469       35039.00    153415.40
  100.35        2968.75           1472       33142.00    145071.60
  100.38        2969.00           1476       30993.00    135624.40
  100.41        2969.25           1479       29229.00    127873.70
  100.44        2969.50           1482       27550.00    120499.80
  100.47        2969.75           1486       25245.00    110381.90
  100.50        2970.00           1489       23717.00    103678.10
  100.53        2970.25           1492       22021.00     96240.42
  100.57        2970.50           1496       19778.00     86408.99
  100.60        2970.75           1499       18027.00     78738.09
  100.63        2971.00           1502       16235.00     70891.24
  100.66        2971.25           1506       13616.00     59429.75
  100.69        2971.50           1509       11877.00     51823.76
  100.72        2971.75           1513        9662.00     42140.87
  100.75        2972.00           1516        7983.00     34804.85
  100.78        2972.25           1519        6273.00     27336.71
  100.81        2972.50           1523        4173.00     18169.89
  100.84        2972.75           1526        2599.00     11302.44
  100.88        2973.00           1529        1281.00      5554.11
  100.91        2973.25           1533         511.00      2196.74
  100.94        2973.50           1536         369.00      1577.67
  100.97        2973.75           1539         306.00      1303.02
  101.00        2974.00           1543         267.00      1132.99
  101.03        2974.25           1546         208.00       875.79
  101.06        2974.50           1549         148.00       614.22
  101.09        2974.75           1553         115.00       470.36
  101.12        2975.00           1556          86.00       343.94
  101.15        2975.25           1559          82.00       326.51
  101.18        2975.50           1563          81.00       322.15
  101.21        2975.75           1566          73.00       287.27
  101.24        2976.00           1569          68.00       265.48
  101.27        2976.25           1573          79.00       313.43
  101.30        2976.50           1576          83.00       330.87
  101.33        2976.75           1579          77.00       304.71
  101.36        2977.00           1583          74.00       291.63
  101.40        2977.25           1586          74.00       291.63
  101.43        2977.50           1590          80.00       317.79
  101.46        2977.75           1593          76.00       300.35
  101.49        2978.00           1596          67.00       261.12
  101.52        2978.25           1600          78.00       309.07
  101.55        2978.50           1603          86.00       343.94
  101.58        2978.75           1606          64.00       248.04
  101.61        2979.00           1610          81.00       322.15
  101.64        2979.25           1613          71.00       278.56
  101.67        2979.50           1616          67.00       261.12
  101.70        2979.75           1620          68.00       265.48
  101.73        2980.00           1623          65.00       252.40
  101.76        2980.25           1626          64.00       248.04
  101.79        2980.50           1630          74.00       291.63
  101.82        2980.75           1633          72.00       282.91
  101.85        2981.00           1637          76.00       300.35
  101.88        2981.25           1640          62.00       239.32
  101.91        2981.50           1643          73.00       287.27
  101.94        2981.75           1647          76.00       300.35
  101.98        2982.00           1650          65.00       252.40
  102.01        2982.25           1653          77.00       304.71
  102.04        2982.50           1657          65.00       252.40
  102.07        2982.75           1660          69.00       269.84
  102.10        2983.00           1663          73.00       287.27
  102.13        2983.25           1667          67.00       261.12
  102.16        2983.50           1670          66.00       256.76
  102.19        2983.75           1673          73.00       287.27
  102.22        2984.00           1677          70.00       274.20
HS scan finished at 01:42:26
end
************************************************************
  HS Scan of (1) Internal mercury lamp
************************************************************
Integration time is 0.2294 seconds per sample
dh050917Manchester 53.47 2.23 2.804185pr1000
************************************************************
Dead Time -------------------------  3E-08 
Number of Cycles Used -------------  4 
Starting Wavelength (Angstroms) ---  2950 
Final Wavelength (Angstoms) -------  2984 
Wavelength Increment (Angstroms) --  .25 
Filter Wheel #1 Position ---------- (1) Ground quartz diffuser (ND=2.32)
Filter Wheel #2 Position ---------- (1) Neutral Density 0.494



************************************************************
HS scan start time = 19:41:59
Dark Count =  6.4 


Time (GMT)  Wavelength (Ang)  Step Number  Raw Counts  Counts/Second

 1182.35        2950.00           1222          87.00       351.36
 1182.42        2950.25           1226          76.00       303.40
 1182.45        2950.50           1229          78.00       312.12
 1182.48        2950.75           1232          85.00       342.64
 1182.51        2951.00           1236          78.00       312.12
 1182.54        2951.25           1239          90.00       364.43
 1182.57        2951.50           1242          72.00       285.97
 1182.60        2951.75           1246          86.00       347.00
 1182.63        2952.00           1249          78.00       312.12
 1182.66        2952.25           1252          87.00       351.36
 1182.69        2952.50           1256          84.00       338.28
 1182.73        2952.75           1259          78.00       312.12
 1182.76        2953.00           1262          79.00       316.48
 1182.79        2953.25           1266          80.00       320.84
 1182.82        2953.50           1269          88.00       355.71
 1182.85        2953.75           1272          80.00       320.84
 1182.88        2954.00           1276          83.00       333.92
 1182.91        2954.25           1279          70.00       277.25
 1182.94        2954.50           1282          76.00       303.40
 1182.97        2954.75           1286          77.00       307.76
 1183.00        2955.00           1289          78.00       312.12
 1183.03        2955.25           1292          89.00       360.07
 1183.07        2955.50           1296          76.00       303.40
 1183.10        2955.75           1299          71.00       281.61
 1183.13        2956.00           1302          78.00       312.12
 1183.16        2956.25           1306          80.00       320.84
 1183.19        2956.50           1309          77.00       307.76
 1183.22        2956.75           1312          83.00       333.92
 1183.25        2957.00           1316          78.00       312.12
 1183.28        2957.25           1319          75.00       299.04
 1183.31        2957.50           1322          80.00       320.84
 1183.34        2957.75           1326          80.00       320.84
 1183.37        2958.00           1329          82.00       329.56
 1183.40        2958.25           1332          71.00       281.61
 1183.43        2958.50           1336          80.00       320.84
 1183.47        2958.75           1339          71.00       281.61
 1183.50        2959.00           1342          82.00       329.56
 1183.53        2959.25           1346          77.00       307.76
 1183.56        2959.50           1349          92.00       373.15
 1183.59        2959.75           1352         101.00       412.39
 1183.62        2960.00           1356         137.00       569.32
 1183.65        2960.25           1359         175.00       734.98
 1183.68        2960.50           1362         203.00       857.04
 1183.71        2960.75           1366         276.00      1175.28
 1183.74        2961.00           1369         304.00      1297.35
 1183.77        2961.25           1372         341.00      1458.65
 1183.81        2961.50           1376         447.00      1920.77
 1183.84        2961.75           1379         601.00      2592.18
 1183.87        2962.00           1382        1352.00      5866.77
 1183.90        2962.25           1386        3097.00     13477.99
 1183.93        2962.50           1389        4641.00     20215.40
 1183.96        2962.75           1392        6056.00     26392.29
 1183.99        2963.00           1396        8069.00     35183.59
 1184.02        2963.25           1399        9628.00     41995.33
 1184.05        2963.50           1402       11270.00     49172.75
 1184.08        2963.75           1406       13648.00     59572.81
 1184.12        2964.00           1409       15341.00     66981.01
 1184.15        2964.25           1412       17113.00     74738.45
 1184.18        2964.50           1416       19228.00     84002.18
 1184.21        2964.75           1419       20743.00     90641.09
 1184.24        2965.00           1422       22611.00     98830.52
 1184.27        2965.25           1426       24661.00    107822.50
 1184.30        2965.50           1429       26426.00    115568.30
 1184.33        2965.75           1432       27852.00    121828.90
 1184.36        2966.00           1436       29994.00    131237.60
 1184.39        2966.25           1439       31377.00    137315.20
 1184.42        2966.50           1442       33027.00    144569.00
 1184.46        2966.75           1446       34261.00    149996.10
 1184.49        2967.00           1449       34876.00    152701.40
 1184.52        2967.25           1452       34787.00    152309.90
 1184.55        2967.50           1456       34661.00    151755.60
 1184.58        2967.75           1459       34808.00    152402.30
 1184.61        2968.00           1462       34676.00    151821.60
 1184.64        2968.25           1466       33533.00    146794.10
 1184.67        2968.50           1469       32212.00    140985.60
 1184.71        2968.75           1472       30770.00    134647.40
 1184.74        2969.00           1476       28709.00    125592.60
 1184.77        2969.25           1479       26999.00    118083.70
 1184.80        2969.50           1482       25383.00    110990.60
 1184.83        2969.75           1486       23263.00    101689.90
 1184.86        2970.00           1489       21650.00     94616.92
 1184.89        2970.25           1492       20133.00     87967.68
 1184.92        2970.50           1496       18136.00     79218.56
 1184.95        2970.75           1499       16443.00     71804.91
 1184.99        2971.00           1502       14922.00     65147.25
 1185.02        2971.25           1506       12704.00     55443.49
 1185.05        2971.50           1509       11051.00     48215.29
 1185.08        2971.75           1513        9078.00     39591.90
 1185.11        2972.00           1516        7482.00     32619.53
 1185.14        2972.25           1519        6005.00     26169.62
 1185.17        2972.50           1523        3773.00     16427.45
 1185.20        2972.75           1526        2208.00      9599.97
 1185.23        2973.00           1529         980.00      4244.66
 1185.26        2973.25           1533         446.00      1916.41
 1185.29        2973.50           1536         353.00      1510.97
 1185.33        2973.75           1539         304.00      1297.35
 1185.36        2974.00           1543         263.00      1118.61
 1185.39        2974.25           1546         211.00       891.92
 1185.42        2974.50           1549         159.00       665.23
 1185.45        2974.75           1553         114.00       469.06
 1185.48        2975.00           1556          85.00       342.64
 1185.51        2975.25           1559          82.00       329.56
 1185.54        2975.50           1563          82.00       329.56
 1185.57        2975.75           1566          82.00       329.56
 1185.60        2976.00           1569          68.00       268.53
 1185.63        2976.25           1573          71.00       281.61
 1185.66        2976.50           1576          69.00       272.89
 1185.70        2976.75           1579          74.00       294.68
 1185.73        2977.00           1583          68.00       268.53
 1185.76        2977.25           1586          73.00       290.33
 1185.79        2977.50           1590          78.00       312.12
 1185.82        2977.75           1593          83.00       333.92
 1185.85        2978.00           1596          78.00       312.12
 1185.88        2978.25           1600          74.00       294.68
 1185.91        2978.50           1603          72.00       285.97
 1185.94        2978.75           1606          79.00       316.48
 1185.97        2979.00           1610          63.00       246.73
 1186.00        2979.25           1613          74.00       294.68
 1186.03        2979.50           1616          70.00       277.25
 1186.07        2979.75           1620          62.00       242.37
 1186.10        2980.00           1623          67.00       264.17
 1186.13        2980.25           1626          70.00       277.25
 1186.16        2980.50           1630          72.00       285.97
 1186.19        2980.75           1633          68.00       268.53
 1186.22        2981.00           1637          69.00       272.89
 1186.25        2981.25           1640          67.00       264.17
 1186.28        2981.50           1643          71.00       281.61
 1186.31        2981.75           1647          71.00       281.61
 1186.34        2982.00           1650          71.00       281.61
 1186.37        2982.25           1653          74.00       294.68
 1186.41        2982.50           1657          80.00       320.84
 1186.44        2982.75           1660          70.00       277.25
 1186.47        2983.00           1663          62.00       242.37
 1186.50        2983.25           1667          66.00       259.81
 1186.53        2983.50           1670          70.00       277.25
 1186.56        2983.75           1673          68.00       268.53
 1186.59        2984.00           1677          70.00       277.25
HS scan finished at 19:46:48
end
