************************************************************
  HS Scan of (1) Internal mercury lamp
************************************************************
Integration time is 0.2294 seconds per sample
dh060917Manchester 53.47 2.23 2.804185pr1000
************************************************************
Dead Time -------------------------  3E-08 
Number of Cycles Used -------------  4 
Starting Wavelength (Angstroms) ---  2950 
Final Wavelength (Angstoms) -------  2984 
Wavelength Increment (Angstroms) --  .25 
Filter Wheel #1 Position ---------- (1) Ground quartz diffuser (ND=2.32)
Filter Wheel #2 Position ---------- (1) Neutral Density 0.494



************************************************************
HS scan start time = 02:11:45
Dark Count =  7 


Time (GMT)  Wavelength (Ang)  Step Number  Raw Counts  Counts/Second

  132.12        2950.00           1222          80.00       318.22
  132.18        2950.25           1226          77.00       305.15
  132.21        2950.50           1229          78.00       309.51
  132.24        2950.75           1232          72.00       283.35
  132.27        2951.00           1236          85.00       340.02
  132.30        2951.25           1239          81.00       322.58
  132.34        2951.50           1242          74.00       292.07
  132.37        2951.75           1246          80.00       318.22
  132.40        2952.00           1249          83.00       331.30
  132.43        2952.25           1252          73.00       287.71
  132.46        2952.50           1256          78.00       309.51
  132.49        2952.75           1259          79.00       313.87
  132.52        2953.00           1262          76.00       300.79
  132.55        2953.25           1266          92.00       370.54
  132.58        2953.50           1269          79.00       313.87
  132.61        2953.75           1272          84.00       335.66
  132.64        2954.00           1276          79.00       313.87
  132.67        2954.25           1279          76.00       300.79
  132.70        2954.50           1282          83.00       331.30
  132.74        2954.75           1286          83.00       331.30
  132.77        2955.00           1289          82.00       326.94
  132.80        2955.25           1292          73.00       287.71
  132.83        2955.50           1296          80.00       318.22
  132.86        2955.75           1299          72.00       283.35
  132.89        2956.00           1302          76.00       300.79
  132.92        2956.25           1306          88.00       353.10
  132.95        2956.50           1309          83.00       331.30
  132.98        2956.75           1312          91.00       366.18
  133.01        2957.00           1316          80.00       318.22
  133.04        2957.25           1319          82.00       326.94
  133.08        2957.50           1322          76.00       300.79
  133.11        2957.75           1326          77.00       305.15
  133.14        2958.00           1329          76.00       300.79
  133.17        2958.25           1332          76.00       300.79
  133.20        2958.50           1336          85.00       340.02
  133.23        2958.75           1339          76.00       300.79
  133.26        2959.00           1342          88.00       353.10
  133.29        2959.25           1346          79.00       313.87
  133.32        2959.50           1349          97.00       392.33
  133.35        2959.75           1352         103.00       418.49
  133.38        2960.00           1356         143.00       592.86
  133.41        2960.25           1359         183.00       767.24
  133.44        2960.50           1362         219.00       924.18
  133.47        2960.75           1366         284.00      1207.54
  133.50        2961.00           1369         314.00      1338.33
  133.54        2961.25           1372         353.00      1508.35
  133.57        2961.50           1376         455.00      1953.04
  133.60        2961.75           1379         680.00      2934.00
  133.63        2962.00           1382        1607.00      6976.18
  133.66        2962.25           1386        3621.00     15761.59
  133.69        2962.50           1389        5156.00     22460.64
  133.72        2962.75           1392        6767.00     29494.26
  133.75        2963.00           1396        8790.00     38330.89
  133.78        2963.25           1399       10352.00     45157.04
  133.81        2963.50           1402       12048.00     52571.96
  133.84        2963.75           1406       14227.00     62103.39
  133.88        2964.00           1409       15810.00     69031.22
  133.91        2964.25           1412       17448.00     76202.78
  133.94        2964.50           1416       19654.00     85866.07
  133.97        2964.75           1419       21382.00     93439.42
  134.00        2965.00           1422       23134.00    101121.50
  134.03        2965.25           1426       25252.00    110413.10
  134.06        2965.50           1429       27035.00    118239.10
  134.09        2965.75           1432       28425.00    124342.70
  134.12        2966.00           1436       30711.00    134385.50
  134.15        2966.25           1439       32138.00    140657.70
  134.19        2966.50           1442       33456.00    146452.90
  134.22        2966.75           1446       34738.00    152091.70
  134.25        2967.00           1449       34923.00    152905.60
  134.28        2967.25           1452       35081.00    153600.70
  134.31        2967.50           1456       35059.00    153503.90
  134.34        2967.75           1459       34922.00    152901.20
  134.37        2968.00           1462       34680.00    151836.50
  134.40        2968.25           1466       33015.00    144513.60
  134.43        2968.50           1469       31553.00    138086.10
  134.47        2968.75           1472       29834.00    130532.00
  134.50        2969.00           1476       27784.00    121527.70
  134.53        2969.25           1479       26328.00    115135.50
  134.56        2969.50           1482       24595.00    107530.30
  134.59        2969.75           1486       22603.00     98792.81
  134.62        2970.00           1489       21054.00     92001.62
  134.65        2970.25           1492       19539.00     85362.19
  134.68        2970.50           1496       17301.00     75559.06
  134.71        2970.75           1499       15431.00     67372.31
  134.74        2971.00           1502       13713.00     59854.55
  134.78        2971.25           1506       11605.00     50634.84
  134.81        2971.50           1509       10060.00     43880.75
  134.84        2971.75           1513        7867.00     34298.57
  134.87        2972.00           1516        6374.00     27778.16
  134.90        2972.25           1519        4739.00     20640.50
  134.93        2972.50           1523        2807.00     12210.23
  134.96        2972.75           1526        1500.00      6509.55
  134.99        2973.00           1529         653.00      2816.28
  135.02        2973.25           1533         395.00      1691.45
  135.05        2973.50           1536         334.00      1425.52
  135.08        2973.75           1539         266.00      1129.07
  135.11        2974.00           1543         243.00      1028.80
  135.14        2974.25           1546         181.00       758.52
  135.18        2974.50           1549         134.00       553.63
  135.21        2974.75           1553         100.00       405.41
  135.24        2975.00           1556          94.00       379.25
  135.27        2975.25           1559          72.00       283.35
  135.30        2975.50           1563          74.00       292.07
  135.33        2975.75           1566          78.00       309.51
  135.36        2976.00           1569          62.00       239.76
  135.39        2976.25           1573          72.00       283.35
  135.42        2976.50           1576          86.00       344.38
  135.45        2976.75           1579          67.00       261.55
  135.48        2977.00           1583          74.00       292.07
  135.51        2977.25           1586          71.00       278.99
  135.54        2977.50           1590          75.00       296.43
  135.58        2977.75           1593          81.00       322.58
  135.61        2978.00           1596          76.00       300.79
  135.64        2978.25           1600          65.00       252.84
  135.67        2978.50           1603          68.00       265.91
  135.70        2978.75           1606          61.00       235.40
  135.73        2979.00           1610          61.00       235.40
  135.76        2979.25           1613          76.00       300.79
  135.79        2979.50           1616          75.00       296.43
  135.82        2979.75           1620          76.00       300.79
  135.85        2980.00           1623          68.00       265.91
  135.88        2980.25           1626          69.00       270.27
  135.91        2980.50           1630          65.00       252.84
  135.94        2980.75           1633          73.00       287.71
  135.97        2981.00           1637          62.00       239.76
  136.01        2981.25           1640          74.00       292.07
  136.04        2981.50           1643          65.00       252.84
  136.07        2981.75           1647          69.00       270.27
  136.10        2982.00           1650          63.00       244.12
  136.13        2982.25           1653          61.00       235.40
  136.16        2982.50           1657          78.00       309.51
  136.19        2982.75           1660          72.00       283.35
  136.22        2983.00           1663          72.00       283.35
  136.25        2983.25           1667          70.00       274.63
  136.28        2983.50           1670          65.00       252.84
  136.31        2983.75           1673          67.00       261.55
  136.34        2984.00           1677          70.00       274.63
HS scan finished at 02:16:34
end
************************************************************
  HS Scan of (1) Internal mercury lamp
************************************************************
Integration time is 0.2294 seconds per sample
dh060917Manchester 53.47 2.23 2.857833pr1000
************************************************************
Dead Time -------------------------  3E-08 
Number of Cycles Used -------------  4 
Starting Wavelength (Angstroms) ---  2950 
Final Wavelength (Angstoms) -------  2984 
Wavelength Increment (Angstroms) --  .25 
Filter Wheel #1 Position ---------- (1) Ground quartz diffuser (ND=2.32)
Filter Wheel #2 Position ---------- (1) Neutral Density 0.494



************************************************************
HS scan start time = 19:42:02
Dark Count =  7.6 


Time (GMT)  Wavelength (Ang)  Step Number  Raw Counts  Counts/Second

 1182.40        2950.00           1222          83.00       328.69
 1182.46        2950.25           1226          79.00       311.25
 1182.49        2950.50           1229          76.00       298.17
 1182.52        2950.75           1232          78.00       306.89
 1182.56        2951.00           1236          74.00       289.45
 1182.59        2951.25           1239          78.00       306.89
 1182.62        2951.50           1242          80.00       315.61
 1182.65        2951.75           1246          82.00       324.33
 1182.68        2952.00           1249          77.00       302.53
 1182.71        2952.25           1252          74.00       289.45
 1182.74        2952.50           1256          77.00       302.53
 1182.77        2952.75           1259          76.00       298.17
 1182.80        2953.00           1262          85.00       337.41
 1182.83        2953.25           1266          92.00       367.92
 1182.86        2953.50           1269          77.00       302.53
 1182.90        2953.75           1272          78.00       306.89
 1182.93        2954.00           1276          89.00       354.84
 1182.96        2954.25           1279          76.00       298.17
 1182.99        2954.50           1282          74.00       289.45
 1183.02        2954.75           1286          68.00       263.30
 1183.05        2955.00           1289          72.00       280.73
 1183.08        2955.25           1292          73.00       285.09
 1183.11        2955.50           1296          78.00       306.89
 1183.14        2955.75           1299          85.00       337.41
 1183.17        2956.00           1302          77.00       302.53
 1183.20        2956.25           1306          83.00       328.69
 1183.23        2956.50           1309          74.00       289.45
 1183.26        2956.75           1312          76.00       298.17
 1183.29        2957.00           1316          75.00       293.81
 1183.32        2957.25           1319          76.00       298.17
 1183.36        2957.50           1322          75.00       293.81
 1183.39        2957.75           1326          77.00       302.53
 1183.42        2958.00           1329          78.00       306.89
 1183.45        2958.25           1332          72.00       280.73
 1183.48        2958.50           1336          88.00       350.48
 1183.51        2958.75           1339          72.00       280.73
 1183.54        2959.00           1342          73.00       285.09
 1183.57        2959.25           1346          86.00       341.76
 1183.60        2959.50           1349          94.00       376.64
 1183.63        2959.75           1352         106.00       428.95
 1183.66        2960.00           1356         126.00       516.14
 1183.69        2960.25           1359         165.00       686.15
 1183.72        2960.50           1362         202.00       847.45
 1183.76        2960.75           1366         260.00      1100.30
 1183.79        2961.00           1369         296.00      1257.24
 1183.82        2961.25           1372         337.00      1435.98
 1183.85        2961.50           1376         413.00      1767.31
 1183.88        2961.75           1379         547.00      2351.52
 1183.91        2962.00           1382        1082.00      4684.18
 1183.94        2962.25           1386        2719.00     11823.72
 1183.97        2962.50           1389        4267.00     18577.92
 1184.00        2962.75           1392        5710.00     24876.45
 1184.03        2963.00           1396        7819.00     34086.27
 1184.06        2963.25           1399        9466.00     41282.13
 1184.10        2963.50           1402       10939.00     47720.41
 1184.13        2963.75           1406       13117.00     57244.70
 1184.16        2964.00           1409       14713.00     64227.39
 1184.19        2964.25           1412       16459.00     71869.71
 1184.22        2964.50           1416       18718.00     81762.66
 1184.25        2964.75           1419       20417.00     89207.04
 1184.28        2965.00           1422       21996.00     96128.61
 1184.31        2965.25           1426       24227.00    105913.20
 1184.34        2965.50           1429       25661.00    112205.30
 1184.37        2965.75           1432       27316.00    119470.20
 1184.40        2966.00           1436       29442.00    128807.20
 1184.44        2966.25           1439       31017.00    135727.70
 1184.47        2966.50           1442       32484.00    142176.20
 1184.50        2966.75           1446       34013.00    148899.90
 1184.53        2967.00           1449       34552.00    151270.80
 1184.56        2967.25           1452       34719.00    152005.50
 1184.59        2967.50           1456       34861.00    152630.10
 1184.62        2967.75           1459       34933.00    152946.90
 1184.65        2968.00           1462       34687.00    151864.70
 1184.68        2968.25           1466       33824.00    148068.70
 1184.71        2968.50           1469       32578.00    142589.50
 1184.74        2968.75           1472       31053.00    135885.90
 1184.78        2969.00           1476       29213.00    127801.20
 1184.81        2969.25           1479       27429.00    119966.30
 1184.84        2969.50           1482       25898.00    113245.50
 1184.87        2969.75           1486       23906.00    104505.00
 1184.90        2970.00           1489       22333.00     97606.22
 1184.93        2970.25           1492       20837.00     91047.84
 1184.96        2970.50           1496       18561.00     81074.90
 1184.99        2970.75           1499       16850.00     73581.61
 1185.02        2971.00           1502       15252.00     66586.25
 1185.06        2971.25           1506       12882.00     56216.79
 1185.09        2971.50           1509       11266.00     49150.02
 1185.12        2971.75           1513        9127.00     39800.77
 1185.15        2972.00           1516        7625.00     33238.88
 1185.18        2972.25           1519        6086.00     26518.04
 1185.21        2972.50           1523        4096.00     17831.68
 1185.24        2972.75           1526        2539.00     11038.53
 1185.27        2973.00           1529        1211.00      5246.68
 1185.30        2973.25           1533         481.00      2063.77
 1185.33        2973.50           1536         362.00      1544.97
 1185.37        2973.75           1539         297.00      1261.60
 1185.40        2974.00           1543         266.00      1126.45
 1185.43        2974.25           1546         211.00       886.68
 1185.46        2974.50           1549         152.00       629.48
 1185.49        2974.75           1553         110.00       446.39
 1185.52        2975.00           1556          88.00       350.48
 1185.55        2975.25           1559          76.00       298.17
 1185.58        2975.50           1563          71.00       276.38
 1185.61        2975.75           1566          71.00       276.38
 1185.64        2976.00           1569          78.00       306.89
 1185.67        2976.25           1573          76.00       298.17
 1185.70        2976.50           1576          72.00       280.73
 1185.73        2976.75           1579          63.00       241.50
 1185.77        2977.00           1583          64.00       245.86
 1185.80        2977.25           1586          74.00       289.45
 1185.83        2977.50           1590          73.00       285.09
 1185.86        2977.75           1593          63.00       241.50
 1185.89        2978.00           1596          71.00       276.38
 1185.92        2978.25           1600          76.00       298.17
 1185.95        2978.50           1603          64.00       245.86
 1185.98        2978.75           1606          69.00       267.66
 1186.01        2979.00           1610          74.00       289.45
 1186.05        2979.25           1613          69.00       267.66
 1186.08        2979.50           1616          68.00       263.30
 1186.11        2979.75           1620          89.00       354.84
 1186.14        2980.00           1623          72.00       280.73
 1186.17        2980.25           1626          69.00       267.66
 1186.20        2980.50           1630          68.00       263.30
 1186.23        2980.75           1633          69.00       267.66
 1186.26        2981.00           1637          67.00       258.94
 1186.29        2981.25           1640          71.00       276.38
 1186.32        2981.50           1643          68.00       263.30
 1186.35        2981.75           1647          69.00       267.66
 1186.38        2982.00           1650          74.00       289.45
 1186.41        2982.25           1653          76.00       298.17
 1186.44        2982.50           1657          67.00       258.94
 1186.47        2982.75           1660          73.00       285.09
 1186.51        2983.00           1663          73.00       285.09
 1186.54        2983.25           1667          77.00       302.53
 1186.57        2983.50           1670          60.00       228.42
 1186.60        2983.75           1673          72.00       280.73
 1186.63        2984.00           1677          59.00       224.06
HS scan finished at 19:46:51
end
