************************************************************
  HS Scan of (1) Internal mercury lamp
************************************************************
Integration time is 0.2294 seconds per sample
dh280817Manchester 53.47 2.23 2.965129pr1000
************************************************************
Dead Time -------------------------  3E-08 
Number of Cycles Used -------------  4 
Starting Wavelength (Angstroms) ---  2950 
Final Wavelength (Angstoms) -------  2984 
Wavelength Increment (Angstroms) --  .25 
Filter Wheel #1 Position ---------- (1) Ground quartz diffuser (ND=2.32)
Filter Wheel #2 Position ---------- (1) Neutral Density 0.494



************************************************************
HS scan start time = 01:38:45
Dark Count =  6 


Time (GMT)  Wavelength (Ang)  Step Number  Raw Counts  Counts/Second

   99.12        2950.00           1222          78.00       313.87
   99.19        2950.25           1226          75.00       300.79
   99.22        2950.50           1229          86.00       348.74
   99.25        2950.75           1232          80.00       322.58
   99.28        2951.00           1236          78.00       313.87
   99.31        2951.25           1239          82.00       331.30
   99.34        2951.50           1242          83.00       335.66
   99.37        2951.75           1246          73.00       292.07
   99.40        2952.00           1249          85.00       344.38
   99.43        2952.25           1252          72.00       287.71
   99.46        2952.50           1256          77.00       309.51
   99.49        2952.75           1259          74.00       296.43
   99.53        2953.00           1262          80.00       322.58
   99.56        2953.25           1266          76.00       305.15
   99.59        2953.50           1269          79.00       318.22
   99.62        2953.75           1272          71.00       283.35
   99.65        2954.00           1276          78.00       313.87
   99.68        2954.25           1279          83.00       335.66
   99.71        2954.50           1282          72.00       287.71
   99.74        2954.75           1286          75.00       300.79
   99.77        2955.00           1289          77.00       309.51
   99.80        2955.25           1292          76.00       305.15
   99.83        2955.50           1296          81.00       326.94
   99.86        2955.75           1299          84.00       340.02
   99.89        2956.00           1302          71.00       283.35
   99.92        2956.25           1306          78.00       313.87
   99.95        2956.50           1309          80.00       322.58
   99.99        2956.75           1312          80.00       322.58
  100.02        2957.00           1316          82.00       331.30
  100.05        2957.25           1319          89.00       361.82
  100.08        2957.50           1322          84.00       340.02
  100.11        2957.75           1326          72.00       287.71
  100.14        2958.00           1329          78.00       313.87
  100.17        2958.25           1332          85.00       344.38
  100.20        2958.50           1336          77.00       309.51
  100.23        2958.75           1339          76.00       305.15
  100.26        2959.00           1342          75.00       300.79
  100.29        2959.25           1346          73.00       292.07
  100.32        2959.50           1349          81.00       326.94
  100.35        2959.75           1352          96.00       392.33
  100.38        2960.00           1356         125.00       518.75
  100.42        2960.25           1359         148.00       619.02
  100.45        2960.50           1362         208.00       880.58
  100.48        2960.75           1366         271.00      1155.23
  100.51        2961.00           1369         316.00      1351.41
  100.54        2961.25           1372         360.00      1543.23
  100.57        2961.50           1376         469.00      2018.43
  100.60        2961.75           1379         773.00      3343.84
  100.63        2962.00           1382        1762.00      7656.51
  100.66        2962.25           1386        3860.00     16808.82
  100.69        2962.50           1389        5719.00     24922.73
  100.72        2962.75           1392        7268.00     31686.60
  100.75        2963.00           1396        9355.00     40804.06
  100.79        2963.25           1399       11264.00     49148.27
  100.82        2963.50           1402       13183.00     57540.40
  100.85        2963.75           1406       15254.00     66602.00
  100.88        2964.00           1409       17080.00     74595.70
  100.91        2964.25           1412       18950.00     82786.00
  100.94        2964.50           1416       21279.00     92992.28
  100.97        2964.75           1419       22987.00    100481.20
  101.00        2965.00           1422       24794.00    108407.80
  101.03        2965.25           1426       27243.00    119156.70
  101.06        2965.50           1429       28796.00    125976.50
  101.10        2965.75           1432       30682.00    134262.50
  101.13        2966.00           1436       32944.00    144205.80
  101.16        2966.25           1439       34506.00    151075.50
  101.19        2966.50           1442       35758.00    156583.90
  101.22        2966.75           1446       37297.00    163357.50
  101.25        2967.00           1449       37519.00    164334.80
  101.28        2967.25           1452       37647.00    164898.30
  101.31        2967.50           1456       37542.00    164436.00
  101.34        2967.75           1459       37563.00    164528.50
  101.38        2968.00           1462       37137.00    162653.10
  101.41        2968.25           1466       35702.00    156337.50
  101.44        2968.50           1469       33950.00    148629.90
  101.47        2968.75           1472       32391.00    141774.40
  101.50        2969.00           1476       30067.00    131560.10
  101.53        2969.25           1479       28346.00    124000.10
  101.56        2969.50           1482       26731.00    116908.90
  101.59        2969.75           1486       24522.00    107214.40
  101.62        2970.00           1489       22774.00     99547.06
  101.66        2970.25           1492       21319.00     93167.62
  101.69        2970.50           1496       19096.00     83425.63
  101.72        2970.75           1499       17183.00     75046.71
  101.75        2971.00           1502       15567.00     67971.94
  101.78        2971.25           1506       13108.00     57212.32
  101.81        2971.50           1509       11057.00     48243.27
  101.84        2971.75           1513        8892.00     38780.92
  101.87        2972.00           1516        7196.00     31372.15
  101.90        2972.25           1519        5412.00     23582.50
  101.93        2972.50           1523        3424.00     14906.40
  101.96        2972.75           1526        1867.00      8114.44
  102.00        2973.00           1529         816.00      3531.32
  102.03        2973.25           1533         435.00      1870.20
  102.06        2973.50           1536         332.00      1421.16
  102.09        2973.75           1539         308.00      1316.53
  102.12        2974.00           1543         264.00      1124.71
  102.15        2974.25           1546         192.00       810.83
  102.18        2974.50           1549         156.00       653.89
  102.21        2974.75           1553         113.00       466.44
  102.24        2975.00           1556          95.00       387.97
  102.27        2975.25           1559          83.00       335.66
  102.30        2975.50           1563          82.00       331.30
  102.33        2975.75           1566          77.00       309.51
  102.37        2976.00           1569          80.00       322.58
  102.40        2976.25           1573          82.00       331.30
  102.43        2976.50           1576          89.00       361.82
  102.46        2976.75           1579          76.00       305.15
  102.49        2977.00           1583          79.00       318.22
  102.52        2977.25           1586          69.00       274.63
  102.55        2977.50           1590          74.00       296.43
  102.58        2977.75           1593          77.00       309.51
  102.61        2978.00           1596          74.00       296.43
  102.64        2978.25           1600          72.00       287.71
  102.67        2978.50           1603          70.00       278.99
  102.70        2978.75           1606          74.00       296.43
  102.73        2979.00           1610          71.00       283.35
  102.76        2979.25           1613          71.00       283.35
  102.80        2979.50           1616          73.00       292.07
  102.83        2979.75           1620          65.00       257.19
  102.86        2980.00           1623          65.00       257.19
  102.89        2980.25           1626          71.00       283.35
  102.92        2980.50           1630          71.00       283.35
  102.95        2980.75           1633          76.00       305.15
  102.98        2981.00           1637          68.00       270.27
  103.01        2981.25           1640          71.00       283.35
  103.04        2981.50           1643          65.00       257.19
  103.07        2981.75           1647          79.00       318.22
  103.10        2982.00           1650          68.00       270.27
  103.14        2982.25           1653          72.00       287.71
  103.17        2982.50           1657          70.00       278.99
  103.20        2982.75           1660          72.00       287.71
  103.23        2983.00           1663          72.00       287.71
  103.26        2983.25           1667          66.00       261.55
  103.29        2983.50           1670          66.00       261.55
  103.32        2983.75           1673          72.00       287.71
  103.35        2984.00           1677          71.00       283.35
HS scan finished at 01:43:34
end
************************************************************
  HS Scan of (1) Internal mercury lamp
************************************************************
Integration time is 0.2294 seconds per sample
dh280817Manchester 53.47 2.23 3.072425pr1000
************************************************************
Dead Time -------------------------  3E-08 
Number of Cycles Used -------------  4 
Starting Wavelength (Angstroms) ---  2950 
Final Wavelength (Angstoms) -------  2984 
Wavelength Increment (Angstroms) --  .25 
Filter Wheel #1 Position ---------- (1) Ground quartz diffuser (ND=2.32)
Filter Wheel #2 Position ---------- (1) Neutral Density 0.494



************************************************************
HS scan start time = 20:11:58
Dark Count =  5.9 


Time (GMT)  Wavelength (Ang)  Step Number  Raw Counts  Counts/Second

 1212.34        2950.00           1222          79.00       318.66
 1212.41        2950.25           1226          78.00       314.30
 1212.44        2950.50           1229          83.00       336.10
 1212.47        2950.75           1232          82.00       331.74
 1212.50        2951.00           1236          85.00       344.82
 1212.53        2951.25           1239          79.00       318.66
 1212.56        2951.50           1242          77.00       309.94
 1212.59        2951.75           1246          71.00       283.79
 1212.63        2952.00           1249          78.00       314.30
 1212.66        2952.25           1252          75.00       301.22
 1212.69        2952.50           1256          84.00       340.46
 1212.72        2952.75           1259          84.00       340.46
 1212.75        2953.00           1262          65.00       257.63
 1212.78        2953.25           1266          68.00       270.71
 1212.81        2953.50           1269          77.00       309.94
 1212.84        2953.75           1272          75.00       301.22
 1212.87        2954.00           1276          77.00       309.94
 1212.90        2954.25           1279          66.00       261.99
 1212.94        2954.50           1282          73.00       292.50
 1212.97        2954.75           1286          79.00       318.66
 1213.00        2955.00           1289          86.00       349.18
 1213.03        2955.25           1292          70.00       279.43
 1213.06        2955.50           1296          74.00       296.86
 1213.09        2955.75           1299          75.00       301.22
 1213.12        2956.00           1302          78.00       314.30
 1213.15        2956.25           1306          75.00       301.22
 1213.18        2956.50           1309          80.00       323.02
 1213.21        2956.75           1312          86.00       349.18
 1213.24        2957.00           1316          73.00       292.50
 1213.27        2957.25           1319          75.00       301.22
 1213.30        2957.50           1322          81.00       327.38
 1213.34        2957.75           1326          78.00       314.30
 1213.37        2958.00           1329          81.00       327.38
 1213.40        2958.25           1332          84.00       340.46
 1213.43        2958.50           1336          74.00       296.86
 1213.46        2958.75           1339          83.00       336.10
 1213.49        2959.00           1342          75.00       301.22
 1213.52        2959.25           1346          75.00       301.22
 1213.55        2959.50           1349          93.00       379.69
 1213.58        2959.75           1352         106.00       436.36
 1213.61        2960.00           1356         136.00       567.14
 1213.64        2960.25           1359         182.00       767.67
 1213.67        2960.50           1362         209.00       885.38
 1213.71        2960.75           1366         268.00      1142.59
 1213.74        2961.00           1369         318.00      1360.56
 1213.77        2961.25           1372         362.00      1552.38
 1213.80        2961.50           1376         461.00      1983.99
 1213.83        2961.75           1379         599.00      2585.64
 1213.86        2962.00           1382        1154.00      5005.55
 1213.89        2962.25           1386        3116.00     13563.06
 1213.92        2962.50           1389        4909.00     21387.30
 1213.95        2962.75           1392        6540.00     28507.81
 1213.98        2963.00           1396        9035.00     39406.19
 1214.02        2963.25           1399       10731.00     46818.55
 1214.05        2963.50           1402       12546.00     54754.65
 1214.08        2963.75           1406       14770.00     64484.26
 1214.11        2964.00           1409       16699.00     72927.91
 1214.14        2964.25           1412       18561.00     81082.35
 1214.17        2964.50           1416       20958.00     91585.64
 1214.20        2964.75           1419       22772.00     99538.74
 1214.23        2965.00           1422       24592.00    107522.00
 1214.26        2965.25           1426       27202.00    118977.10
 1214.29        2965.50           1429       28824.00    126099.90
 1214.32        2965.75           1432       30789.00    134733.10
 1214.35        2966.00           1436       32943.00    144201.80
 1214.39        2966.25           1439       34574.00    151375.10
 1214.42        2966.50           1442       36133.00    158234.60
 1214.45        2966.75           1446       38000.00    166452.90
 1214.48        2967.00           1449       38619.00    169178.60
 1214.51        2967.25           1452       38926.00    170530.60
 1214.54        2967.50           1456       38638.00    169262.30
 1214.57        2967.75           1459       38668.00    169394.40
 1214.60        2968.00           1462       38796.00    169958.10
 1214.63        2968.25           1466       37790.00    165528.30
 1214.66        2968.50           1469       36469.00    159713.30
 1214.70        2968.75           1472       34736.00    152087.70
 1214.73        2969.00           1476       32444.00    142007.80
 1214.76        2969.25           1479       30557.00    133713.60
 1214.79        2969.50           1482       28913.00    126490.90
 1214.82        2969.75           1486       26457.00    115706.50
 1214.85        2970.00           1489       24842.00    108618.80
 1214.88        2970.25           1492       23103.00    100990.30
 1214.91        2970.50           1496       20607.00     90047.21
 1214.95        2970.75           1499       18902.00     82576.16
 1214.98        2971.00           1502       17053.00     74477.91
 1215.01        2971.25           1506       14620.00     63827.86
 1215.04        2971.50           1509       12834.00     56014.28
 1215.07        2971.75           1513       10532.00     45948.65
 1215.10        2972.00           1516        8684.00     37872.56
 1215.13        2972.25           1519        6923.00     30180.33
 1215.16        2972.50           1523        4621.00     20130.29
 1215.19        2972.75           1526        2975.00     12947.92
 1215.22        2973.00           1529        1406.00      6104.43
 1215.25        2973.25           1533         509.00      2193.26
 1215.29        2973.50           1536         374.00      1604.70
 1215.32        2973.75           1539         328.00      1404.16
 1215.35        2974.00           1543         269.00      1146.94
 1215.38        2974.25           1546         192.00       811.27
 1215.41        2974.50           1549         164.00       689.20
 1215.44        2974.75           1553         120.00       497.39
 1215.47        2975.00           1556          93.00       379.69
 1215.50        2975.25           1559          83.00       336.10
 1215.53        2975.50           1563          77.00       309.94
 1215.56        2975.75           1566          79.00       318.66
 1215.59        2976.00           1569          75.00       301.22
 1215.63        2976.25           1573          79.00       318.66
 1215.66        2976.50           1576          81.00       327.38
 1215.69        2976.75           1579          74.00       296.86
 1215.72        2977.00           1583          74.00       296.86
 1215.75        2977.25           1586          70.00       279.43
 1215.78        2977.50           1590          81.00       327.38
 1215.81        2977.75           1593          75.00       301.22
 1215.84        2978.00           1596          84.00       340.46
 1215.87        2978.25           1600          74.00       296.86
 1215.90        2978.50           1603          75.00       301.22
 1215.93        2978.75           1606          70.00       279.43
 1215.96        2979.00           1610          80.00       323.02
 1216.00        2979.25           1613          71.00       283.79
 1216.03        2979.50           1616          77.00       309.94
 1216.06        2979.75           1620          71.00       283.79
 1216.09        2980.00           1623          68.00       270.71
 1216.12        2980.25           1626          71.00       283.79
 1216.15        2980.50           1630          73.00       292.50
 1216.18        2980.75           1633          79.00       318.66
 1216.21        2981.00           1637          72.00       288.15
 1216.24        2981.25           1640          76.00       305.58
 1216.27        2981.50           1643          63.00       248.91
 1216.30        2981.75           1647          72.00       288.15
 1216.33        2982.00           1650          76.00       305.58
 1216.36        2982.25           1653          67.00       266.35
 1216.40        2982.50           1657          72.00       288.15
 1216.43        2982.75           1660          64.00       253.27
 1216.46        2983.00           1663          76.00       305.58
 1216.49        2983.25           1667          67.00       266.35
 1216.52        2983.50           1670          61.00       240.19
 1216.55        2983.75           1673          75.00       301.22
 1216.58        2984.00           1677          69.00       275.07
HS scan finished at 20:16:48
end
