************************************************************
  HS Scan of (1) Internal mercury lamp
************************************************************
Integration time is 0.2294 seconds per sample
dh030918Manchester 53.47 2.23 3.018777pr1000
************************************************************
Dead Time -------------------------  3E-08 
Number of Cycles Used -------------  4 
Starting Wavelength (Angstroms) ---  2950 
Final Wavelength (Angstoms) -------  2984 
Wavelength Increment (Angstroms) --  .25 
Filter Wheel #1 Position ---------- (1) Ground quartz diffuser (ND=2.32)
Filter Wheel #2 Position ---------- (1) Neutral Density 0.494



************************************************************
HS scan start time = 01:35:34
Dark Count =  5.8 


Time (GMT)  Wavelength (Ang)  Step Number  Raw Counts  Counts/Second

   95.94        2950.00           1222          51.00       197.04
   96.00        2950.25           1226          47.00       179.60
   96.03        2950.50           1229          49.00       188.32
   96.06        2950.75           1232          49.00       188.32
   96.09        2951.00           1236          57.00       223.19
   96.13        2951.25           1239          55.00       214.47
   96.16        2951.50           1242          53.00       205.76
   96.19        2951.75           1246          50.00       192.68
   96.22        2952.00           1249          52.00       201.40
   96.25        2952.25           1252          53.00       205.76
   96.28        2952.50           1256          49.00       188.32
   96.31        2952.75           1259          55.00       214.47
   96.34        2953.00           1262          51.00       197.04
   96.37        2953.25           1266          45.00       170.88
   96.40        2953.50           1269          46.00       175.24
   96.43        2953.75           1272          44.00       166.52
   96.46        2954.00           1276          59.00       231.91
   96.49        2954.25           1279          53.00       205.76
   96.52        2954.50           1282          63.00       249.35
   96.55        2954.75           1286          48.00       183.96
   96.58        2955.00           1289          49.00       188.32
   96.61        2955.25           1292          45.00       170.88
   96.65        2955.50           1296          59.00       231.91
   96.68        2955.75           1299          47.00       179.60
   96.71        2956.00           1302          51.00       197.04
   96.74        2956.25           1306          53.00       205.76
   96.77        2956.50           1309          49.00       188.32
   96.80        2956.75           1312          44.00       166.52
   96.83        2957.00           1316          55.00       214.47
   96.86        2957.25           1319          43.00       162.16
   96.89        2957.50           1322          51.00       197.04
   96.92        2957.75           1326          48.00       183.96
   96.95        2958.00           1329          47.00       179.60
   96.98        2958.25           1332          63.00       249.35
   97.01        2958.50           1336          60.00       236.27
   97.04        2958.75           1339          47.00       179.60
   97.08        2959.00           1342          57.00       223.19
   97.11        2959.25           1346          58.00       227.55
   97.14        2959.50           1349          64.00       253.71
   97.17        2959.75           1352          76.00       306.02
   97.20        2960.00           1356          88.00       358.33
   97.23        2960.25           1359         116.00       480.39
   97.26        2960.50           1362         160.00       672.20
   97.29        2960.75           1366         196.00       829.14
   97.32        2961.00           1369         246.00      1047.11
   97.35        2961.25           1372         268.00      1143.02
   97.38        2961.50           1376         354.00      1517.94
   97.42        2961.75           1379         510.00      2198.05
   97.45        2962.00           1382        1108.00      4805.40
   97.48        2962.25           1386        2768.00     12045.33
   97.51        2962.50           1389        4078.00     17760.99
   97.54        2962.75           1392        5387.00     23474.24
   97.57        2963.00           1396        7176.00     31285.67
   97.60        2963.25           1399        8522.00     37165.22
   97.63        2963.50           1402        9855.00     42990.03
   97.66        2963.75           1406       11735.00     51208.52
   97.69        2964.00           1409       13042.00     56924.51
   97.72        2964.25           1412       14520.00     63390.71
   97.76        2964.50           1416       16379.00     71527.35
   97.79        2964.75           1419       17850.00     77968.56
   97.82        2965.00           1422       19233.00     84026.72
   97.85        2965.25           1426       21030.00     91901.68
   97.88        2965.50           1429       22310.00     97513.28
   97.91        2965.75           1432       23677.00    103508.40
   97.94        2966.00           1436       25585.00    111879.70
   97.97        2966.25           1439       26748.00    116984.40
   98.00        2966.50           1442       28082.00    122841.60
   98.03        2966.75           1446       29214.00    127813.50
   98.06        2967.00           1449       29669.00    129812.30
   98.09        2967.25           1452       29628.00    129632.20
   98.12        2967.50           1456       29569.00    129373.00
   98.16        2967.75           1459       29509.00    129109.40
   98.19        2968.00           1462       29503.00    129083.00
   98.22        2968.25           1466       28287.00    123741.90
   98.25        2968.50           1469       27304.00    119425.40
   98.28        2968.75           1472       25997.00    113687.90
   98.31        2969.00           1476       24245.00    106000.00
   98.34        2969.25           1479       22730.00     99354.99
   98.37        2969.50           1482       21565.00     94246.92
   98.40        2969.75           1486       19810.00     86554.89
   98.43        2970.00           1489       18277.00     79838.77
   98.46        2970.25           1492       16837.00     73532.57
   98.50        2970.50           1496       14998.00     65482.48
   98.53        2970.75           1499       13633.00     59509.82
   98.56        2971.00           1502       12333.00     53823.55
   98.59        2971.25           1506       10533.00     45953.46
   98.62        2971.50           1509        9227.00     40245.60
   98.65        2971.75           1513        7397.00     32250.89
   98.68        2972.00           1516        6140.00     26761.67
   98.71        2972.25           1519        4695.00     20453.70
   98.74        2972.50           1523        2911.00     12669.16
   98.78        2972.75           1526        1696.00      7369.55
   98.81        2973.00           1529         743.00      3213.91
   98.84        2973.25           1533         359.00      1539.74
   98.87        2973.50           1536         290.00      1238.93
   98.90        2973.75           1539         249.00      1060.19
   98.93        2974.00           1543         194.00       820.42
   98.96        2974.25           1546         137.00       571.94
   98.99        2974.50           1549         115.00       476.03
   99.02        2974.75           1553          66.00       262.43
   99.05        2975.00           1556          68.00       271.14
   99.08        2975.25           1559          51.00       197.04
   99.11        2975.50           1563          55.00       214.47
   99.14        2975.75           1566          45.00       170.88
   99.17        2976.00           1569          53.00       205.76
   99.20        2976.25           1573          50.00       192.68
   99.24        2976.50           1576          55.00       214.47
   99.27        2976.75           1579          40.00       149.09
   99.30        2977.00           1583          55.00       214.47
   99.33        2977.25           1586          58.00       227.55
   99.36        2977.50           1590          46.00       175.24
   99.39        2977.75           1593          50.00       192.68
   99.42        2978.00           1596          53.00       205.76
   99.45        2978.25           1600          57.00       223.19
   99.48        2978.50           1603          52.00       201.40
   99.51        2978.75           1606          48.00       183.96
   99.54        2979.00           1610          49.00       188.32
   99.58        2979.25           1613          47.00       179.60
   99.61        2979.50           1616          50.00       192.68
   99.64        2979.75           1620          54.00       210.11
   99.67        2980.00           1623          48.00       183.96
   99.70        2980.25           1626          50.00       192.68
   99.73        2980.50           1630          49.00       188.32
   99.76        2980.75           1633          50.00       192.68
   99.79        2981.00           1637          44.00       166.52
   99.82        2981.25           1640          43.00       162.16
   99.85        2981.50           1643          47.00       179.60
   99.89        2981.75           1647          45.00       170.88
   99.92        2982.00           1650          50.00       192.68
   99.95        2982.25           1653          47.00       179.60
   99.98        2982.50           1657          44.00       166.52
  100.01        2982.75           1660          42.00       157.80
  100.04        2983.00           1663          46.00       175.24
  100.07        2983.25           1667          45.00       170.88
  100.10        2983.50           1670          51.00       197.04
  100.14        2983.75           1673          48.00       183.96
  100.17        2984.00           1677          45.00       170.88
HS scan finished at 01:40:23
end
************************************************************
  HS Scan of (1) Internal mercury lamp
************************************************************
Integration time is 0.2294 seconds per sample
dh030918Manchester 53.47 2.23 2.857833pr1000
************************************************************
Dead Time -------------------------  3E-08 
Number of Cycles Used -------------  4 
Starting Wavelength (Angstroms) ---  2950 
Final Wavelength (Angstoms) -------  2984 
Wavelength Increment (Angstroms) --  .25 
Filter Wheel #1 Position ---------- (1) Ground quartz diffuser (ND=2.32)
Filter Wheel #2 Position ---------- (1) Neutral Density 0.494



************************************************************
HS scan start time = 19:42:02
Dark Count =  4.8 


Time (GMT)  Wavelength (Ang)  Step Number  Raw Counts  Counts/Second

 1182.41        2950.00           1222          46.00       179.60
 1182.47        2950.25           1226          50.00       197.04
 1182.51        2950.50           1229          56.00       223.19
 1182.54        2950.75           1232          48.00       188.32
 1182.57        2951.00           1236          47.00       183.96
 1182.60        2951.25           1239          51.00       201.40
 1182.63        2951.50           1242          52.00       205.76
 1182.66        2951.75           1246          55.00       218.83
 1182.69        2952.00           1249          48.00       188.32
 1182.72        2952.25           1252          50.00       197.04
 1182.75        2952.50           1256          55.00       218.83
 1182.78        2952.75           1259          48.00       188.32
 1182.81        2953.00           1262          55.00       218.83
 1182.84        2953.25           1266          52.00       205.76
 1182.87        2953.50           1269          60.00       240.63
 1182.91        2953.75           1272          52.00       205.76
 1182.94        2954.00           1276          46.00       179.60
 1182.97        2954.25           1279          48.00       188.32
 1183.00        2954.50           1282          48.00       188.32
 1183.03        2954.75           1286          48.00       188.32
 1183.06        2955.00           1289          56.00       223.19
 1183.09        2955.25           1292          47.00       183.96
 1183.12        2955.50           1296          48.00       188.32
 1183.15        2955.75           1299          58.00       231.91
 1183.18        2956.00           1302          51.00       201.40
 1183.22        2956.25           1306          52.00       205.76
 1183.25        2956.50           1309          52.00       205.76
 1183.28        2956.75           1312          49.00       192.68
 1183.31        2957.00           1316          55.00       218.83
 1183.34        2957.25           1319          50.00       197.04
 1183.37        2957.50           1322          48.00       188.32
 1183.40        2957.75           1326          49.00       192.68
 1183.43        2958.00           1329          55.00       218.83
 1183.46        2958.25           1332          50.00       197.04
 1183.49        2958.50           1336          49.00       192.68
 1183.52        2958.75           1339          54.00       214.47
 1183.55        2959.00           1342          51.00       201.40
 1183.58        2959.25           1346          56.00       223.19
 1183.61        2959.50           1349          60.00       240.63
 1183.64        2959.75           1352          73.00       297.30
 1183.68        2960.00           1356         108.00       449.88
 1183.71        2960.25           1359         131.00       550.14
 1183.74        2960.50           1362         164.00       694.00
 1183.77        2960.75           1366         185.00       785.55
 1183.80        2961.00           1369         229.00       977.36
 1183.83        2961.25           1372         250.00      1068.91
 1183.86        2961.50           1376         330.00      1417.67
 1183.89        2961.75           1379         517.00      2232.93
 1183.92        2962.00           1382        1123.00      4875.17
 1183.95        2962.25           1386        2649.00     11530.58
 1183.99        2962.50           1389        3878.00     16892.60
 1184.02        2962.75           1392        5086.00     22164.69
 1184.05        2963.00           1396        6660.00     29036.62
 1184.08        2963.25           1399        7796.00     33998.04
 1184.11        2963.50           1402        9174.00     40018.38
 1184.14        2963.75           1406       10872.00     47439.74
 1184.17        2964.00           1409       12108.00     52843.96
 1184.20        2964.25           1412       13596.00     59352.32
 1184.23        2964.50           1416       15235.00     66524.10
 1184.26        2964.75           1419       16463.00     71899.47
 1184.30        2965.00           1422       17831.00     77889.73
 1184.33        2965.25           1426       19385.00     84697.06
 1184.36        2965.50           1429       20848.00     91108.32
 1184.39        2965.75           1432       22050.00     96377.64
 1184.42        2966.00           1436       23725.00    103723.30
 1184.45        2966.25           1439       24997.00    109303.80
 1184.48        2966.50           1442       26132.00    114284.80
 1184.51        2966.75           1446       27459.00    120110.30
 1184.54        2967.00           1449       27790.00    121563.70
 1184.57        2967.25           1452       27872.00    121923.80
 1184.61        2967.50           1456       27800.00    121607.60
 1184.64        2967.75           1459       28011.00    122534.20
 1184.67        2968.00           1462       27849.00    121822.80
 1184.70        2968.25           1466       26801.00    117221.50
 1184.73        2968.50           1469       25801.00    112832.00
 1184.76        2968.75           1472       24671.00    107873.40
 1184.79        2969.00           1476       22877.00    100004.00
 1184.82        2969.25           1479       21752.00     95071.12
 1184.85        2969.50           1482       20480.00     89495.41
 1184.89        2969.75           1486       18729.00     81823.10
 1184.92        2970.00           1489       17471.00     76313.13
 1184.95        2970.25           1492       16268.00     71045.77
 1184.98        2970.50           1496       14481.00     63224.43
 1185.01        2970.75           1499       13249.00     57834.35
 1185.04        2971.00           1502       11900.00     51934.39
 1185.07        2971.25           1506       10234.00     44650.88
 1185.10        2971.50           1509        8896.00     38803.65
 1185.13        2971.75           1513        7083.00     30883.88
 1185.16        2972.00           1516        5871.00     25591.57
 1185.19        2972.25           1519        4599.00     20039.07
 1185.22        2972.50           1523        2871.00     12499.02
 1185.26        2972.75           1526        1679.00      7299.77
 1185.29        2973.00           1529         727.00      3148.51
 1185.32        2973.25           1533         329.00      1413.31
 1185.35        2973.50           1536         263.00      1125.58
 1185.38        2973.75           1539         251.00      1073.27
 1185.41        2974.00           1543         202.00       859.66
 1185.44        2974.25           1546         143.00       602.45
 1185.47        2974.50           1549         119.00       497.83
 1185.50        2974.75           1553          78.00       319.10
 1185.53        2975.00           1556          73.00       297.30
 1185.56        2975.25           1559          55.00       218.83
 1185.59        2975.50           1563          54.00       214.47
 1185.62        2975.75           1566          46.00       179.60
 1185.65        2976.00           1569          60.00       240.63
 1185.69        2976.25           1573          51.00       201.40
 1185.72        2976.50           1576          46.00       179.60
 1185.75        2976.75           1579          44.00       170.88
 1185.78        2977.00           1583          54.00       214.47
 1185.81        2977.25           1586          50.00       197.04
 1185.84        2977.50           1590          43.00       166.52
 1185.87        2977.75           1593          50.00       197.04
 1185.90        2978.00           1596          48.00       188.32
 1185.93        2978.25           1600          51.00       201.40
 1185.96        2978.50           1603          44.00       170.88
 1185.99        2978.75           1606          48.00       188.32
 1186.03        2979.00           1610          40.00       153.44
 1186.06        2979.25           1613          51.00       201.40
 1186.09        2979.50           1616          44.00       170.88
 1186.12        2979.75           1620          43.00       166.52
 1186.15        2980.00           1623          56.00       223.19
 1186.18        2980.25           1626          49.00       192.68
 1186.21        2980.50           1630          53.00       210.11
 1186.24        2980.75           1633          55.00       218.83
 1186.27        2981.00           1637          44.00       170.88
 1186.30        2981.25           1640          47.00       183.96
 1186.33        2981.50           1643          56.00       223.19
 1186.37        2981.75           1647          50.00       197.04
 1186.40        2982.00           1650          49.00       192.68
 1186.43        2982.25           1653          43.00       166.52
 1186.46        2982.50           1657          56.00       223.19
 1186.49        2982.75           1660          49.00       192.68
 1186.52        2983.00           1663          46.00       179.60
 1186.55        2983.25           1667          48.00       188.32
 1186.58        2983.50           1670          45.00       175.24
 1186.61        2983.75           1673          44.00       170.88
 1186.64        2984.00           1677          46.00       179.60
HS scan finished at 19:46:52
end
