************************************************************
  HS Scan of (1) Internal mercury lamp
************************************************************
Integration time is 0.2294 seconds per sample
dh110918Manchester 53.47 2.23 2.911481pr1000
************************************************************
Dead Time -------------------------  3E-08 
Number of Cycles Used -------------  4 
Starting Wavelength (Angstroms) ---  2950 
Final Wavelength (Angstoms) -------  2984 
Wavelength Increment (Angstroms) --  .25 
Filter Wheel #1 Position ---------- (1) Ground quartz diffuser (ND=2.32)
Filter Wheel #2 Position ---------- (1) Neutral Density 0.494



************************************************************
HS scan start time = 01:50:17
Dark Count =  7 


Time (GMT)  Wavelength (Ang)  Step Number  Raw Counts  Counts/Second

  110.66        2950.00           1222          54.00       204.88
  110.73        2950.25           1226          54.00       204.88
  110.76        2950.50           1229          59.00       226.68
  110.79        2950.75           1232          59.00       226.68
  110.82        2951.00           1236          54.00       204.88
  110.85        2951.25           1239          57.00       217.96
  110.88        2951.50           1242          49.00       183.09
  110.91        2951.75           1246          52.00       196.17
  110.94        2952.00           1249          44.00       161.29
  110.97        2952.25           1252          51.00       191.81
  111.00        2952.50           1256          45.00       165.65
  111.03        2952.75           1259          53.00       200.52
  111.06        2953.00           1262          43.00       156.93
  111.09        2953.25           1266          48.00       178.73
  111.12        2953.50           1269          49.00       183.09
  111.15        2953.75           1272          49.00       183.09
  111.19        2954.00           1276          49.00       183.09
  111.22        2954.25           1279          46.00       170.01
  111.25        2954.50           1282          45.00       165.65
  111.28        2954.75           1286          53.00       200.52
  111.31        2955.00           1289          58.00       222.32
  111.34        2955.25           1292          50.00       187.45
  111.37        2955.50           1296          50.00       187.45
  111.40        2955.75           1299          49.00       183.09
  111.43        2956.00           1302          50.00       187.45
  111.46        2956.25           1306          47.00       174.37
  111.49        2956.50           1309          58.00       222.32
  111.52        2956.75           1312          54.00       204.88
  111.55        2957.00           1316          52.00       196.17
  111.58        2957.25           1319          50.00       187.45
  111.61        2957.50           1322          53.00       200.52
  111.65        2957.75           1326          57.00       217.96
  111.68        2958.00           1329          55.00       209.24
  111.71        2958.25           1332          51.00       191.81
  111.74        2958.50           1336          60.00       231.04
  111.77        2958.75           1339          47.00       174.37
  111.80        2959.00           1342          53.00       200.52
  111.83        2959.25           1346          53.00       200.52
  111.86        2959.50           1349          62.00       239.76
  111.89        2959.75           1352          59.00       226.68
  111.92        2960.00           1356          89.00       357.46
  111.95        2960.25           1359         100.00       405.41
  111.98        2960.50           1362         130.00       536.19
  112.02        2960.75           1366         190.00       797.75
  112.05        2961.00           1369         205.00       863.14
  112.08        2961.25           1372         244.00      1033.16
  112.11        2961.50           1376         301.00      1281.65
  112.14        2961.75           1379         395.00      1691.45
  112.17        2962.00           1382         793.00      3426.68
  112.20        2962.25           1386        2191.00      9523.21
  112.23        2962.50           1389        3356.00     14605.35
  112.26        2962.75           1392        4752.00     20697.24
  112.29        2963.00           1396        6389.00     27843.65
  112.32        2963.25           1399        7705.00     33590.94
  112.36        2963.50           1402        8978.00     39152.33
  112.39        2963.75           1406       10828.00     47237.78
  112.42        2964.00           1409       12036.00     52519.48
  112.45        2964.25           1412       13435.00     58638.38
  112.48        2964.50           1416       15153.00     66155.58
  112.51        2964.75           1419       16373.00     71495.82
  112.54        2965.00           1422       17694.00     77280.10
  112.57        2965.25           1426       19515.00     85257.02
  112.60        2965.50           1429       20847.00     91094.29
  112.63        2965.75           1432       22222.00     97122.16
  112.66        2966.00           1436       23953.00    104713.80
  112.70        2966.25           1439       25109.00    109785.60
  112.73        2966.50           1442       26319.00    115096.00
  112.76        2966.75           1446       27501.00    120285.10
  112.79        2967.00           1449       28041.00    122656.30
  112.82        2967.25           1452       28081.00    122831.90
  112.85        2967.50           1456       28017.00    122550.90
  112.88        2967.75           1459       28085.00    122849.50
  112.91        2968.00           1462       28008.00    122511.40
  112.94        2968.25           1466       27150.00    118744.00
  112.98        2968.50           1469       26125.00    114244.40
  113.01        2968.75           1472       24907.00    108899.20
  113.04        2969.00           1476       23309.00    101889.00
  113.07        2969.25           1479       21867.00     95565.66
  113.10        2969.50           1482       20759.00     90708.59
  113.13        2969.75           1486       19002.00     83009.43
  113.16        2970.00           1489       17891.00     78142.87
  113.19        2970.25           1492       16653.00     72721.69
  113.22        2970.50           1496       15031.00     65621.65
  113.25        2970.75           1499       13610.00     59403.95
  113.28        2971.00           1502       12382.00     54032.59
  113.32        2971.25           1506       10433.00     45511.10
  113.35        2971.50           1509        9087.00     39628.61
  113.38        2971.75           1513        7370.00     32127.73
  113.41        2972.00           1516        6072.00     26459.53
  113.44        2972.25           1519        4895.00     21321.39
  113.47        2972.50           1523        3263.00     14199.60
  113.50        2972.75           1526        2092.00      9091.41
  113.53        2973.00           1529        1093.00      4734.76
  113.56        2973.25           1533         420.00      1800.45
  113.59        2973.50           1536         323.00      1377.56
  113.63        2973.75           1539         252.00      1068.04
  113.66        2974.00           1543         223.00       941.61
  113.69        2974.25           1546         184.00       771.60
  113.72        2974.50           1549         122.00       501.32
  113.75        2974.75           1553          95.00       383.61
  113.78        2975.00           1556          67.00       261.55
  113.81        2975.25           1559          68.00       265.91
  113.84        2975.50           1563          51.00       191.81
  113.87        2975.75           1566          53.00       200.52
  113.90        2976.00           1569          48.00       178.73
  113.93        2976.25           1573          50.00       187.45
  113.96        2976.50           1576          47.00       174.37
  113.99        2976.75           1579          57.00       217.96
  114.02        2977.00           1583          52.00       196.17
  114.06        2977.25           1586          44.00       161.29
  114.09        2977.50           1590          48.00       178.73
  114.12        2977.75           1593          53.00       200.52
  114.15        2978.00           1596          47.00       174.37
  114.18        2978.25           1600          44.00       161.29
  114.21        2978.50           1603          61.00       235.40
  114.24        2978.75           1606          49.00       183.09
  114.27        2979.00           1610          52.00       196.17
  114.30        2979.25           1613          48.00       178.73
  114.33        2979.50           1616          49.00       183.09
  114.36        2979.75           1620          48.00       178.73
  114.39        2980.00           1623          50.00       187.45
  114.43        2980.25           1626          45.00       165.65
  114.46        2980.50           1630          44.00       161.29
  114.49        2980.75           1633          52.00       196.17
  114.52        2981.00           1637          47.00       174.37
  114.55        2981.25           1640          54.00       204.88
  114.58        2981.50           1643          51.00       191.81
  114.61        2981.75           1647          46.00       170.01
  114.64        2982.00           1650          45.00       165.65
  114.67        2982.25           1653          45.00       165.65
  114.70        2982.50           1657          43.00       156.93
  114.74        2982.75           1660          55.00       209.24
  114.77        2983.00           1663          41.00       148.21
  114.80        2983.25           1667          44.00       161.29
  114.83        2983.50           1670          49.00       183.09
  114.86        2983.75           1673          51.00       191.81
  114.89        2984.00           1677          42.00       152.57
HS scan finished at 01:55:06
end
************************************************************
  HS Scan of (1) Internal mercury lamp
************************************************************
Integration time is 0.2294 seconds per sample
dh110918Manchester 53.47 2.23 2.857833pr1000
************************************************************
Dead Time -------------------------  3E-08 
Number of Cycles Used -------------  4 
Starting Wavelength (Angstroms) ---  2950 
Final Wavelength (Angstoms) -------  2984 
Wavelength Increment (Angstroms) --  .25 
Filter Wheel #1 Position ---------- (1) Ground quartz diffuser (ND=2.32)
Filter Wheel #2 Position ---------- (1) Neutral Density 0.494



************************************************************
HS scan start time = 19:42:03
Dark Count =  5 


Time (GMT)  Wavelength (Ang)  Step Number  Raw Counts  Counts/Second

 1182.42        2950.00           1222          52.00       204.88
 1182.49        2950.25           1226          49.00       191.81
 1182.52        2950.50           1229          52.00       204.88
 1182.55        2950.75           1232          54.00       213.60
 1182.58        2951.00           1236          57.00       226.68
 1182.61        2951.25           1239          47.00       183.09
 1182.64        2951.50           1242          53.00       209.24
 1182.67        2951.75           1246          59.00       235.40
 1182.70        2952.00           1249          54.00       213.60
 1182.73        2952.25           1252          46.00       178.73
 1182.76        2952.50           1256          53.00       209.24
 1182.79        2952.75           1259          55.00       217.96
 1182.82        2953.00           1262          53.00       209.24
 1182.85        2953.25           1266          55.00       217.96
 1182.89        2953.50           1269          47.00       183.09
 1182.92        2953.75           1272          59.00       235.40
 1182.95        2954.00           1276          59.00       235.40
 1182.98        2954.25           1279          46.00       178.73
 1183.01        2954.50           1282          50.00       196.17
 1183.04        2954.75           1286          48.00       187.45
 1183.07        2955.00           1289          49.00       191.81
 1183.10        2955.25           1292          60.00       239.76
 1183.13        2955.50           1296          50.00       196.17
 1183.16        2955.75           1299          51.00       200.52
 1183.19        2956.00           1302          47.00       183.09
 1183.22        2956.25           1306          58.00       231.04
 1183.26        2956.50           1309          53.00       209.24
 1183.29        2956.75           1312          52.00       204.88
 1183.32        2957.00           1316          46.00       178.73
 1183.35        2957.25           1319          40.00       152.57
 1183.38        2957.50           1322          54.00       213.60
 1183.41        2957.75           1326          58.00       231.04
 1183.44        2958.00           1329          55.00       217.96
 1183.47        2958.25           1332          49.00       191.81
 1183.50        2958.50           1336          52.00       204.88
 1183.53        2958.75           1339          61.00       244.12
 1183.56        2959.00           1342          54.00       213.60
 1183.60        2959.25           1346          61.00       244.12
 1183.63        2959.50           1349          67.00       270.27
 1183.66        2959.75           1352          79.00       322.58
 1183.69        2960.00           1356         104.00       431.57
 1183.72        2960.25           1359         137.00       575.42
 1183.75        2960.50           1362         181.00       767.24
 1183.78        2960.75           1366         213.00       906.74
 1183.81        2961.00           1369         242.00      1033.16
 1183.84        2961.25           1372         303.00      1299.09
 1183.87        2961.50           1376         341.00      1464.76
 1183.90        2961.75           1379         468.00      2018.43
 1183.94        2962.00           1382         965.00      4185.36
 1183.97        2962.25           1386        2311.00     10055.34
 1184.00        2962.50           1389        3525.00     15351.45
 1184.03        2962.75           1392        4768.00     20775.81
 1184.06        2963.00           1396        6474.00     28223.54
 1184.09        2963.25           1399        7648.00     33350.70
 1184.12        2963.50           1402        8962.00     39091.15
 1184.15        2963.75           1406       10706.00     46713.20
 1184.18        2964.00           1409       12034.00     52519.48
 1184.21        2964.25           1412       13250.00     57837.85
 1184.24        2964.50           1416       15006.00     65520.99
 1184.28        2964.75           1419       16236.00     70904.81
 1184.31        2965.00           1422       17729.00     77442.13
 1184.34        2965.25           1426       19339.00     84494.65
 1184.37        2965.50           1429       20525.00     89691.76
 1184.40        2965.75           1432       21793.00     95249.99
 1184.43        2966.00           1436       23351.00    102082.00
 1184.46        2966.25           1439       24671.00    107872.50
 1184.49        2966.50           1442       25618.00    112028.00
 1184.53        2966.75           1446       27046.00    118296.10
 1184.56        2967.00           1449       27378.00    119753.80
 1184.59        2967.25           1452       27666.00    121018.40
 1184.62        2967.50           1456       27574.00    120614.40
 1184.65        2967.75           1459       27545.00    120487.00
 1184.68        2968.00           1462       27439.00    120021.60
 1184.71        2968.25           1466       26626.00    116452.30
 1184.74        2968.50           1469       25435.00    111224.90
 1184.77        2968.75           1472       24356.00    106490.50
 1184.80        2969.00           1476       22772.00     99542.68
 1184.84        2969.25           1479       21482.00     93886.56
 1184.87        2969.50           1482       20287.00     88648.71
 1184.90        2969.75           1486       18685.00     81629.48
 1184.93        2970.00           1489       17522.00     76535.60
 1184.96        2970.25           1492       16201.00     70751.59
 1184.99        2970.50           1496       14396.00     62851.62
 1185.02        2970.75           1499       13089.00     57133.59
 1185.05        2971.00           1502       11773.00     51378.18
 1185.08        2971.25           1506       10089.00     44016.24
 1185.11        2971.50           1509        8867.00     38676.06
 1185.15        2971.75           1513        7232.00     31533.74
 1185.18        2972.00           1516        5955.00     25957.43
 1185.21        2972.25           1519        4789.00     20867.46
 1185.24        2972.50           1523        3145.00     13693.51
 1185.27        2972.75           1526        1905.00      8284.54
 1185.30        2973.00           1529         906.00      3928.10
 1185.33        2973.25           1533         349.00      1499.63
 1185.36        2973.50           1536         252.00      1076.76
 1185.39        2973.75           1539         214.00       911.10
 1185.42        2974.00           1543         181.00       767.24
 1185.45        2974.25           1546         120.00       501.32
 1185.49        2974.50           1549         106.00       440.28
 1185.52        2974.75           1553          77.00       313.87
 1185.55        2975.00           1556          63.00       252.84
 1185.58        2975.25           1559          56.00       222.32
 1185.61        2975.50           1563          49.00       191.81
 1185.64        2975.75           1566          55.00       217.96
 1185.67        2976.00           1569          50.00       196.17
 1185.70        2976.25           1573          53.00       209.24
 1185.73        2976.50           1576          44.00       170.01
 1185.76        2976.75           1579          49.00       191.81
 1185.79        2977.00           1583          41.00       156.93
 1185.83        2977.25           1586          51.00       200.52
 1185.86        2977.50           1590          48.00       187.45
 1185.89        2977.75           1593          48.00       187.45
 1185.92        2978.00           1596          45.00       174.37
 1185.95        2978.25           1600          50.00       196.17
 1185.98        2978.50           1603          41.00       156.93
 1186.01        2978.75           1606          46.00       178.73
 1186.04        2979.00           1610          50.00       196.17
 1186.07        2979.25           1613          46.00       178.73
 1186.10        2979.50           1616          46.00       178.73
 1186.13        2979.75           1620          49.00       191.81
 1186.16        2980.00           1623          52.00       204.88
 1186.20        2980.25           1626          42.00       161.29
 1186.23        2980.50           1630          48.00       187.45
 1186.26        2980.75           1633          41.00       156.93
 1186.29        2981.00           1637          52.00       204.88
 1186.32        2981.25           1640          43.00       165.65
 1186.35        2981.50           1643          55.00       217.96
 1186.38        2981.75           1647          53.00       209.24
 1186.41        2982.00           1650          49.00       191.81
 1186.44        2982.25           1653          58.00       231.04
 1186.47        2982.50           1657          39.00       148.21
 1186.50        2982.75           1660          48.00       187.45
 1186.54        2983.00           1663          45.00       174.37
 1186.57        2983.25           1667          49.00       191.81
 1186.60        2983.50           1670          44.00       170.01
 1186.63        2983.75           1673          50.00       196.17
 1186.66        2984.00           1677          44.00       170.01
HS scan finished at 19:46:53
end
