************************************************************
  HS Scan of (1) Internal mercury lamp
************************************************************
Integration time is 0.2294 seconds per sample
dh160917Manchester 53.47 2.23 2.804185pr1000
************************************************************
Dead Time -------------------------  3E-08 
Number of Cycles Used -------------  4 
Starting Wavelength (Angstroms) ---  2950 
Final Wavelength (Angstoms) -------  2984 
Wavelength Increment (Angstroms) --  .25 
Filter Wheel #1 Position ---------- (1) Ground quartz diffuser (ND=2.32)
Filter Wheel #2 Position ---------- (1) Neutral Density 0.494



************************************************************
HS scan start time = 02:19:12
Dark Count =  6.5 


Time (GMT)  Wavelength (Ang)  Step Number  Raw Counts  Counts/Second

  139.57        2950.00           1222          79.00       316.04
  139.63        2950.25           1226          74.00       294.25
  139.67        2950.50           1229          65.00       255.02
  139.70        2950.75           1232          79.00       316.04
  139.73        2951.00           1236          70.00       276.81
  139.76        2951.25           1239          70.00       276.81
  139.79        2951.50           1242          71.00       281.17
  139.82        2951.75           1246          73.00       289.89
  139.85        2952.00           1249          77.00       307.33
  139.88        2952.25           1252          66.00       259.37
  139.91        2952.50           1256          78.00       311.69
  139.94        2952.75           1259          73.00       289.89
  139.97        2953.00           1262          74.00       294.25
  140.01        2953.25           1266          71.00       281.17
  140.04        2953.50           1269          75.00       298.61
  140.07        2953.75           1272          82.00       329.12
  140.10        2954.00           1276          76.00       302.97
  140.13        2954.25           1279          68.00       268.09
  140.16        2954.50           1282          67.00       263.73
  140.19        2954.75           1286          70.00       276.81
  140.22        2955.00           1289          73.00       289.89
  140.25        2955.25           1292          71.00       281.17
  140.28        2955.50           1296          73.00       289.89
  140.31        2955.75           1299          69.00       272.45
  140.34        2956.00           1302          69.00       272.45
  140.37        2956.25           1306          74.00       294.25
  140.40        2956.50           1309          74.00       294.25
  140.44        2956.75           1312          75.00       298.61
  140.47        2957.00           1316          77.00       307.33
  140.50        2957.25           1319          73.00       289.89
  140.53        2957.50           1322          69.00       272.45
  140.56        2957.75           1326          72.00       285.53
  140.59        2958.00           1329          75.00       298.61
  140.62        2958.25           1332          76.00       302.97
  140.65        2958.50           1336          73.00       289.89
  140.68        2958.75           1339          71.00       281.17
  140.71        2959.00           1342          74.00       294.25
  140.74        2959.25           1346          83.00       333.48
  140.77        2959.50           1349          71.00       281.17
  140.80        2959.75           1352          89.00       359.64
  140.84        2960.00           1356         116.00       477.34
  140.87        2960.25           1359         146.00       608.12
  140.90        2960.50           1362         175.00       734.54
  140.93        2960.75           1366         244.00      1035.34
  140.96        2961.00           1369         277.00      1179.20
  140.99        2961.25           1372         318.00      1357.95
  141.02        2961.50           1376         391.00      1676.20
  141.05        2961.75           1379         528.00      2273.48
  141.08        2962.00           1382        1008.00      4366.31
  141.11        2962.25           1386        2638.00     11475.18
  141.14        2962.50           1389        4195.00     18268.51
  141.17        2962.75           1392        5641.00     24580.02
  141.20        2963.00           1396        7763.00     33846.47
  141.23        2963.25           1399        9284.00     40491.62
  141.26        2963.50           1402       10804.00     47135.05
  141.29        2963.75           1406       12899.00     56295.96
  141.33        2964.00           1409       14640.00     63912.76
  141.36        2964.25           1412       16204.00     70758.16
  141.39        2964.50           1416       18376.00     80269.35
  141.42        2964.75           1419       20076.00     87717.46
  141.45        2965.00           1422       21816.00     95344.26
  141.48        2965.25           1426       23811.00    104093.10
  141.51        2965.50           1429       25383.00    110990.10
  141.54        2965.75           1432       27114.00    118588.10
  141.57        2966.00           1436       29136.00    127467.80
  141.61        2966.25           1439       30811.00    134827.20
  141.64        2966.50           1442       32185.00    140866.50
  141.67        2966.75           1446       33801.00    147972.40
  141.70        2967.00           1449       34501.00    151051.30
  141.73        2967.25           1452       34581.00    151403.20
  141.76        2967.50           1456       34524.00    151152.50
  141.79        2967.75           1459       34492.00    151011.70
  141.82        2968.00           1462       34298.00    150158.40
  141.85        2968.25           1466       33446.00    146411.10
  141.88        2968.50           1469       32544.00    142444.80
  141.92        2968.75           1472       31161.00    136365.40
  141.95        2969.00           1476       28821.00    126084.10
  141.98        2969.25           1479       27489.00    120234.60
  142.01        2969.50           1482       25971.00    113570.70
  142.04        2969.75           1486       23881.00    104400.10
  142.07        2970.00           1489       22269.00     97330.43
  142.10        2970.25           1492       20714.00     90513.54
  142.13        2970.50           1496       18564.00     81092.87
  142.16        2970.75           1499       16947.00     74011.15
  142.20        2971.00           1502       15262.00     66634.81
  142.23        2971.25           1506       13038.00     56903.96
  142.26        2971.50           1509       11471.00     50051.12
  142.29        2971.75           1513        9367.00     40854.32
  142.32        2972.00           1516        7685.00     33505.76
  142.35        2972.25           1519        6159.00     26841.58
  142.38        2972.50           1523        4146.00     18054.68
  142.41        2972.75           1526        2659.00     11566.79
  142.44        2973.00           1529        1342.00      5822.73
  142.47        2973.25           1533         505.00      2173.20
  142.50        2973.50           1536         353.00      1510.53
  142.54        2973.75           1539         301.00      1283.83
  142.57        2974.00           1543         255.00      1083.30
  142.60        2974.25           1546         191.00       804.29
  142.63        2974.50           1549         157.00       656.07
  142.66        2974.75           1553         109.00       446.82
  142.69        2975.00           1556          99.00       403.23
  142.72        2975.25           1559          72.00       285.53
  142.75        2975.50           1563          70.00       276.81
  142.78        2975.75           1566          77.00       307.33
  142.81        2976.00           1569          63.00       246.30
  142.84        2976.25           1573          73.00       289.89
  142.87        2976.50           1576          67.00       263.73
  142.90        2976.75           1579          73.00       289.89
  142.94        2977.00           1583          73.00       289.89
  142.97        2977.25           1586          63.00       246.30
  143.00        2977.50           1590          63.00       246.30
  143.03        2977.75           1593          63.00       246.30
  143.06        2978.00           1596          69.00       272.45
  143.09        2978.25           1600          80.00       320.40
  143.12        2978.50           1603          76.00       302.97
  143.15        2978.75           1606          68.00       268.09
  143.18        2979.00           1610          69.00       272.45
  143.21        2979.25           1613          83.00       333.48
  143.24        2979.50           1616          75.00       298.61
  143.27        2979.75           1620          65.00       255.02
  143.30        2980.00           1623          78.00       311.69
  143.33        2980.25           1626          67.00       263.73
  143.37        2980.50           1630          69.00       272.45
  143.40        2980.75           1633          63.00       246.30
  143.43        2981.00           1637          74.00       294.25
  143.46        2981.25           1640          59.00       228.86
  143.49        2981.50           1643          71.00       281.17
  143.52        2981.75           1647          64.00       250.66
  143.55        2982.00           1650          66.00       259.37
  143.58        2982.25           1653          64.00       250.66
  143.61        2982.50           1657          66.00       259.37
  143.64        2982.75           1660          62.00       241.94
  143.67        2983.00           1663          67.00       263.73
  143.71        2983.25           1667          79.00       316.04
  143.74        2983.50           1670          65.00       255.02
  143.77        2983.75           1673          64.00       250.66
  143.80        2984.00           1677          72.00       285.53
HS scan finished at 02:24:01
end
************************************************************
  HS Scan of (1) Internal mercury lamp
************************************************************
Integration time is 0.2294 seconds per sample
dh160917Manchester 53.47 2.23 2.804185pr1000
************************************************************
Dead Time -------------------------  3E-08 
Number of Cycles Used -------------  4 
Starting Wavelength (Angstroms) ---  2950 
Final Wavelength (Angstoms) -------  2984 
Wavelength Increment (Angstroms) --  .25 
Filter Wheel #1 Position ---------- (1) Ground quartz diffuser (ND=2.32)
Filter Wheel #2 Position ---------- (1) Neutral Density 0.494



************************************************************
HS scan start time = 19:12:01
Dark Count =  7.2 


Time (GMT)  Wavelength (Ang)  Step Number  Raw Counts  Counts/Second

 1152.39        2950.00           1222          73.00       286.84
 1152.45        2950.25           1226          72.00       282.48
 1152.48        2950.50           1229          80.00       317.35
 1152.51        2950.75           1232          74.00       291.20
 1152.55        2951.00           1236          85.00       339.15
 1152.58        2951.25           1239          84.00       334.79
 1152.61        2951.50           1242          77.00       304.27
 1152.64        2951.75           1246          76.00       299.92
 1152.67        2952.00           1249          75.00       295.56
 1152.70        2952.25           1252          81.00       321.71
 1152.73        2952.50           1256          86.00       343.51
 1152.76        2952.75           1259          81.00       321.71
 1152.79        2953.00           1262          70.00       273.76
 1152.82        2953.25           1266          81.00       321.71
 1152.85        2953.50           1269          79.00       312.99
 1152.88        2953.75           1272          79.00       312.99
 1152.91        2954.00           1276          76.00       299.92
 1152.95        2954.25           1279          71.00       278.12
 1152.98        2954.50           1282          76.00       299.92
 1153.01        2954.75           1286          75.00       295.56
 1153.04        2955.00           1289          77.00       304.27
 1153.07        2955.25           1292          72.00       282.48
 1153.10        2955.50           1296          74.00       291.20
 1153.13        2955.75           1299          72.00       282.48
 1153.16        2956.00           1302          78.00       308.63
 1153.19        2956.25           1306          69.00       269.40
 1153.22        2956.50           1309          74.00       291.20
 1153.25        2956.75           1312          68.00       265.04
 1153.29        2957.00           1316          77.00       304.27
 1153.32        2957.25           1319          74.00       291.20
 1153.35        2957.50           1322          70.00       273.76
 1153.38        2957.75           1326          72.00       282.48
 1153.41        2958.00           1329          77.00       304.27
 1153.44        2958.25           1332          79.00       312.99
 1153.47        2958.50           1336          86.00       343.51
 1153.50        2958.75           1339          71.00       278.12
 1153.53        2959.00           1342          81.00       321.71
 1153.56        2959.25           1346          80.00       317.35
 1153.59        2959.50           1349          82.00       326.07
 1153.63        2959.75           1352         111.00       452.49
 1153.66        2960.00           1356         151.00       626.86
 1153.69        2960.25           1359         187.00       783.80
 1153.72        2960.50           1362         200.00       840.47
 1153.75        2960.75           1366         265.00      1123.84
 1153.78        2961.00           1369         319.00      1359.25
 1153.81        2961.25           1372         342.00      1459.52
 1153.84        2961.50           1376         455.00      1952.16
 1153.87        2961.75           1379         679.00      2928.77
 1153.90        2962.00           1382        1395.00      6050.79
 1153.93        2962.25           1386        3239.00     14094.02
 1153.96        2962.50           1389        4727.00     20587.25
 1154.00        2962.75           1392        6305.00     27476.00
 1154.03        2963.00           1396        8214.00     35813.52
 1154.06        2963.25           1399        9805.00     42765.39
 1154.09        2963.50           1402       11431.00     49873.17
 1154.12        2963.75           1406       13584.00     59289.32
 1154.15        2964.00           1409       15049.00     65699.56
 1154.18        2964.25           1412       16759.00     73184.93
 1154.21        2964.50           1416       18848.00     82333.90
 1154.24        2964.75           1419       20465.00     89419.15
 1154.27        2965.00           1422       22285.00     97397.52
 1154.30        2965.25           1426       24519.00    107196.00
 1154.33        2965.50           1429       26267.00    114866.80
 1154.37        2965.75           1432       27650.00    120938.40
 1154.40        2966.00           1436       30011.00    131308.80
 1154.43        2966.25           1439       31318.00    137052.30
 1154.46        2966.50           1442       32564.00    142529.70
 1154.49        2966.75           1446       33960.00    148668.60
 1154.52        2967.00           1449       34233.00    149869.40
 1154.55        2967.25           1452       34385.00    150538.00
 1154.58        2967.50           1456       34279.00    150071.70
 1154.61        2967.75           1459       34221.00    149816.60
 1154.64        2968.00           1462       34075.00    149174.40
 1154.67        2968.25           1466       32856.00    143813.60
 1154.71        2968.50           1469       31496.00    137834.70
 1154.74        2968.75           1472       29856.00    130627.70
 1154.77        2969.00           1476       27912.00    122088.90
 1154.80        2969.25           1479       26502.00    115898.40
 1154.83        2969.50           1482       24940.00    109043.20
 1154.86        2969.75           1486       22914.00    100155.80
 1154.89        2970.00           1489       21357.00     93328.96
 1154.92        2970.25           1492       19902.00     86951.90
 1154.95        2970.50           1496       17636.00     77025.21
 1154.98        2970.75           1499       16016.00     69932.09
 1155.02        2971.00           1502       14424.00     62964.51
 1155.05        2971.25           1506       12256.00     53480.69
 1155.08        2971.50           1509       10718.00     46756.04
 1155.11        2971.75           1513        8552.00     37290.17
 1155.14        2972.00           1516        6998.00     30502.18
 1155.17        2972.25           1519        5450.00     23743.15
 1155.20        2972.50           1523        3425.00     14905.53
 1155.23        2972.75           1526        2047.00      8894.27
 1155.26        2973.00           1529         887.00      3835.66
 1155.29        2973.25           1533         429.00      1838.81
 1155.32        2973.50           1536         338.00      1442.09
 1155.35        2973.75           1539         273.00      1158.72
 1155.38        2974.00           1543         223.00       940.74
 1155.41        2974.25           1546         160.00       666.10
 1155.45        2974.50           1549         122.00       500.44
 1155.48        2974.75           1553          99.00       400.18
 1155.51        2975.00           1556          84.00       334.79
 1155.54        2975.25           1559          79.00       312.99
 1155.57        2975.50           1563          76.00       299.92
 1155.60        2975.75           1566          71.00       278.12
 1155.63        2976.00           1569          76.00       299.92
 1155.66        2976.25           1573          67.00       260.68
 1155.69        2976.50           1576          78.00       308.63
 1155.72        2976.75           1579          72.00       282.48
 1155.75        2977.00           1583          69.00       269.40
 1155.78        2977.25           1586          85.00       339.15
 1155.81        2977.50           1590          75.00       295.56
 1155.85        2977.75           1593          65.00       251.96
 1155.88        2978.00           1596          78.00       308.63
 1155.91        2978.25           1600          65.00       251.96
 1155.94        2978.50           1603          67.00       260.68
 1155.97        2978.75           1606          67.00       260.68
 1156.00        2979.00           1610          64.00       247.60
 1156.03        2979.25           1613          64.00       247.60
 1156.06        2979.50           1616          77.00       304.27
 1156.09        2979.75           1620          70.00       273.76
 1156.12        2980.00           1623          72.00       282.48
 1156.15        2980.25           1626          60.00       230.17
 1156.18        2980.50           1630          69.00       269.40
 1156.21        2980.75           1633          69.00       269.40
 1156.25        2981.00           1637          59.00       225.81
 1156.28        2981.25           1640          69.00       269.40
 1156.31        2981.50           1643          70.00       273.76
 1156.34        2981.75           1647          63.00       243.25
 1156.37        2982.00           1650          70.00       273.76
 1156.40        2982.25           1653          62.00       238.89
 1156.43        2982.50           1657          74.00       291.20
 1156.46        2982.75           1660          69.00       269.40
 1156.49        2983.00           1663          62.00       238.89
 1156.52        2983.25           1667          65.00       251.96
 1156.55        2983.50           1670          66.00       256.32
 1156.58        2983.75           1673          65.00       251.96
 1156.61        2984.00           1677          74.00       291.20
HS scan finished at 19:16:50
end
