************************************************************
  HS Scan of (1) Internal mercury lamp
************************************************************
Integration time is 0.2294 seconds per sample
dh090918Manchester 53.47 2.23 2.804185pr1000
************************************************************
Dead Time -------------------------  3E-08 
Number of Cycles Used -------------  4 
Starting Wavelength (Angstroms) ---  2950 
Final Wavelength (Angstoms) -------  2984 
Wavelength Increment (Angstroms) --  .25 
Filter Wheel #1 Position ---------- (1) Ground quartz diffuser (ND=2.32)
Filter Wheel #2 Position ---------- (1) Neutral Density 0.494



************************************************************
HS scan start time = 01:34:58
Dark Count =  5 


Time (GMT)  Wavelength (Ang)  Step Number  Raw Counts  Counts/Second

   95.34        2950.00           1222          52.00       204.88
   95.40        2950.25           1226          47.00       183.09
   95.43        2950.50           1229          56.00       222.32
   95.47        2950.75           1232          54.00       213.60
   95.50        2951.00           1236          52.00       204.88
   95.53        2951.25           1239          58.00       231.04
   95.56        2951.50           1242          53.00       209.24
   95.59        2951.75           1246          55.00       217.96
   95.62        2952.00           1249          54.00       213.60
   95.65        2952.25           1252          58.00       231.04
   95.68        2952.50           1256          58.00       231.04
   95.71        2952.75           1259          52.00       204.88
   95.74        2953.00           1262          57.00       226.68
   95.77        2953.25           1266          56.00       222.32
   95.81        2953.50           1269          62.00       248.48
   95.84        2953.75           1272          52.00       204.88
   95.87        2954.00           1276          48.00       187.45
   95.90        2954.25           1279          46.00       178.73
   95.93        2954.50           1282          52.00       204.88
   95.96        2954.75           1286          51.00       200.52
   95.99        2955.00           1289          52.00       204.88
   96.02        2955.25           1292          51.00       200.52
   96.05        2955.50           1296          46.00       178.73
   96.08        2955.75           1299          53.00       209.24
   96.11        2956.00           1302          55.00       217.96
   96.14        2956.25           1306          54.00       213.60
   96.17        2956.50           1309          53.00       209.24
   96.20        2956.75           1312          49.00       191.81
   96.24        2957.00           1316          52.00       204.88
   96.27        2957.25           1319          57.00       226.68
   96.30        2957.50           1322          50.00       196.17
   96.33        2957.75           1326          48.00       187.45
   96.36        2958.00           1329          54.00       213.60
   96.39        2958.25           1332          60.00       239.76
   96.42        2958.50           1336          49.00       191.81
   96.45        2958.75           1339          51.00       200.52
   96.48        2959.00           1342          48.00       187.45
   96.51        2959.25           1346          46.00       178.73
   96.54        2959.50           1349          59.00       235.40
   96.57        2959.75           1352          70.00       283.35
   96.60        2960.00           1356         103.00       427.21
   96.63        2960.25           1359         133.00       557.99
   96.67        2960.50           1362         168.00       710.56
   96.70        2960.75           1366         196.00       832.63
   96.73        2961.00           1369         228.00       972.13
   96.76        2961.25           1372         269.00      1150.87
   96.79        2961.50           1376         324.00      1390.64
   96.82        2961.75           1379         444.00      1913.80
   96.85        2962.00           1382         920.00      3989.14
   96.88        2962.25           1386        2178.00      9475.23
   96.91        2962.50           1389        3449.00     15019.85
   96.94        2962.75           1392        4642.00     20225.87
   96.98        2963.00           1396        6159.00     26848.12
   97.01        2963.25           1399        7403.00     32280.60
   97.04        2963.50           1402        8732.00     38086.22
   97.07        2963.75           1406       10366.00     45226.98
   97.10        2964.00           1409       11666.00     50910.31
   97.13        2964.25           1412       13156.00     57426.66
   97.16        2964.50           1416       14834.00     64768.27
   97.19        2964.75           1419       15942.00     69617.78
   97.22        2965.00           1422       17256.00     75370.75
   97.25        2965.25           1426       18966.00     82860.47
   97.29        2965.50           1429       20176.00     88162.25
   97.32        2965.75           1432       21371.00     93399.97
   97.35        2966.00           1436       23216.00    101489.90
   97.38        2966.25           1439       24381.00    106600.20
   97.41        2966.50           1442       25305.00    110654.40
   97.44        2966.75           1446       26840.00    117391.80
   97.47        2967.00           1449       27127.00    118651.80
   97.50        2967.25           1452       27293.00    119380.60
   97.53        2967.50           1456       27061.00    118362.00
   97.56        2967.75           1459       27195.00    118950.30
   97.60        2968.00           1462       27005.00    118116.20
   97.63        2968.25           1466       26327.00    115139.90
   97.66        2968.50           1469       25204.00    110211.20
   97.69        2968.75           1472       24038.00    105095.40
   97.72        2969.00           1476       22301.00     97477.32
   97.75        2969.25           1479       21189.00     92602.14
   97.78        2969.50           1482       20018.00     87469.86
   97.81        2969.75           1486       18394.00     80354.76
   97.84        2970.00           1489       17114.00     74748.95
   97.87        2970.25           1492       15746.00     68759.83
   97.90        2970.50           1496       14095.00     61534.60
   97.94        2970.75           1499       12919.00     56390.00
   97.97        2971.00           1502       11538.00     50350.63
   98.00        2971.25           1506        9888.00     43137.74
   98.03        2971.50           1509        8655.00     37749.79
   98.06        2971.75           1513        7093.00     30926.68
   98.09        2972.00           1516        5791.00     25241.43
   98.12        2972.25           1519        4547.00     19811.25
   98.15        2972.50           1523        3087.00     13440.47
   98.18        2972.75           1526        1802.00      7835.32
   98.22        2973.00           1529         748.00      3239.20
   98.25        2973.25           1533         334.00      1434.24
   98.28        2973.50           1536         233.00       993.93
   98.31        2973.75           1539         206.00       876.22
   98.34        2974.00           1543         177.00       749.80
   98.37        2974.25           1546         129.00       540.55
   98.40        2974.50           1549          91.00       374.90
   98.43        2974.75           1553          73.00       296.43
   98.46        2975.00           1556          55.00       217.96
   98.49        2975.25           1559          51.00       200.52
   98.52        2975.50           1563          53.00       209.24
   98.55        2975.75           1566          47.00       183.09
   98.58        2976.00           1569          53.00       209.24
   98.62        2976.25           1573          50.00       196.17
   98.65        2976.50           1576          40.00       152.57
   98.68        2976.75           1579          58.00       231.04
   98.71        2977.00           1583          49.00       191.81
   98.74        2977.25           1586          47.00       183.09
   98.77        2977.50           1590          48.00       187.45
   98.80        2977.75           1593          54.00       213.60
   98.83        2978.00           1596          50.00       196.17
   98.86        2978.25           1600          49.00       191.81
   98.89        2978.50           1603          54.00       213.60
   98.92        2978.75           1606          58.00       231.04
   98.95        2979.00           1610          53.00       209.24
   98.98        2979.25           1613          47.00       183.09
   99.01        2979.50           1616          48.00       187.45
   99.04        2979.75           1620          49.00       191.81
   99.08        2980.00           1623          44.00       170.01
   99.11        2980.25           1626          52.00       204.88
   99.14        2980.50           1630          46.00       178.73
   99.17        2980.75           1633          50.00       196.17
   99.20        2981.00           1637          44.00       170.01
   99.23        2981.25           1640          57.00       226.68
   99.26        2981.50           1643          43.00       165.65
   99.29        2981.75           1647          49.00       191.81
   99.32        2982.00           1650          55.00       217.96
   99.35        2982.25           1653          43.00       165.65
   99.38        2982.50           1657          47.00       183.09
   99.41        2982.75           1660          43.00       165.65
   99.44        2983.00           1663          44.00       170.01
   99.47        2983.25           1667          43.00       165.65
   99.50        2983.50           1670          42.00       161.29
   99.53        2983.75           1673          49.00       191.81
   99.56        2984.00           1677          46.00       178.73
HS scan finished at 01:39:47
end
************************************************************
  HS Scan of (1) Internal mercury lamp
************************************************************
Integration time is 0.2294 seconds per sample
dh090918Manchester 53.47 2.23 2.857833pr1000
************************************************************
Dead Time -------------------------  3E-08 
Number of Cycles Used -------------  4 
Starting Wavelength (Angstroms) ---  2950 
Final Wavelength (Angstoms) -------  2984 
Wavelength Increment (Angstroms) --  .25 
Filter Wheel #1 Position ---------- (1) Ground quartz diffuser (ND=2.32)
Filter Wheel #2 Position ---------- (1) Neutral Density 0.494



************************************************************
HS scan start time = 19:42:02
Dark Count =  6.2 


Time (GMT)  Wavelength (Ang)  Step Number  Raw Counts  Counts/Second

 1182.40        2950.00           1222          44.00       164.78
 1182.46        2950.25           1226          48.00       182.22
 1182.49        2950.50           1229          53.00       204.01
 1182.53        2950.75           1232          47.00       177.86
 1182.56        2951.00           1236          54.00       208.37
 1182.59        2951.25           1239          57.00       221.45
 1182.62        2951.50           1242          51.00       195.29
 1182.65        2951.75           1246          59.00       230.17
 1182.68        2952.00           1249          65.00       256.32
 1182.71        2952.25           1252          52.00       199.65
 1182.74        2952.50           1256          55.00       212.73
 1182.77        2952.75           1259          54.00       208.37
 1182.80        2953.00           1262          50.00       190.93
 1182.83        2953.25           1266          58.00       225.81
 1182.86        2953.50           1269          47.00       177.86
 1182.89        2953.75           1272          48.00       182.22
 1182.93        2954.00           1276          59.00       230.17
 1182.96        2954.25           1279          43.00       160.42
 1182.99        2954.50           1282          50.00       190.93
 1183.02        2954.75           1286          49.00       186.57
 1183.05        2955.00           1289          64.00       251.96
 1183.08        2955.25           1292          64.00       251.96
 1183.11        2955.50           1296          52.00       199.65
 1183.14        2955.75           1299          50.00       190.93
 1183.17        2956.00           1302          52.00       199.65
 1183.20        2956.25           1306          52.00       199.65
 1183.23        2956.50           1309          52.00       199.65
 1183.26        2956.75           1312          52.00       199.65
 1183.29        2957.00           1316          54.00       208.37
 1183.32        2957.25           1319          53.00       204.01
 1183.35        2957.50           1322          57.00       221.45
 1183.38        2957.75           1326          51.00       195.29
 1183.41        2958.00           1329          53.00       204.01
 1183.45        2958.25           1332          48.00       182.22
 1183.48        2958.50           1336          56.00       217.09
 1183.51        2958.75           1339          58.00       225.81
 1183.54        2959.00           1342          54.00       208.37
 1183.57        2959.25           1346          55.00       212.73
 1183.60        2959.50           1349          56.00       217.09
 1183.63        2959.75           1352          66.00       260.68
 1183.66        2960.00           1356          81.00       326.07
 1183.69        2960.25           1359         102.00       417.62
 1183.72        2960.50           1362         126.00       522.24
 1183.75        2960.75           1366         169.00       709.69
 1183.78        2961.00           1369         209.00       884.07
 1183.82        2961.25           1372         248.00      1054.09
 1183.85        2961.50           1376         302.00      1289.50
 1183.88        2961.75           1379         407.00      1747.26
 1183.91        2962.00           1382         916.00      3966.47
 1183.94        2962.25           1386        2204.00      9583.40
 1183.97        2962.50           1389        3497.00     15224.04
 1184.00        2962.75           1392        4681.00     20390.85
 1184.03        2963.00           1396        6219.00     27104.86
 1184.06        2963.25           1399        7466.00     32550.52
 1184.09        2963.50           1402        8900.00     38815.01
 1184.12        2963.75           1406       10597.00     46231.48
 1184.16        2964.00           1409       11872.00     51805.82
 1184.19        2964.25           1412       13119.00     57259.57
 1184.22        2964.50           1416       14975.00     65380.08
 1184.25        2964.75           1419       16400.00     71617.53
 1184.28        2965.00           1422       17609.00     76911.35
 1184.31        2965.25           1426       19395.00     84734.75
 1184.34        2965.50           1429       20496.00     89559.41
 1184.37        2965.75           1432       21740.00     95012.38
 1184.40        2966.00           1436       23539.00    102901.30
 1184.43        2966.25           1439       24630.00    107687.40
 1184.47        2966.50           1442       25693.00    112351.90
 1184.50        2966.75           1446       26976.00    117983.60
 1184.53        2967.00           1449       27430.00    119976.90
 1184.56        2967.25           1452       27429.00    119972.40
 1184.59        2967.50           1456       27400.00    119845.10
 1184.62        2967.75           1459       27398.00    119836.30
 1184.65        2968.00           1462       27262.00    119239.20
 1184.68        2968.25           1466       26433.00    115599.90
 1184.71        2968.50           1469       25475.00    111395.20
 1184.74        2968.75           1472       24348.00    106450.10
 1184.77        2969.00           1476       22602.00     98791.94
 1184.80        2969.25           1479       21300.00     93083.46
 1184.84        2969.50           1482       20209.00     88301.61
 1184.87        2969.75           1486       18442.00     80559.77
 1184.90        2970.00           1489       17111.00     74730.56
 1184.93        2970.25           1492       15946.00     69630.04
 1184.96        2970.50           1496       14266.00     62277.54
 1184.99        2970.75           1499       12897.00     56288.52
 1185.02        2971.00           1502       11819.00     51574.07
 1185.05        2971.25           1506       10063.00     43897.35
 1185.08        2971.50           1509        8827.00     38496.04
 1185.11        2971.75           1513        7213.00     31445.52
 1185.15        2972.00           1516        6024.00     26253.45
 1185.18        2972.25           1519        4878.00     21250.69
 1185.21        2972.50           1523        3214.00     13989.31
 1185.24        2972.75           1526        1954.00      8493.01
 1185.27        2973.00           1529         945.00      4092.92
 1185.30        2973.25           1533         384.00      1646.99
 1185.33        2973.50           1536         291.00      1241.55
 1185.36        2973.75           1539         261.00      1110.76
 1185.39        2974.00           1543         211.00       892.79
 1185.42        2974.25           1546         146.00       609.43
 1185.45        2974.50           1549         132.00       548.40
 1185.49        2974.75           1553         102.00       417.62
 1185.52        2975.00           1556          74.00       295.56
 1185.55        2975.25           1559          68.00       269.40
 1185.58        2975.50           1563          55.00       212.73
 1185.61        2975.75           1566          45.00       169.14
 1185.64        2976.00           1569          59.00       230.17
 1185.67        2976.25           1573          51.00       195.29
 1185.70        2976.50           1576          53.00       204.01
 1185.73        2976.75           1579          43.00       160.42
 1185.76        2977.00           1583          47.00       177.86
 1185.79        2977.25           1586          52.00       199.65
 1185.82        2977.50           1590          45.00       169.14
 1185.86        2977.75           1593          53.00       204.01
 1185.89        2978.00           1596          49.00       186.57
 1185.92        2978.25           1600          51.00       195.29
 1185.95        2978.50           1603          51.00       195.29
 1185.98        2978.75           1606          55.00       212.73
 1186.01        2979.00           1610          52.00       199.65
 1186.04        2979.25           1613          48.00       182.22
 1186.07        2979.50           1616          42.00       156.06
 1186.10        2979.75           1620          50.00       190.93
 1186.13        2980.00           1623          44.00       164.78
 1186.16        2980.25           1626          46.00       173.50
 1186.19        2980.50           1630          55.00       212.73
 1186.23        2980.75           1633          51.00       195.29
 1186.26        2981.00           1637          50.00       190.93
 1186.29        2981.25           1640          47.00       177.86
 1186.32        2981.50           1643          41.00       151.70
 1186.35        2981.75           1647          50.00       190.93
 1186.38        2982.00           1650          47.00       177.86
 1186.41        2982.25           1653          49.00       186.57
 1186.44        2982.50           1657          44.00       164.78
 1186.47        2982.75           1660          40.00       147.34
 1186.50        2983.00           1663          49.00       186.57
 1186.53        2983.25           1667          57.00       221.45
 1186.56        2983.50           1670          41.00       151.70
 1186.60        2983.75           1673          47.00       177.86
 1186.63        2984.00           1677          45.00       169.14
HS scan finished at 19:46:51
end
