************************************************************
  HS Scan of (1) Internal mercury lamp
************************************************************
Integration time is 0.2294 seconds per sample
dh080917Manchester 53.47 2.23 2.804185pr1000
************************************************************
Dead Time -------------------------  3E-08 
Number of Cycles Used -------------  4 
Starting Wavelength (Angstroms) ---  2950 
Final Wavelength (Angstoms) -------  2984 
Wavelength Increment (Angstroms) --  .25 
Filter Wheel #1 Position ---------- (1) Ground quartz diffuser (ND=2.32)
Filter Wheel #2 Position ---------- (1) Neutral Density 0.494



************************************************************
HS scan start time = 01:27:43
Dark Count =  5.7 


Time (GMT)  Wavelength (Ang)  Step Number  Raw Counts  Counts/Second

   88.09        2950.00           1222          77.00       310.81
   88.16        2950.25           1226          77.00       310.81
   88.19        2950.50           1229          74.00       297.74
   88.22        2950.75           1232          75.00       302.10
   88.25        2951.00           1236          70.00       280.30
   88.28        2951.25           1239          82.00       332.61
   88.31        2951.50           1242          73.00       293.38
   88.34        2951.75           1246          82.00       332.61
   88.38        2952.00           1249          82.00       332.61
   88.41        2952.25           1252          74.00       297.74
   88.44        2952.50           1256          77.00       310.81
   88.47        2952.75           1259          78.00       315.17
   88.50        2953.00           1262          84.00       341.33
   88.53        2953.25           1266          69.00       275.94
   88.56        2953.50           1269          75.00       302.10
   88.59        2953.75           1272          66.00       262.86
   88.62        2954.00           1276          76.00       306.45
   88.65        2954.25           1279          80.00       323.89
   88.68        2954.50           1282          74.00       297.74
   88.71        2954.75           1286          84.00       341.33
   88.74        2955.00           1289          74.00       297.74
   88.77        2955.25           1292          65.00       258.50
   88.80        2955.50           1296          78.00       315.17
   88.84        2955.75           1299          72.00       289.02
   88.87        2956.00           1302          86.00       350.05
   88.90        2956.25           1306          86.00       350.05
   88.93        2956.50           1309          79.00       319.53
   88.96        2956.75           1312          72.00       289.02
   88.99        2957.00           1316          76.00       306.45
   89.02        2957.25           1319          75.00       302.10
   89.05        2957.50           1322          80.00       323.89
   89.08        2957.75           1326          69.00       275.94
   89.11        2958.00           1329          79.00       319.53
   89.14        2958.25           1332          82.00       332.61
   89.18        2958.50           1336          75.00       302.10
   89.21        2958.75           1339          79.00       319.53
   89.24        2959.00           1342          82.00       332.61
   89.27        2959.25           1346          77.00       310.81
   89.30        2959.50           1349          84.00       341.33
   89.33        2959.75           1352          96.00       393.64
   89.36        2960.00           1356         132.00       550.58
   89.39        2960.25           1359         166.00       698.79
   89.42        2960.50           1362         199.00       842.65
   89.45        2960.75           1366         251.00      1069.35
   89.48        2961.00           1369         295.00      1261.16
   89.51        2961.25           1372         329.00      1409.39
   89.54        2961.50           1376         422.00      1814.83
   89.57        2961.75           1379         539.00      2324.92
   89.61        2962.00           1382         997.00      4321.83
   89.64        2962.25           1386        2602.00     11321.63
   89.67        2962.50           1389        4102.00     17866.15
   89.70        2962.75           1392        5583.00     24330.31
   89.73        2963.00           1396        7718.00     33653.40
   89.76        2963.25           1399        9414.00     41063.20
   89.79        2963.50           1402       11175.00     48760.47
   89.82        2963.75           1406       13258.00     57869.78
   89.85        2964.00           1409       14862.00     64887.74
   89.89        2964.25           1412       16619.00     72578.53
   89.92        2964.50           1416       18835.00     82283.52
   89.95        2964.75           1419       20411.00     89189.07
   89.98        2965.00           1422       22028.00     96277.25
   90.01        2965.25           1426       24144.00    105557.40
   90.04        2965.50           1429       25759.00    112643.80
   90.07        2965.75           1432       27319.00    119491.70
   90.10        2966.00           1436       29559.00    129329.50
   90.13        2966.25           1439       31140.00    136276.60
   90.17        2966.50           1442       32600.00    142694.60
   90.20        2966.75           1446       34192.00    149695.60
   90.23        2967.00           1449       34780.00    152282.20
   90.26        2967.25           1452       34606.00    151516.70
   90.29        2967.50           1456       34737.00    152093.00
   90.32        2967.75           1459       35038.00    153417.20
   90.35        2968.00           1462       34763.00    152207.40
   90.38        2968.25           1466       34029.00    148978.70
   90.41        2968.50           1469       32859.00    143833.40
   90.44        2968.75           1472       31236.00    136698.50
   90.48        2969.00           1476       29183.00    127677.80
   90.51        2969.25           1479       27737.00    121327.10
   90.54        2969.50           1482       25938.00    113429.40
   90.57        2969.75           1486       23651.00    103394.80
   90.60        2970.00           1489       22121.00     96685.01
   90.63        2970.25           1492       20611.00     90065.61
   90.66        2970.50           1496       18478.00     80719.65
   90.69        2970.75           1499       17120.00     74772.16
   90.72        2971.00           1502       15437.00     67404.26
   90.76        2971.25           1506       13359.00     58311.60
   90.79        2971.50           1509       11904.00     51947.94
   90.82        2971.75           1513        9584.00     41806.11
   90.85        2972.00           1516        7823.00     34112.05
   90.88        2972.25           1519        6267.00     27316.62
   90.91        2972.50           1523        4142.00     18040.71
   90.94        2972.75           1526        2678.00     11653.16
   90.97        2973.00           1529        1344.00      5834.94
   91.01        2973.25           1533         525.00      2263.89
   91.04        2973.50           1536         378.00      1623.01
   91.07        2973.75           1539         322.00      1378.87
   91.10        2974.00           1543         263.00      1121.66
   91.13        2974.25           1546         201.00       851.37
   91.16        2974.50           1549         160.00       672.64
   91.19        2974.75           1553         108.00       445.95
   91.22        2975.00           1556         101.00       415.44
   91.25        2975.25           1559          85.00       345.69
   91.28        2975.50           1563          75.00       302.10
   91.31        2975.75           1566          74.00       297.74
   91.35        2976.00           1569          69.00       275.94
   91.38        2976.25           1573          79.00       319.53
   91.41        2976.50           1576          76.00       306.45
   91.44        2976.75           1579          74.00       297.74
   91.47        2977.00           1583          70.00       280.30
   91.50        2977.25           1586          67.00       267.22
   91.53        2977.50           1590          72.00       289.02
   91.56        2977.75           1593          71.00       284.66
   91.59        2978.00           1596          72.00       289.02
   91.62        2978.25           1600          68.00       271.58
   91.66        2978.50           1603          75.00       302.10
   91.69        2978.75           1606          73.00       293.38
   91.72        2979.00           1610          75.00       302.10
   91.75        2979.25           1613          68.00       271.58
   91.78        2979.50           1616          70.00       280.30
   91.81        2979.75           1620          64.00       254.14
   91.84        2980.00           1623          67.00       267.22
   91.87        2980.25           1626          69.00       275.94
   91.90        2980.50           1630          63.00       249.78
   91.93        2980.75           1633          67.00       267.22
   91.96        2981.00           1637          72.00       289.02
   91.99        2981.25           1640          71.00       284.66
   92.02        2981.50           1643          70.00       280.30
   92.05        2981.75           1647          69.00       275.94
   92.08        2982.00           1650          67.00       267.22
   92.12        2982.25           1653          69.00       275.94
   92.15        2982.50           1657          54.00       210.55
   92.18        2982.75           1660          69.00       275.94
   92.21        2983.00           1663          79.00       319.53
   92.24        2983.25           1667          70.00       280.30
   92.27        2983.50           1670          65.00       258.50
   92.30        2983.75           1673          67.00       267.22
   92.33        2984.00           1677          68.00       271.58
HS scan finished at 01:32:33
end
************************************************************
  HS Scan of (1) Internal mercury lamp
************************************************************
Integration time is 0.2294 seconds per sample
dh080917Manchester 53.47 2.23 2.804185pr1000
************************************************************
Dead Time -------------------------  3E-08 
Number of Cycles Used -------------  4 
Starting Wavelength (Angstroms) ---  2950 
Final Wavelength (Angstoms) -------  2984 
Wavelength Increment (Angstroms) --  .25 
Filter Wheel #1 Position ---------- (1) Ground quartz diffuser (ND=2.32)
Filter Wheel #2 Position ---------- (1) Neutral Density 0.494



************************************************************
HS scan start time = 19:42:00
Dark Count =  7.1 


Time (GMT)  Wavelength (Ang)  Step Number  Raw Counts  Counts/Second

 1182.38        2950.00           1222          75.00       295.99
 1182.44        2950.25           1226          82.00       326.51
 1182.47        2950.50           1229          70.00       274.20
 1182.50        2950.75           1232          82.00       326.51
 1182.53        2951.00           1236          82.00       326.51
 1182.56        2951.25           1239          68.00       265.48
 1182.59        2951.50           1242          87.00       348.30
 1182.63        2951.75           1246          78.00       309.07
 1182.66        2952.00           1249          64.00       248.04
 1182.69        2952.25           1252          82.00       326.51
 1182.72        2952.50           1256          84.00       335.23
 1182.75        2952.75           1259          88.00       352.66
 1182.78        2953.00           1262          76.00       300.35
 1182.81        2953.25           1266          80.00       317.79
 1182.84        2953.50           1269          82.00       326.51
 1182.87        2953.75           1272          81.00       322.15
 1182.90        2954.00           1276          87.00       348.30
 1182.93        2954.25           1279          71.00       278.56
 1182.96        2954.50           1282          75.00       295.99
 1183.00        2954.75           1286          80.00       317.79
 1183.03        2955.00           1289          80.00       317.79
 1183.06        2955.25           1292          81.00       322.15
 1183.09        2955.50           1296          83.00       330.87
 1183.12        2955.75           1299          72.00       282.91
 1183.15        2956.00           1302          82.00       326.51
 1183.18        2956.25           1306          79.00       313.43
 1183.21        2956.50           1309          80.00       317.79
 1183.24        2956.75           1312          64.00       248.04
 1183.27        2957.00           1316          82.00       326.51
 1183.30        2957.25           1319          72.00       282.91
 1183.33        2957.50           1322          75.00       295.99
 1183.36        2957.75           1326          83.00       330.87
 1183.39        2958.00           1329          73.00       287.27
 1183.43        2958.25           1332          77.00       304.71
 1183.46        2958.50           1336          86.00       343.94
 1183.49        2958.75           1339          80.00       317.79
 1183.52        2959.00           1342          83.00       330.87
 1183.55        2959.25           1346          98.00       396.26
 1183.58        2959.50           1349          91.00       365.74
 1183.61        2959.75           1352         110.00       448.57
 1183.64        2960.00           1356         126.00       518.32
 1183.67        2960.25           1359         151.00       627.30
 1183.70        2960.50           1362         203.00       853.99
 1183.73        2960.75           1366         258.00      1093.76
 1183.77        2961.00           1369         296.00      1259.42
 1183.80        2961.25           1372         335.00      1429.44
 1183.83        2961.50           1376         416.00      1782.57
 1183.86        2961.75           1379         575.00      2475.77
 1183.89        2962.00           1382        1109.00      4804.09
 1183.92        2962.25           1386        2748.00     11952.41
 1183.95        2962.50           1389        4194.00     18261.53
 1183.98        2962.75           1392        5707.00     24865.54
 1184.01        2963.00           1396        7816.00     34075.36
 1184.04        2963.25           1399        9390.00     40952.20
 1184.07        2963.50           1402       11097.00     48413.33
 1184.10        2963.75           1406       13379.00     58392.97
 1184.14        2964.00           1409       15028.00     65608.09
 1184.17        2964.25           1412       16854.00     73601.31
 1184.20        2964.50           1416       18928.00     82684.80
 1184.23        2964.75           1419       20457.00     89384.53
 1184.26        2965.00           1422       22095.00     96564.88
 1184.29        2965.25           1426       24322.00    106332.10
 1184.32        2965.50           1429       25963.00    113532.90
 1184.35        2965.75           1432       27461.00    120109.00
 1184.38        2966.00           1436       29630.00    129635.30
 1184.41        2966.25           1439       31269.00    136837.40
 1184.45        2966.50           1442       32372.00    141686.00
 1184.48        2966.75           1446       34275.00    150054.60
 1184.51        2967.00           1449       34699.00    151919.70
 1184.54        2967.25           1452       34824.00    152469.60
 1184.57        2967.50           1456       34587.00    151427.00
 1184.60        2967.75           1459       34570.00    151352.20
 1184.63        2968.00           1462       34544.00    151237.80
 1184.66        2968.25           1466       33682.00    147446.30
 1184.69        2968.50           1469       32460.00    142072.90
 1184.73        2968.75           1472       31137.00    136257.30
 1184.76        2969.00           1476       29084.00    127236.70
 1184.79        2969.25           1479       27321.00    119494.30
 1184.82        2969.50           1482       25704.00    112396.20
 1184.85        2969.75           1486       23639.00    103336.00
 1184.88        2970.00           1489       21960.00     95972.96
 1184.91        2970.25           1492       20416.00     89204.84
 1184.94        2970.50           1496       18268.00     79793.66
 1184.97        2970.75           1499       16610.00     72532.99
 1185.00        2971.00           1502       15151.00     66146.40
 1185.04        2971.25           1506       13139.00     57343.12
 1185.07        2971.50           1509       11516.00     50245.26
 1185.10        2971.75           1513        9564.00     41712.59
 1185.13        2972.00           1516        7960.00     34704.38
 1185.16        2972.25           1519        6291.00     27415.30
 1185.19        2972.50           1523        4234.00     18436.09
 1185.22        2972.75           1526        2603.00     11319.89
 1185.25        2973.00           1529        1221.00      5292.47
 1185.28        2973.25           1533         474.00      2035.43
 1185.31        2973.50           1536         335.00      1429.44
 1185.34        2973.75           1539         290.00      1233.26
 1185.37        2974.00           1543         234.00       989.13
 1185.40        2974.25           1546         184.00       771.16
 1185.44        2974.50           1549         151.00       627.30
 1185.47        2974.75           1553          98.00       396.26
 1185.50        2975.00           1556         100.00       404.97
 1185.53        2975.25           1559          77.00       304.71
 1185.56        2975.50           1563          84.00       335.23
 1185.59        2975.75           1566          71.00       278.56
 1185.62        2976.00           1569          75.00       295.99
 1185.65        2976.25           1573          68.00       265.48
 1185.68        2976.50           1576          63.00       243.68
 1185.71        2976.75           1579          72.00       282.91
 1185.75        2977.00           1583          70.00       274.20
 1185.78        2977.25           1586          69.00       269.84
 1185.81        2977.50           1590          77.00       304.71
 1185.84        2977.75           1593          69.00       269.84
 1185.87        2978.00           1596          73.00       287.27
 1185.90        2978.25           1600          77.00       304.71
 1185.93        2978.50           1603          69.00       269.84
 1185.96        2978.75           1606          71.00       278.56
 1185.99        2979.00           1610          68.00       265.48
 1186.02        2979.25           1613          75.00       295.99
 1186.05        2979.50           1616          79.00       313.43
 1186.08        2979.75           1620          69.00       269.84
 1186.11        2980.00           1623          68.00       265.48
 1186.14        2980.25           1626          70.00       274.20
 1186.18        2980.50           1630          73.00       287.27
 1186.21        2980.75           1633          75.00       295.99
 1186.24        2981.00           1637          75.00       295.99
 1186.27        2981.25           1640          69.00       269.84
 1186.30        2981.50           1643          70.00       274.20
 1186.33        2981.75           1647          71.00       278.56
 1186.36        2982.00           1650          73.00       287.27
 1186.39        2982.25           1653          69.00       269.84
 1186.42        2982.50           1657          67.00       261.12
 1186.45        2982.75           1660          63.00       243.68
 1186.48        2983.00           1663          64.00       248.04
 1186.51        2983.25           1667          68.00       265.48
 1186.54        2983.50           1670          62.00       239.32
 1186.57        2983.75           1673          71.00       278.56
 1186.61        2984.00           1677          67.00       261.12
HS scan finished at 19:46:49
end
