************************************************************
  HS Scan of (1) Internal mercury lamp
************************************************************
Integration time is 0.2294 seconds per sample
dh160918Manchester 53.47 2.23 2.804185pr1000
************************************************************
Dead Time -------------------------  3E-08 
Number of Cycles Used -------------  4 
Starting Wavelength (Angstroms) ---  2950 
Final Wavelength (Angstoms) -------  2984 
Wavelength Increment (Angstroms) --  .25 
Filter Wheel #1 Position ---------- (1) Ground quartz diffuser (ND=2.32)
Filter Wheel #2 Position ---------- (1) Neutral Density 0.494



************************************************************
HS scan start time = 02:18:07
Dark Count =  6.7 


Time (GMT)  Wavelength (Ang)  Step Number  Raw Counts  Counts/Second

  138.49        2950.00           1222          47.00       175.68
  138.56        2950.25           1226          56.00       214.91
  138.59        2950.50           1229          51.00       193.11
  138.62        2950.75           1232          57.00       219.27
  138.65        2951.00           1236          52.00       197.47
  138.68        2951.25           1239          46.00       171.32
  138.71        2951.50           1242          40.00       145.16
  138.74        2951.75           1246          59.00       227.99
  138.77        2952.00           1249          52.00       197.47
  138.80        2952.25           1252          59.00       227.99
  138.84        2952.50           1256          51.00       193.11
  138.87        2952.75           1259          50.00       188.75
  138.90        2953.00           1262          48.00       180.04
  138.93        2953.25           1266          49.00       184.40
  138.96        2953.50           1269          61.00       236.71
  138.99        2953.75           1272          49.00       184.40
  139.02        2954.00           1276          54.00       206.19
  139.05        2954.25           1279          49.00       184.40
  139.08        2954.50           1282          51.00       193.11
  139.11        2954.75           1286          58.00       223.63
  139.14        2955.00           1289          49.00       184.40
  139.17        2955.25           1292          48.00       180.04
  139.20        2955.50           1296          49.00       184.40
  139.23        2955.75           1299          53.00       201.83
  139.26        2956.00           1302          51.00       193.11
  139.30        2956.25           1306          49.00       184.40
  139.33        2956.50           1309          43.00       158.24
  139.36        2956.75           1312          52.00       197.47
  139.39        2957.00           1316          48.00       180.04
  139.42        2957.25           1319          46.00       171.32
  139.45        2957.50           1322          52.00       197.47
  139.48        2957.75           1326          53.00       201.83
  139.51        2958.00           1329          52.00       197.47
  139.54        2958.25           1332          43.00       158.24
  139.57        2958.50           1336          53.00       201.83
  139.60        2958.75           1339          53.00       201.83
  139.63        2959.00           1342          52.00       197.47
  139.66        2959.25           1346          57.00       219.27
  139.69        2959.50           1349          66.00       258.50
  139.72        2959.75           1352          63.00       245.42
  139.76        2960.00           1356          97.00       393.64
  139.79        2960.25           1359         126.00       520.06
  139.82        2960.50           1362         154.00       642.12
  139.85        2960.75           1366         190.00       799.06
  139.88        2961.00           1369         244.00      1034.47
  139.91        2961.25           1372         255.00      1082.42
  139.94        2961.50           1376         298.00      1269.88
  139.97        2961.75           1379         402.00      1723.28
  140.00        2962.00           1382         774.00      3345.15
  140.03        2962.25           1386        2032.00      8831.02
  140.06        2962.50           1389        3345.00     14558.67
  140.10        2962.75           1392        4498.00     19589.97
  140.13        2963.00           1396        6117.00     26657.32
  140.16        2963.25           1399        7299.00     31818.94
  140.19        2963.50           1402        8419.00     36711.29
  140.22        2963.75           1406        9977.00     43519.30
  140.25        2964.00           1409       11142.00     48611.82
  140.28        2964.25           1412       12533.00     54694.30
  140.31        2964.50           1416       14509.00     63338.64
  140.34        2964.75           1419       15604.00     68130.83
  140.37        2965.00           1422       16896.00     73786.96
  140.41        2965.25           1426       18455.00     80614.53
  140.44        2965.50           1429       19672.00     85946.26
  140.47        2965.75           1432       20842.00     91073.69
  140.50        2966.00           1436       22523.00     98443.32
  140.53        2966.25           1439       23484.00    102657.90
  140.56        2966.50           1442       24813.00    108488.10
  140.59        2966.75           1446       26088.00    114083.30
  140.62        2967.00           1449       26684.00    116699.50
  140.65        2967.25           1452       26848.00    117419.50
  140.68        2967.50           1456       26735.00    116923.40
  140.71        2967.75           1459       26835.00    117362.40
  140.75        2968.00           1462       26892.00    117612.60
  140.78        2968.25           1466       26268.00    114873.40
  140.81        2968.50           1469       25294.00    110598.70
  140.84        2968.75           1472       24205.00    105820.60
  140.87        2969.00           1476       22400.00     97903.98
  140.90        2969.25           1479       21515.00     94023.78
  140.93        2969.50           1482       20419.00     89219.74
  140.96        2969.75           1486       18527.00     80929.91
  140.99        2970.00           1489       17441.00     76173.45
  141.03        2970.25           1492       16154.00     70538.40
  141.06        2970.50           1496       14401.00     62866.06
  141.09        2970.75           1499       13274.00     57935.40
  141.12        2971.00           1502       11839.00     51659.34
  141.15        2971.25           1506       10319.00     45014.10
  141.18        2971.50           1509        9027.00     39367.74
  141.21        2971.75           1513        7462.00     32530.86
  141.24        2972.00           1516        6280.00     27369.02
  141.27        2972.25           1519        4981.00     21698.08
  141.30        2972.50           1523        3372.00     14676.47
  141.34        2972.75           1526        2160.00      9389.31
  141.37        2973.00           1529        1048.00      4539.85
  141.40        2973.25           1533         383.00      1640.45
  141.43        2973.50           1536         266.00      1130.38
  141.46        2973.75           1539         222.00       938.56
  141.49        2974.00           1543         171.00       716.23
  141.52        2974.25           1546         130.00       537.50
  141.55        2974.50           1549          93.00       376.20
  141.58        2974.75           1553          69.00       271.58
  141.61        2975.00           1556          56.00       214.91
  141.64        2975.25           1559          49.00       184.40
  141.67        2975.50           1563          50.00       188.75
  141.71        2975.75           1566          50.00       188.75
  141.74        2976.00           1569          49.00       184.40
  141.77        2976.25           1573          54.00       206.19
  141.80        2976.50           1576          49.00       184.40
  141.83        2976.75           1579          50.00       188.75
  141.86        2977.00           1583          44.00       162.60
  141.89        2977.25           1586          52.00       197.47
  141.92        2977.50           1590          53.00       201.83
  141.95        2977.75           1593          46.00       171.32
  141.98        2978.00           1596          50.00       188.75
  142.01        2978.25           1600          46.00       171.32
  142.04        2978.50           1603          47.00       175.68
  142.07        2978.75           1606          47.00       175.68
  142.11        2979.00           1610          46.00       171.32
  142.14        2979.25           1613          55.00       210.55
  142.17        2979.50           1616          45.00       166.96
  142.20        2979.75           1620          48.00       180.04
  142.23        2980.00           1623          50.00       188.75
  142.26        2980.25           1626          46.00       171.32
  142.29        2980.50           1630          51.00       193.11
  142.32        2980.75           1633          49.00       184.40
  142.35        2981.00           1637          49.00       184.40
  142.38        2981.25           1640          53.00       201.83
  142.41        2981.50           1643          44.00       162.60
  142.44        2981.75           1647          51.00       193.11
  142.47        2982.00           1650          42.00       153.88
  142.50        2982.25           1653          54.00       206.19
  142.54        2982.50           1657          44.00       162.60
  142.57        2982.75           1660          56.00       214.91
  142.60        2983.00           1663          51.00       193.11
  142.63        2983.25           1667          49.00       184.40
  142.66        2983.50           1670          50.00       188.75
  142.69        2983.75           1673          40.00       145.16
  142.72        2984.00           1677          43.00       158.24
HS scan finished at 02:22:56
end
************************************************************
  HS Scan of (1) Internal mercury lamp
************************************************************
Integration time is 0.2294 seconds per sample
dh160918Manchester 53.47 2.23 2.857833pr1000
************************************************************
Dead Time -------------------------  3E-08 
Number of Cycles Used -------------  4 
Starting Wavelength (Angstroms) ---  2950 
Final Wavelength (Angstoms) -------  2984 
Wavelength Increment (Angstroms) --  .25 
Filter Wheel #1 Position ---------- (1) Ground quartz diffuser (ND=2.32)
Filter Wheel #2 Position ---------- (1) Neutral Density 0.494



************************************************************
HS scan start time = 19:12:04
Dark Count =  5.6 


Time (GMT)  Wavelength (Ang)  Step Number  Raw Counts  Counts/Second

 1152.44        2950.00           1222          50.00       193.55
 1152.51        2950.25           1226          50.00       193.55
 1152.54        2950.50           1229          48.00       184.83
 1152.57        2950.75           1232          57.00       224.06
 1152.60        2951.00           1236          47.00       180.47
 1152.63        2951.25           1239          49.00       189.19
 1152.66        2951.50           1242          53.00       206.63
 1152.70        2951.75           1246          54.00       210.99
 1152.73        2952.00           1249          57.00       224.06
 1152.76        2952.25           1252          49.00       189.19
 1152.79        2952.50           1256          55.00       215.35
 1152.82        2952.75           1259          49.00       189.19
 1152.85        2953.00           1262          56.00       219.71
 1152.88        2953.25           1266          55.00       215.35
 1152.91        2953.50           1269          48.00       184.83
 1152.94        2953.75           1272          55.00       215.35
 1152.97        2954.00           1276          55.00       215.35
 1153.00        2954.25           1279          55.00       215.35
 1153.03        2954.50           1282          60.00       237.14
 1153.06        2954.75           1286          50.00       193.55
 1153.10        2955.00           1289          48.00       184.83
 1153.13        2955.25           1292          59.00       232.78
 1153.16        2955.50           1296          55.00       215.35
 1153.19        2955.75           1299          50.00       193.55
 1153.22        2956.00           1302          52.00       202.27
 1153.25        2956.25           1306          55.00       215.35
 1153.28        2956.50           1309          50.00       193.55
 1153.31        2956.75           1312          55.00       215.35
 1153.34        2957.00           1316          53.00       206.63
 1153.37        2957.25           1319          48.00       184.83
 1153.40        2957.50           1322          48.00       184.83
 1153.43        2957.75           1326          47.00       180.47
 1153.47        2958.00           1329          50.00       193.55
 1153.50        2958.25           1332          44.00       167.39
 1153.53        2958.50           1336          56.00       219.71
 1153.56        2958.75           1339          53.00       206.63
 1153.59        2959.00           1342          41.00       154.32
 1153.62        2959.25           1346          45.00       171.75
 1153.65        2959.50           1349          64.00       254.58
 1153.68        2959.75           1352          74.00       298.17
 1153.71        2960.00           1356         102.00       420.23
 1153.74        2960.25           1359         134.00       559.73
 1153.77        2960.50           1362         175.00       738.46
 1153.80        2960.75           1366         197.00       834.37
 1153.83        2961.00           1369         231.00       982.59
 1153.87        2961.25           1372         278.00      1187.49
 1153.90        2961.50           1376         348.00      1492.66
 1153.93        2961.75           1379         507.00      2185.85
 1153.96        2962.00           1382        1100.00      4771.39
 1153.99        2962.25           1386        2533.00     11021.08
 1154.02        2962.50           1389        3808.00     16583.66
 1154.05        2962.75           1392        5027.00     21903.67
 1154.08        2963.00           1396        6729.00     29334.44
 1154.11        2963.25           1399        7949.00     34662.88
 1154.14        2963.50           1402        9232.00     40268.33
 1154.17        2963.75           1406       11008.00     48030.80
 1154.21        2964.00           1409       11993.00     52337.57
 1154.24        2964.25           1412       13477.00     58828.24
 1154.27        2964.50           1416       15150.00     66148.57
 1154.30        2964.75           1419       16498.00     72049.21
 1154.33        2965.00           1422       17768.00     77610.31
 1154.36        2965.25           1426       19492.00     85162.38
 1154.39        2965.50           1429       20656.00     90263.28
 1154.42        2965.75           1432       22027.00     96273.31
 1154.45        2966.00           1436       23584.00    103101.30
 1154.48        2966.25           1439       24785.00    108370.10
 1154.51        2966.50           1442       25788.00    112771.50
 1154.55        2966.75           1446       27112.00    118583.30
 1154.58        2967.00           1449       27505.00    120308.80
 1154.61        2967.25           1452       27528.00    120409.80
 1154.64        2967.50           1456       27578.00    120629.30
 1154.67        2967.75           1459       27540.00    120462.50
 1154.70        2968.00           1462       27372.00    119724.80
 1154.73        2968.25           1466       26578.00    116239.00
 1154.76        2968.50           1469       25414.00    111130.10
 1154.79        2968.75           1472       24339.00    106413.30
 1154.83        2969.00           1476       22593.00     98755.09
 1154.86        2969.25           1479       21386.00     93463.09
 1154.89        2969.50           1482       20115.00     87892.31
 1154.92        2969.75           1486       18542.00     81000.44
 1154.95        2970.00           1489       17156.00     74930.24
 1154.98        2970.25           1492       15888.00     69378.78
 1155.01        2970.50           1496       14181.00     61908.25
 1155.04        2970.75           1499       12917.00     56378.63
 1155.07        2971.00           1502       11785.00     51428.02
 1155.10        2971.25           1506       10070.00     43930.58
 1155.13        2971.50           1509        8650.00     37725.33
 1155.17        2971.75           1513        7123.00     31055.08
 1155.20        2972.00           1516        5871.00     25588.08
 1155.23        2972.25           1519        4584.00     19970.11
 1155.26        2972.50           1523        2965.00     12905.61
 1155.29        2972.75           1526        1791.00      7784.73
 1155.32        2973.00           1529         796.00      3445.87
 1155.35        2973.25           1533         323.00      1383.67
 1155.38        2973.50           1536         251.00      1069.78
 1155.41        2973.75           1539         209.00       886.68
 1155.44        2974.00           1543         160.00       673.07
 1155.48        2974.25           1546         122.00       507.42
 1155.51        2974.50           1549          82.00       333.05
 1155.54        2974.75           1553          68.00       272.02
 1155.57        2975.00           1556          53.00       206.63
 1155.60        2975.25           1559          54.00       210.99
 1155.63        2975.50           1563          50.00       193.55
 1155.66        2975.75           1566          50.00       193.55
 1155.69        2976.00           1569          49.00       189.19
 1155.72        2976.25           1573          44.00       167.39
 1155.75        2976.50           1576          46.00       176.11
 1155.78        2976.75           1579          48.00       184.83
 1155.81        2977.00           1583          51.00       197.91
 1155.84        2977.25           1586          46.00       176.11
 1155.88        2977.50           1590          43.00       163.03
 1155.91        2977.75           1593          47.00       180.47
 1155.94        2978.00           1596          48.00       184.83
 1155.97        2978.25           1600          48.00       184.83
 1156.00        2978.50           1603          61.00       241.50
 1156.03        2978.75           1606          55.00       215.35
 1156.06        2979.00           1610          45.00       171.75
 1156.09        2979.25           1613          42.00       158.68
 1156.12        2979.50           1616          53.00       206.63
 1156.15        2979.75           1620          46.00       176.11
 1156.18        2980.00           1623          53.00       206.63
 1156.21        2980.25           1626          44.00       167.39
 1156.24        2980.50           1630          47.00       180.47
 1156.27        2980.75           1633          47.00       180.47
 1156.30        2981.00           1637          48.00       184.83
 1156.34        2981.25           1640          43.00       163.03
 1156.37        2981.50           1643          49.00       189.19
 1156.40        2981.75           1647          51.00       197.91
 1156.43        2982.00           1650          49.00       189.19
 1156.46        2982.25           1653          46.00       176.11
 1156.49        2982.50           1657          50.00       193.55
 1156.52        2982.75           1660          51.00       197.91
 1156.55        2983.00           1663          47.00       180.47
 1156.58        2983.25           1667          48.00       184.83
 1156.62        2983.50           1670          41.00       154.32
 1156.65        2983.75           1673          46.00       176.11
 1156.68        2984.00           1677          48.00       184.83
HS scan finished at 19:16:54
end
