************************************************************
  HS Scan of (1) Internal mercury lamp
************************************************************
Integration time is 0.2294 seconds per sample
dh100917Manchester 53.47 2.23 2.804185pr1000
************************************************************
Dead Time -------------------------  3E-08 
Number of Cycles Used -------------  4 
Starting Wavelength (Angstroms) ---  2950 
Final Wavelength (Angstoms) -------  2984 
Wavelength Increment (Angstroms) --  .25 
Filter Wheel #1 Position ---------- (1) Ground quartz diffuser (ND=2.32)
Filter Wheel #2 Position ---------- (1) Neutral Density 0.494



************************************************************
HS scan start time = 01:44:55
Dark Count =  6.9 


Time (GMT)  Wavelength (Ang)  Step Number  Raw Counts  Counts/Second

  105.29        2950.00           1222          89.00       357.89
  105.36        2950.25           1226          76.00       301.22
  105.39        2950.50           1229          78.00       309.94
  105.42        2950.75           1232          70.00       275.07
  105.45        2951.00           1236          76.00       301.22
  105.48        2951.25           1239          73.00       288.15
  105.52        2951.50           1242          76.00       301.22
  105.55        2951.75           1246          75.00       296.86
  105.58        2952.00           1249          73.00       288.15
  105.61        2952.25           1252          85.00       340.46
  105.64        2952.50           1256          74.00       292.50
  105.67        2952.75           1259          64.00       248.91
  105.70        2953.00           1262          78.00       309.94
  105.73        2953.25           1266          74.00       292.50
  105.76        2953.50           1269          84.00       336.10
  105.79        2953.75           1272          70.00       275.07
  105.82        2954.00           1276          75.00       296.86
  105.85        2954.25           1279          79.00       314.30
  105.89        2954.50           1282          75.00       296.86
  105.92        2954.75           1286          73.00       288.15
  105.95        2955.00           1289          76.00       301.22
  105.98        2955.25           1292          87.00       349.18
  106.01        2955.50           1296          75.00       296.86
  106.04        2955.75           1299          75.00       296.86
  106.07        2956.00           1302          76.00       301.22
  106.10        2956.25           1306          66.00       257.63
  106.13        2956.50           1309          82.00       327.38
  106.16        2956.75           1312          80.00       318.66
  106.19        2957.00           1316          80.00       318.66
  106.22        2957.25           1319          73.00       288.15
  106.25        2957.50           1322          85.00       340.46
  106.29        2957.75           1326          77.00       305.58
  106.32        2958.00           1329          66.00       257.63
  106.35        2958.25           1332          76.00       301.22
  106.38        2958.50           1336          75.00       296.86
  106.41        2958.75           1339          74.00       292.50
  106.44        2959.00           1342          83.00       331.74
  106.47        2959.25           1346          74.00       292.50
  106.50        2959.50           1349          89.00       357.89
  106.53        2959.75           1352         101.00       410.21
  106.57        2960.00           1356         131.00       540.99
  106.60        2960.25           1359         175.00       732.80
  106.63        2960.50           1362         211.00       889.74
  106.66        2960.75           1366         261.00      1107.71
  106.69        2961.00           1369         316.00      1347.48
  106.72        2961.25           1372         336.00      1434.67
  106.75        2961.50           1376         391.00      1674.45
  106.78        2961.75           1379         593.00      2555.12
  106.81        2962.00           1382        1230.00      5332.59
  106.84        2962.25           1386        2885.00     12550.93
  106.87        2962.50           1389        4351.00     18947.56
  106.90        2962.75           1392        5936.00     25866.19
  106.93        2963.00           1396        7968.00     34740.20
  106.97        2963.25           1399        9605.00     41892.63
  107.00        2963.50           1402       11207.00     48895.13
  107.03        2963.75           1406       13167.00     57466.47
  107.06        2964.00           1409       14866.00     64900.00
  107.09        2964.25           1412       16682.00     72849.10
  107.12        2964.50           1416       18706.00     81713.15
  107.15        2964.75           1419       20479.00     89481.83
  107.18        2965.00           1422       21811.00     95320.59
  107.21        2965.25           1426       24104.00    105376.60
  107.25        2965.50           1429       25664.00    112221.60
  107.28        2965.75           1432       27050.00    118305.40
  107.31        2966.00           1436       29227.00    127865.80
  107.34        2966.25           1439       30835.00    134930.90
  107.37        2966.50           1442       32126.00    140605.40
  107.40        2966.75           1446       33686.00    147464.80
  107.43        2967.00           1449       34472.00    150922.00
  107.46        2967.25           1452       34517.00    151119.90
  107.49        2967.50           1456       34615.00    151551.00
  107.52        2967.75           1459       34346.00    150367.70
  107.55        2968.00           1462       34321.00    150257.80
  107.58        2968.25           1466       33478.00    146550.10
  107.62        2968.50           1469       32257.00    141181.30
  107.65        2968.75           1472       30610.00    133942.10
  107.68        2969.00           1476       28750.00    125770.50
  107.71        2969.25           1479       26984.00    118015.60
  107.74        2969.50           1482       25562.00    111773.90
  107.77        2969.75           1486       23505.00    102749.10
  107.80        2970.00           1489       22002.00     96157.99
  107.83        2970.25           1492       20325.00     88806.91
  107.86        2970.50           1496       18308.00     79969.75
  107.89        2970.75           1499       16578.00     72393.76
  107.93        2971.00           1502       15058.00     65740.25
  107.96        2971.25           1506       12903.00     56311.70
  107.99        2971.50           1509       11311.00     49349.82
  108.02        2971.75           1513        9394.00     40970.56
  108.05        2972.00           1516        7800.00     34006.35
  108.08        2972.25           1519        6053.00     26377.01
  108.11        2972.50           1523        4162.00     18122.75
  108.14        2972.75           1526        2582.00     11229.15
  108.17        2973.00           1529        1129.00      4892.17
  108.21        2973.25           1533         479.00      2058.10
  108.24        2973.50           1536         323.00      1378.00
  108.27        2973.75           1539         291.00      1238.49
  108.30        2974.00           1543         240.00      1016.16
  108.33        2974.25           1546         190.00       798.19
  108.36        2974.50           1549         155.00       645.61
  108.39        2974.75           1553         105.00       427.64
  108.42        2975.00           1556          92.00       370.97
  108.45        2975.25           1559          79.00       314.30
  108.48        2975.50           1563          71.00       279.43
  108.51        2975.75           1566          77.00       305.58
  108.54        2976.00           1569          78.00       309.94
  108.57        2976.25           1573          74.00       292.50
  108.60        2976.50           1576          69.00       270.71
  108.63        2976.75           1579          70.00       275.07
  108.67        2977.00           1583          72.00       283.79
  108.70        2977.25           1586          67.00       261.99
  108.73        2977.50           1590          69.00       270.71
  108.76        2977.75           1593          68.00       266.35
  108.79        2978.00           1596          64.00       248.91
  108.82        2978.25           1600          74.00       292.50
  108.85        2978.50           1603          79.00       314.30
  108.88        2978.75           1606          81.00       323.02
  108.91        2979.00           1610          73.00       288.15
  108.94        2979.25           1613          72.00       283.79
  108.97        2979.50           1616          74.00       292.50
  109.00        2979.75           1620          69.00       270.71
  109.04        2980.00           1623          67.00       261.99
  109.07        2980.25           1626          68.00       266.35
  109.10        2980.50           1630          64.00       248.91
  109.13        2980.75           1633          61.00       235.83
  109.16        2981.00           1637          68.00       266.35
  109.19        2981.25           1640          67.00       261.99
  109.22        2981.50           1643          70.00       275.07
  109.25        2981.75           1647          56.00       214.04
  109.28        2982.00           1650          66.00       257.63
  109.31        2982.25           1653          76.00       301.22
  109.34        2982.50           1657          69.00       270.71
  109.37        2982.75           1660          65.00       253.27
  109.41        2983.00           1663          64.00       248.91
  109.44        2983.25           1667          74.00       292.50
  109.47        2983.50           1670          67.00       261.99
  109.50        2983.75           1673          66.00       257.63
  109.53        2984.00           1677          74.00       292.50
HS scan finished at 01:49:45
end
************************************************************
  HS Scan of (1) Internal mercury lamp
************************************************************
Integration time is 0.2294 seconds per sample
dh100917Manchester 53.47 2.23 2.804185pr1000
************************************************************
Dead Time -------------------------  3E-08 
Number of Cycles Used -------------  4 
Starting Wavelength (Angstroms) ---  2950 
Final Wavelength (Angstoms) -------  2984 
Wavelength Increment (Angstroms) --  .25 
Filter Wheel #1 Position ---------- (1) Ground quartz diffuser (ND=2.32)
Filter Wheel #2 Position ---------- (1) Neutral Density 0.494



************************************************************
HS scan start time = 19:42:03
Dark Count =  8.2 


Time (GMT)  Wavelength (Ang)  Step Number  Raw Counts  Counts/Second

 1182.42        2950.00           1222          82.00       321.71
 1182.48        2950.25           1226          81.00       317.35
 1182.51        2950.50           1229          77.00       299.92
 1182.55        2950.75           1232          79.00       308.63
 1182.58        2951.00           1236          81.00       317.35
 1182.61        2951.25           1239          80.00       312.99
 1182.64        2951.50           1242          79.00       308.63
 1182.67        2951.75           1246          76.00       295.56
 1182.70        2952.00           1249          81.00       317.35
 1182.73        2952.25           1252          77.00       299.92
 1182.76        2952.50           1256          89.00       352.23
 1182.79        2952.75           1259          79.00       308.63
 1182.82        2953.00           1262          81.00       317.35
 1182.85        2953.25           1266          81.00       317.35
 1182.88        2953.50           1269          79.00       308.63
 1182.91        2953.75           1272          71.00       273.76
 1182.94        2954.00           1276          80.00       312.99
 1182.97        2954.25           1279          76.00       295.56
 1183.01        2954.50           1282          74.00       286.84
 1183.04        2954.75           1286          80.00       312.99
 1183.07        2955.00           1289          80.00       312.99
 1183.10        2955.25           1292          83.00       326.07
 1183.13        2955.50           1296          76.00       295.56
 1183.16        2955.75           1299          73.00       282.48
 1183.19        2956.00           1302          75.00       291.20
 1183.22        2956.25           1306          79.00       308.63
 1183.25        2956.50           1309          82.00       321.71
 1183.28        2956.75           1312          81.00       317.35
 1183.31        2957.00           1316          70.00       269.40
 1183.35        2957.25           1319          71.00       273.76
 1183.38        2957.50           1322          86.00       339.15
 1183.41        2957.75           1326          76.00       295.56
 1183.44        2958.00           1329          69.00       265.04
 1183.47        2958.25           1332          78.00       304.27
 1183.50        2958.50           1336          83.00       326.07
 1183.53        2958.75           1339          78.00       304.27
 1183.56        2959.00           1342          76.00       295.56
 1183.59        2959.25           1346          89.00       352.23
 1183.62        2959.50           1349          88.00       347.87
 1183.65        2959.75           1352          95.00       378.38
 1183.69        2960.00           1356         131.00       535.32
 1183.72        2960.25           1359         159.00       657.38
 1183.75        2960.50           1362         205.00       857.91
 1183.78        2960.75           1366         253.00      1067.17
 1183.81        2961.00           1369         296.00      1254.62
 1183.84        2961.25           1372         351.00      1494.40
 1183.87        2961.50           1376         437.00      1869.33
 1183.90        2961.75           1379         615.00      2645.37
 1183.93        2962.00           1382        1427.00      6185.98
 1183.96        2962.25           1386        3155.00     13723.17
 1183.99        2962.50           1389        4775.00     20792.39
 1184.03        2962.75           1392        6194.00     26986.97
 1184.06        2963.00           1396        8306.00     36211.07
 1184.09        2963.25           1399        9847.00     42944.57
 1184.12        2963.50           1402       11536.00     50327.89
 1184.15        2963.75           1406       13600.00     59354.94
 1184.18        2964.00           1409       15336.00     66951.26
 1184.21        2964.25           1412       16999.00     74231.40
 1184.24        2964.50           1416       19096.00     83416.00
 1184.27        2964.75           1419       20934.00     91470.38
 1184.30        2965.00           1422       22519.00     98419.21
 1184.34        2965.25           1426       24803.00    108437.60
 1184.37        2965.50           1429       26344.00    115200.40
 1184.40        2965.75           1432       27958.00    122286.50
 1184.43        2966.00           1436       30035.00    131409.80
 1184.46        2966.25           1439       31552.00    138076.40
 1184.49        2966.50           1442       33027.00    144561.10
 1184.52        2966.75           1446       34262.00    149992.50
 1184.55        2967.00           1449       34574.00    151365.00
 1184.58        2967.25           1452       34732.00    152060.00
 1184.62        2967.50           1456       34692.00    151884.10
 1184.65        2967.75           1459       34538.00    151206.60
 1184.68        2968.00           1462       34354.00    150397.20
 1184.71        2968.25           1466       33066.00    144732.60
 1184.74        2968.50           1469       31803.00    139179.80
 1184.77        2968.75           1472       30199.00    132130.40
 1184.80        2969.00           1476       28353.00    124021.20
 1184.83        2969.25           1479       26704.00    116780.70
 1184.86        2969.50           1482       25194.00    110153.30
 1184.89        2969.75           1486       23121.00    101059.20
 1184.92        2970.00           1489       21536.00     94109.27
 1184.95        2970.25           1492       20082.00     87736.30
 1184.99        2970.50           1496       17745.00     77498.20
 1185.02        2970.75           1499       16208.00     70768.22
 1185.05        2971.00           1502       14496.00     63275.19
 1185.08        2971.25           1506       12415.00     54171.66
 1185.11        2971.50           1509       10672.00     46550.58
 1185.14        2971.75           1513        8637.00     37657.17
 1185.17        2972.00           1516        7105.00     30965.11
 1185.20        2972.25           1519        5443.00     23708.23
 1185.23        2972.50           1523        3510.00     15272.04
 1185.26        2972.75           1526        1961.00      8514.82
 1185.30        2973.00           1529         876.00      3783.34
 1185.33        2973.25           1533         438.00      1873.69
 1185.36        2973.50           1536         346.00      1472.60
 1185.39        2973.75           1539         299.00      1267.70
 1185.42        2974.00           1543         257.00      1084.60
 1185.45        2974.25           1546         202.00       844.83
 1185.48        2974.50           1549         146.00       600.71
 1185.51        2974.75           1553         115.00       465.57
 1185.54        2975.00           1556          91.00       360.95
 1185.57        2975.25           1559          80.00       312.99
 1185.60        2975.50           1563          66.00       251.96
 1185.64        2975.75           1566          73.00       282.48
 1185.67        2976.00           1569          69.00       265.04
 1185.70        2976.25           1573          76.00       295.56
 1185.73        2976.50           1576          72.00       278.12
 1185.76        2976.75           1579          76.00       295.56
 1185.79        2977.00           1583          66.00       251.96
 1185.82        2977.25           1586          78.00       304.27
 1185.85        2977.50           1590          69.00       265.04
 1185.88        2977.75           1593          70.00       269.40
 1185.91        2978.00           1596          67.00       256.32
 1185.94        2978.25           1600          89.00       352.23
 1185.97        2978.50           1603          70.00       269.40
 1186.00        2978.75           1606          67.00       256.32
 1186.03        2979.00           1610          72.00       278.12
 1186.07        2979.25           1613          70.00       269.40
 1186.10        2979.50           1616          76.00       295.56
 1186.13        2979.75           1620          72.00       278.12
 1186.16        2980.00           1623          81.00       317.35
 1186.19        2980.25           1626          75.00       291.20
 1186.22        2980.50           1630          68.00       260.68
 1186.25        2980.75           1633          63.00       238.89
 1186.28        2981.00           1637          71.00       273.76
 1186.31        2981.25           1640          70.00       269.40
 1186.34        2981.50           1643          66.00       251.96
 1186.37        2981.75           1647          63.00       238.89
 1186.40        2982.00           1650          67.00       256.32
 1186.43        2982.25           1653          72.00       278.12
 1186.47        2982.50           1657          70.00       269.40
 1186.50        2982.75           1660          75.00       291.20
 1186.53        2983.00           1663          66.00       251.96
 1186.56        2983.25           1667          66.00       251.96
 1186.59        2983.50           1670          60.00       225.81
 1186.62        2983.75           1673          65.00       247.60
 1186.65        2984.00           1677          75.00       291.20
HS scan finished at 19:46:52
end
