************************************************************
  HS Scan of (1) Internal mercury lamp
************************************************************
Integration time is 0.2294 seconds per sample
dh070917Manchester 53.47 2.23 2.804185pr1000
************************************************************
Dead Time -------------------------  3E-08 
Number of Cycles Used -------------  4 
Starting Wavelength (Angstroms) ---  2950 
Final Wavelength (Angstoms) -------  2984 
Wavelength Increment (Angstroms) --  .25 
Filter Wheel #1 Position ---------- (1) Ground quartz diffuser (ND=2.32)
Filter Wheel #2 Position ---------- (1) Neutral Density 0.494



************************************************************
HS scan start time = 01:30:24
Dark Count =  7.3 


Time (GMT)  Wavelength (Ang)  Step Number  Raw Counts  Counts/Second

   90.77        2950.00           1222          79.00       312.56
   90.84        2950.25           1226          80.00       316.92
   90.87        2950.50           1229          69.00       268.96
   90.90        2950.75           1232          71.00       277.68
   90.93        2951.00           1236          74.00       290.76
   90.96        2951.25           1239          77.00       303.84
   90.99        2951.50           1242          69.00       268.96
   91.02        2951.75           1246          84.00       334.35
   91.05        2952.00           1249          79.00       312.56
   91.08        2952.25           1252          77.00       303.84
   91.11        2952.50           1256          84.00       334.35
   91.14        2952.75           1259          81.00       321.28
   91.17        2953.00           1262          76.00       299.48
   91.20        2953.25           1266          79.00       312.56
   91.23        2953.50           1269          73.00       286.40
   91.27        2953.75           1272          69.00       268.96
   91.30        2954.00           1276          82.00       325.64
   91.33        2954.25           1279          80.00       316.92
   91.36        2954.50           1282          70.00       273.32
   91.39        2954.75           1286          78.00       308.20
   91.42        2955.00           1289          80.00       316.92
   91.45        2955.25           1292          71.00       277.68
   91.48        2955.50           1296          82.00       325.64
   91.51        2955.75           1299          80.00       316.92
   91.54        2956.00           1302          69.00       268.96
   91.57        2956.25           1306          82.00       325.64
   91.60        2956.50           1309          77.00       303.84
   91.63        2956.75           1312          77.00       303.84
   91.67        2957.00           1316          77.00       303.84
   91.70        2957.25           1319          77.00       303.84
   91.73        2957.50           1322          83.00       329.99
   91.76        2957.75           1326          72.00       282.04
   91.79        2958.00           1329          74.00       290.76
   91.82        2958.25           1332          75.00       295.12
   91.85        2958.50           1336          71.00       277.68
   91.88        2958.75           1339          77.00       303.84
   91.91        2959.00           1342          75.00       295.12
   91.94        2959.25           1346          91.00       364.87
   91.97        2959.50           1349          88.00       351.79
   92.00        2959.75           1352         107.00       434.62
   92.04        2960.00           1356         140.00       578.48
   92.07        2960.25           1359         166.00       691.82
   92.10        2960.50           1362         217.00       914.15
   92.13        2960.75           1366         274.00      1162.64
   92.16        2961.00           1369         299.00      1271.63
   92.19        2961.25           1372         346.00      1476.53
   92.22        2961.50           1376         439.00      1881.97
   92.25        2961.75           1379         648.00      2793.17
   92.28        2962.00           1382        1402.00      6080.88
   92.31        2962.25           1386        3200.00     13923.43
   92.35        2962.50           1389        4724.00     20573.72
   92.38        2962.75           1392        6331.00     27589.09
   92.41        2963.00           1396        8480.00     36975.17
   92.44        2963.25           1399       10000.00     43617.20
   92.47        2963.50           1402       11562.00     50445.51
   92.50        2963.75           1406       13699.00     59791.99
   92.53        2964.00           1409       15266.00     66648.83
   92.56        2964.25           1412       16973.00     74121.48
   92.59        2964.50           1416       19074.00     83323.54
   92.62        2964.75           1419       20914.00     91386.65
   92.65        2965.00           1422       22309.00     97502.31
   92.68        2965.25           1426       24732.00    108130.10
   92.72        2965.50           1429       26260.00    114835.60
   92.75        2965.75           1432       27844.00    121789.90
   92.78        2966.00           1436       29772.00    130258.30
   92.81        2966.25           1439       31226.00    136647.50
   92.84        2966.50           1442       32755.00    143369.00
   92.87        2966.75           1446       34037.00    149006.80
   92.90        2967.00           1449       34592.00    151448.10
   92.93        2967.25           1452       34718.00    152002.40
   92.96        2967.50           1456       34681.00    151839.60
   92.99        2967.75           1459       34788.00    152310.30
   93.02        2968.00           1462       34438.00    150770.70
   93.06        2968.25           1466       33296.00    145747.90
   93.09        2968.50           1469       31746.00    138933.20
   93.12        2968.75           1472       30302.00    132586.90
   93.15        2969.00           1476       28045.00    122672.50
   93.18        2969.25           1479       26712.00    116819.80
   93.21        2969.50           1482       24938.00    109033.90
   93.24        2969.75           1486       22963.00    100370.20
   93.27        2970.00           1489       21480.00     93867.71
   93.30        2970.25           1492       19923.00     87043.48
   93.33        2970.50           1496       17729.00     77432.06
   93.37        2970.75           1499       16104.00     70316.88
   93.40        2971.00           1502       14351.00     62644.65
   93.43        2971.25           1506       12301.00     53677.04
   93.46        2971.50           1509       10726.00     46790.58
   93.49        2971.75           1513        8672.00     37814.02
   93.52        2972.00           1516        7146.00     31148.10
   93.55        2972.25           1519        5420.00     23611.75
   93.58        2972.50           1523        3593.00     15638.11
   93.61        2972.75           1526        2046.00      8889.47
   93.64        2973.00           1529         876.00      3787.27
   93.68        2973.25           1533         433.00      1855.81
   93.71        2973.50           1536         352.00      1502.68
   93.74        2973.75           1539         282.00      1197.51
   93.77        2974.00           1543         236.00       996.98
   93.80        2974.25           1546         177.00       739.77
   93.83        2974.50           1549         149.00       617.71
   93.86        2974.75           1553         103.00       417.18
   93.89        2975.00           1556          86.00       343.07
   93.92        2975.25           1559          78.00       308.20
   93.95        2975.50           1563          79.00       312.56
   93.98        2975.75           1566          77.00       303.84
   94.01        2976.00           1569          74.00       290.76
   94.04        2976.25           1573          82.00       325.64
   94.08        2976.50           1576          76.00       299.48
   94.11        2976.75           1579          73.00       286.40
   94.14        2977.00           1583          76.00       299.48
   94.17        2977.25           1586          68.00       264.61
   94.20        2977.50           1590          69.00       268.96
   94.23        2977.75           1593          78.00       308.20
   94.26        2978.00           1596          71.00       277.68
   94.29        2978.25           1600          75.00       295.12
   94.32        2978.50           1603          69.00       268.96
   94.35        2978.75           1606          67.00       260.25
   94.38        2979.00           1610          68.00       264.61
   94.41        2979.25           1613          74.00       290.76
   94.45        2979.50           1616          67.00       260.25
   94.48        2979.75           1620          71.00       277.68
   94.51        2980.00           1623          64.00       247.17
   94.54        2980.25           1626          75.00       295.12
   94.57        2980.50           1630          73.00       286.40
   94.60        2980.75           1633          69.00       268.96
   94.63        2981.00           1637          62.00       238.45
   94.66        2981.25           1640          62.00       238.45
   94.69        2981.50           1643          87.00       347.43
   94.72        2981.75           1647          61.00       234.09
   94.75        2982.00           1650          60.00       229.73
   94.78        2982.25           1653          73.00       286.40
   94.82        2982.50           1657          65.00       251.53
   94.85        2982.75           1660          71.00       277.68
   94.88        2983.00           1663          64.00       247.17
   94.91        2983.25           1667          74.00       290.76
   94.94        2983.50           1670          65.00       251.53
   94.97        2983.75           1673          66.00       255.89
   95.00        2984.00           1677          64.00       247.17
HS scan finished at 01:35:13
end
************************************************************
  HS Scan of (1) Internal mercury lamp
************************************************************
Integration time is 0.2294 seconds per sample
dh070917Manchester 53.47 2.23 2.857833pr1000
************************************************************
Dead Time -------------------------  3E-08 
Number of Cycles Used -------------  4 
Starting Wavelength (Angstroms) ---  2950 
Final Wavelength (Angstoms) -------  2984 
Wavelength Increment (Angstroms) --  .25 
Filter Wheel #1 Position ---------- (1) Ground quartz diffuser (ND=2.32)
Filter Wheel #2 Position ---------- (1) Neutral Density 0.494



************************************************************
HS scan start time = 19:42:04
Dark Count =  7 


Time (GMT)  Wavelength (Ang)  Step Number  Raw Counts  Counts/Second

 1182.43        2950.00           1222          73.00       287.71
 1182.50        2950.25           1226          88.00       353.10
 1182.53        2950.50           1229          81.00       322.58
 1182.56        2950.75           1232          78.00       309.51
 1182.59        2951.00           1236          82.00       326.94
 1182.62        2951.25           1239          77.00       305.15
 1182.65        2951.50           1242          78.00       309.51
 1182.68        2951.75           1246          74.00       292.07
 1182.71        2952.00           1249          75.00       296.43
 1182.74        2952.25           1252          72.00       283.35
 1182.77        2952.50           1256          89.00       357.46
 1182.81        2952.75           1259          80.00       318.22
 1182.84        2953.00           1262          81.00       322.58
 1182.87        2953.25           1266          88.00       353.10
 1182.90        2953.50           1269          74.00       292.07
 1182.93        2953.75           1272          80.00       318.22
 1182.96        2954.00           1276          80.00       318.22
 1182.99        2954.25           1279          83.00       331.30
 1183.02        2954.50           1282          84.00       335.66
 1183.05        2954.75           1286          79.00       313.87
 1183.08        2955.00           1289          81.00       322.58
 1183.11        2955.25           1292          79.00       313.87
 1183.14        2955.50           1296          78.00       309.51
 1183.18        2955.75           1299          79.00       313.87
 1183.21        2956.00           1302          74.00       292.07
 1183.24        2956.25           1306          81.00       322.58
 1183.27        2956.50           1309          74.00       292.07
 1183.30        2956.75           1312          77.00       305.15
 1183.33        2957.00           1316          82.00       326.94
 1183.36        2957.25           1319          79.00       313.87
 1183.39        2957.50           1322          72.00       283.35
 1183.42        2957.75           1326          72.00       283.35
 1183.45        2958.00           1329          79.00       313.87
 1183.48        2958.25           1332          80.00       318.22
 1183.51        2958.50           1336          81.00       322.58
 1183.54        2958.75           1339          79.00       313.87
 1183.57        2959.00           1342          76.00       300.79
 1183.61        2959.25           1346          86.00       344.38
 1183.64        2959.50           1349          79.00       313.87
 1183.67        2959.75           1352         102.00       414.13
 1183.70        2960.00           1356         143.00       592.86
 1183.73        2960.25           1359         161.00       671.33
 1183.76        2960.50           1362         199.00       836.99
 1183.79        2960.75           1366         246.00      1041.88
 1183.82        2961.00           1369         292.00      1242.42
 1183.85        2961.25           1372         338.00      1442.96
 1183.88        2961.50           1376         410.00      1756.85
 1183.91        2961.75           1379         633.00      2729.08
 1183.95        2962.00           1382        1340.00      5811.82
 1183.98        2962.25           1386        3212.00     13977.09
 1184.01        2962.50           1389        4791.00     20867.46
 1184.04        2962.75           1392        6307.00     27485.60
 1184.07        2963.00           1396        8445.00     36823.57
 1184.10        2963.25           1399       10153.00     44287.23
 1184.13        2963.50           1402       11721.00     51142.05
 1184.16        2963.75           1406       13985.00     61044.56
 1184.19        2964.00           1409       15651.00     68335.25
 1184.23        2964.25           1412       17379.00     75900.62
 1184.26        2964.50           1416       19371.00     84626.09
 1184.29        2964.75           1419       21011.00     91813.13
 1184.32        2965.00           1422       22479.00     98249.06
 1184.35        2965.25           1426       24775.00    108320.10
 1184.38        2965.50           1429       26410.00    115495.40
 1184.41        2965.75           1432       27885.00    121971.20
 1184.44        2966.00           1436       30135.00    131854.50
 1184.47        2966.25           1439       31841.00    139352.10
 1184.51        2966.50           1442       33227.00    145445.80
 1184.54        2966.75           1446       34605.00    151506.60
 1184.57        2967.00           1449       35001.00    153248.70
 1184.60        2967.25           1452       34981.00    153160.70
 1184.63        2967.50           1456       34905.00    152826.40
 1184.66        2967.75           1459       35000.00    153244.30
 1184.69        2968.00           1462       34582.00    151405.40
 1184.72        2968.25           1466       33532.00    146787.10
 1184.75        2968.50           1469       31789.00    139123.50
 1184.78        2968.75           1472       30455.00    133260.60
 1184.82        2969.00           1476       28188.00    123301.80
 1184.85        2969.25           1479       26569.00    116193.30
 1184.88        2969.50           1482       25034.00    109456.50
 1184.91        2969.75           1486       22964.00    100375.90
 1184.94        2970.00           1489       21486.00     93895.33
 1184.97        2970.25           1492       19785.00     86440.09
 1185.00        2970.50           1496       17780.00     77656.74
 1185.03        2970.75           1499       16245.00     70935.45
 1185.06        2971.00           1502       14428.00     62982.89
 1185.09        2971.25           1506       12407.00     54141.92
 1185.13        2971.50           1509       10688.00     46625.77
 1185.16        2971.75           1513        8540.00     37238.61
 1185.19        2972.00           1516        6895.00     30053.24
 1185.22        2972.25           1519        5310.00     23132.88
 1185.25        2972.50           1523        3249.00     14138.52
 1185.28        2972.75           1526        1816.00      7887.66
 1185.31        2973.00           1529         741.00      3199.96
 1185.34        2973.25           1533         430.00      1844.04
 1185.37        2973.50           1536         343.00      1464.76
 1185.40        2973.75           1539         301.00      1281.65
 1185.43        2974.00           1543         250.00      1059.32
 1185.47        2974.25           1546         198.00       832.63
 1185.50        2974.50           1549         153.00       636.46
 1185.53        2974.75           1553         103.00       418.49
 1185.56        2975.00           1556          83.00       331.30
 1185.59        2975.25           1559          82.00       326.94
 1185.62        2975.50           1563          70.00       274.63
 1185.65        2975.75           1566          74.00       292.07
 1185.68        2976.00           1569          79.00       313.87
 1185.71        2976.25           1573          71.00       278.99
 1185.74        2976.50           1576          78.00       309.51
 1185.78        2976.75           1579          74.00       292.07
 1185.81        2977.00           1583          66.00       257.19
 1185.84        2977.25           1586          66.00       257.19
 1185.87        2977.50           1590          75.00       296.43
 1185.90        2977.75           1593          69.00       270.27
 1185.93        2978.00           1596          77.00       305.15
 1185.96        2978.25           1600          68.00       265.91
 1185.99        2978.50           1603          66.00       257.19
 1186.02        2978.75           1606          73.00       287.71
 1186.06        2979.00           1610          64.00       248.48
 1186.09        2979.25           1613          75.00       296.43
 1186.12        2979.50           1616          71.00       278.99
 1186.15        2979.75           1620          71.00       278.99
 1186.18        2980.00           1623          77.00       305.15
 1186.21        2980.25           1626          73.00       287.71
 1186.24        2980.50           1630          75.00       296.43
 1186.27        2980.75           1633          81.00       322.58
 1186.30        2981.00           1637          74.00       292.07
 1186.33        2981.25           1640          76.00       300.79
 1186.36        2981.50           1643          76.00       300.79
 1186.39        2981.75           1647          75.00       296.43
 1186.43        2982.00           1650          69.00       270.27
 1186.46        2982.25           1653          73.00       287.71
 1186.49        2982.50           1657          62.00       239.76
 1186.52        2982.75           1660          68.00       265.91
 1186.55        2983.00           1663          71.00       278.99
 1186.58        2983.25           1667          66.00       257.19
 1186.61        2983.50           1670          70.00       274.63
 1186.64        2983.75           1673          62.00       239.76
 1186.67        2984.00           1677          68.00       265.91
HS scan finished at 19:46:53
end
