************************************************************
  HS Scan of (1) Internal mercury lamp
************************************************************
Integration time is 0.2294 seconds per sample
dh120918Manchester 53.47 2.23 2.804185pr1000
************************************************************
Dead Time -------------------------  3E-08 
Number of Cycles Used -------------  4 
Starting Wavelength (Angstroms) ---  2950 
Final Wavelength (Angstoms) -------  2984 
Wavelength Increment (Angstroms) --  .25 
Filter Wheel #1 Position ---------- (1) Ground quartz diffuser (ND=2.32)
Filter Wheel #2 Position ---------- (1) Neutral Density 0.494



************************************************************
HS scan start time = 01:56:47
Dark Count =  7.4 


Time (GMT)  Wavelength (Ang)  Step Number  Raw Counts  Counts/Second

  117.16        2950.00           1222          63.00       242.37
  117.22        2950.25           1226          50.00       185.70
  117.25        2950.50           1229          53.00       198.78
  117.28        2950.75           1232          51.00       190.06
  117.31        2951.00           1236          52.00       194.42
  117.35        2951.25           1239          53.00       198.78
  117.38        2951.50           1242          54.00       203.14
  117.41        2951.75           1246          53.00       198.78
  117.44        2952.00           1249          46.00       168.27
  117.47        2952.25           1252          49.00       181.34
  117.50        2952.50           1256          53.00       198.78
  117.53        2952.75           1259          43.00       155.19
  117.56        2953.00           1262          56.00       211.86
  117.59        2953.25           1266          53.00       198.78
  117.62        2953.50           1269          51.00       190.06
  117.65        2953.75           1272          57.00       216.22
  117.68        2954.00           1276          51.00       190.06
  117.71        2954.25           1279          54.00       203.14
  117.74        2954.50           1282          46.00       168.27
  117.77        2954.75           1286          44.00       159.55
  117.81        2955.00           1289          46.00       168.27
  117.84        2955.25           1292          46.00       168.27
  117.87        2955.50           1296          54.00       203.14
  117.90        2955.75           1299          58.00       220.58
  117.93        2956.00           1302          50.00       185.70
  117.96        2956.25           1306          57.00       216.22
  117.99        2956.50           1309          51.00       190.06
  118.02        2956.75           1312          50.00       185.70
  118.05        2957.00           1316          52.00       194.42
  118.08        2957.25           1319          52.00       194.42
  118.11        2957.50           1322          63.00       242.37
  118.15        2957.75           1326          67.00       259.81
  118.18        2958.00           1329          51.00       190.06
  118.21        2958.25           1332          54.00       203.14
  118.24        2958.50           1336          49.00       181.34
  118.27        2958.75           1339          49.00       181.34
  118.30        2959.00           1342          48.00       176.98
  118.33        2959.25           1346          62.00       238.01
  118.36        2959.50           1349          54.00       203.14
  118.39        2959.75           1352          72.00       281.61
  118.42        2960.00           1356          85.00       338.28
  118.45        2960.25           1359         101.00       408.03
  118.48        2960.50           1362         135.00       556.24
  118.52        2960.75           1366         192.00       804.73
  118.55        2961.00           1369         215.00       904.99
  118.58        2961.25           1372         243.00      1027.06
  118.61        2961.50           1376         316.00      1345.30
  118.64        2961.75           1379         417.00      1785.62
  118.67        2962.00           1382         830.00      3586.26
  118.70        2962.25           1386        2132.00      9264.13
  118.73        2962.50           1389        3267.00     14215.30
  118.76        2962.75           1392        4509.00     19634.93
  118.79        2963.00           1396        6044.00     26335.53
  118.82        2963.25           1399        7345.00     32016.79
  118.86        2963.50           1402        8565.00     37346.09
  118.89        2963.75           1406       10174.00     44377.26
  118.92        2964.00           1409       11431.00     49872.30
  118.95        2964.25           1412       12898.00     56287.65
  118.98        2964.50           1416       14682.00     64092.60
  119.01        2964.75           1419       15872.00     69300.86
  119.04        2965.00           1422       17270.00     75421.56
  119.07        2965.25           1426       18878.00     82464.45
  119.10        2965.50           1429       20150.00     88037.80
  119.13        2965.75           1432       21385.00     93450.81
  119.16        2966.00           1436       22913.00    100150.50
  119.19        2966.25           1439       24227.00    105914.00
  119.23        2966.50           1442       25565.00    111784.90
  119.26        2966.75           1446       26661.00    116595.50
  119.29        2967.00           1449       27013.00    118140.70
  119.32        2967.25           1452       26863.00    117482.20
  119.35        2967.50           1456       27008.00    118118.80
  119.38        2967.75           1459       26985.00    118017.80
  119.41        2968.00           1462       26967.00    117938.80
  119.44        2968.25           1466       26221.00    114664.00
  119.47        2968.50           1469       25238.00    110349.90
  119.50        2968.75           1472       24040.00    105093.70
  119.53        2969.00           1476       22541.00     98519.18
  119.57        2969.25           1479       21331.00     93214.10
  119.60        2969.50           1482       20116.00     87888.80
  119.63        2969.75           1486       18331.00     80068.29
  119.66        2970.00           1489       17111.00     74725.31
  119.69        2970.25           1492       15777.00     68885.01
  119.72        2970.50           1496       14458.00     63112.41
  119.75        2970.75           1499       13006.00     56760.04
  119.78        2971.00           1502       11812.00     51538.21
  119.81        2971.25           1506       10085.00     43988.26
  119.85        2971.50           1509        8865.00     38656.84
  119.88        2971.75           1513        7300.00     31820.25
  119.91        2972.00           1516        6070.00     26449.05
  119.94        2972.25           1519        4775.00     20795.88
  119.97        2972.50           1523        3214.00     13984.07
  120.00        2972.75           1526        1957.00      8500.86
  120.03        2973.00           1529         925.00      4000.48
  120.06        2973.25           1533         347.00      1480.45
  120.09        2973.50           1536         260.00      1101.17
  120.13        2973.75           1539         208.00       874.48
  120.16        2974.00           1543         165.00       687.02
  120.19        2974.25           1546         137.00       564.96
  120.22        2974.50           1549         105.00       425.46
  120.25        2974.75           1553          77.00       303.40
  120.28        2975.00           1556          62.00       238.01
  120.31        2975.25           1559          56.00       211.86
  120.34        2975.50           1563          51.00       190.06
  120.37        2975.75           1566          48.00       176.98
  120.40        2976.00           1569          38.00       133.39
  120.43        2976.25           1573          50.00       185.70
  120.46        2976.50           1576          49.00       181.34
  120.49        2976.75           1579          47.00       172.63
  120.52        2977.00           1583          43.00       155.19
  120.55        2977.25           1586          54.00       203.14
  120.58        2977.50           1590          47.00       172.63
  120.62        2977.75           1593          52.00       194.42
  120.65        2978.00           1596          46.00       168.27
  120.68        2978.25           1600          45.00       163.91
  120.71        2978.50           1603          41.00       146.47
  120.74        2978.75           1606          48.00       176.98
  120.77        2979.00           1610          49.00       181.34
  120.80        2979.25           1613          51.00       190.06
  120.83        2979.50           1616          48.00       176.98
  120.86        2979.75           1620          60.00       229.30
  120.89        2980.00           1623          46.00       168.27
  120.92        2980.25           1626          43.00       155.19
  120.96        2980.50           1630          44.00       159.55
  120.99        2980.75           1633          43.00       155.19
  121.02        2981.00           1637          48.00       176.98
  121.05        2981.25           1640          56.00       211.86
  121.08        2981.50           1643          43.00       155.19
  121.11        2981.75           1647          50.00       185.70
  121.14        2982.00           1650          47.00       172.63
  121.17        2982.25           1653          44.00       159.55
  121.20        2982.50           1657          46.00       168.27
  121.23        2982.75           1660          44.00       159.55
  121.26        2983.00           1663          55.00       207.50
  121.30        2983.25           1667          40.00       142.11
  121.33        2983.50           1670          46.00       168.27
  121.36        2983.75           1673          44.00       159.55
  121.39        2984.00           1677          47.00       172.63
HS scan finished at 02:01:36
end
************************************************************
  HS Scan of (1) Internal mercury lamp
************************************************************
Integration time is 0.2294 seconds per sample
dh120918Manchester 53.47 2.23 2.804185pr1000
************************************************************
Dead Time -------------------------  3E-08 
Number of Cycles Used -------------  4 
Starting Wavelength (Angstroms) ---  2950 
Final Wavelength (Angstoms) -------  2984 
Wavelength Increment (Angstroms) --  .25 
Filter Wheel #1 Position ---------- (1) Ground quartz diffuser (ND=2.32)
Filter Wheel #2 Position ---------- (1) Neutral Density 0.494



************************************************************
HS scan start time = 19:42:01
Dark Count =  5.7 


Time (GMT)  Wavelength (Ang)  Step Number  Raw Counts  Counts/Second

 1182.38        2950.00           1222          53.00       206.19
 1182.45        2950.25           1226          54.00       210.55
 1182.48        2950.50           1229          49.00       188.75
 1182.51        2950.75           1232          55.00       214.91
 1182.54        2951.00           1236          45.00       171.32
 1182.57        2951.25           1239          52.00       201.83
 1182.60        2951.50           1242          52.00       201.83
 1182.63        2951.75           1246          49.00       188.75
 1182.67        2952.00           1249          47.00       180.04
 1182.70        2952.25           1252          50.00       193.11
 1182.73        2952.50           1256          51.00       197.47
 1182.76        2952.75           1259          45.00       171.32
 1182.79        2953.00           1262          55.00       214.91
 1182.82        2953.25           1266          49.00       188.75
 1182.85        2953.50           1269          58.00       227.99
 1182.88        2953.75           1272          48.00       184.40
 1182.91        2954.00           1276          53.00       206.19
 1182.94        2954.25           1279          48.00       184.40
 1182.97        2954.50           1282          57.00       223.63
 1183.00        2954.75           1286          57.00       223.63
 1183.03        2955.00           1289          44.00       166.96
 1183.06        2955.25           1292          62.00       245.42
 1183.10        2955.50           1296          54.00       210.55
 1183.13        2955.75           1299          45.00       171.32
 1183.16        2956.00           1302          43.00       162.60
 1183.19        2956.25           1306          46.00       175.68
 1183.22        2956.50           1309          47.00       180.04
 1183.25        2956.75           1312          49.00       188.75
 1183.28        2957.00           1316          58.00       227.99
 1183.31        2957.25           1319          56.00       219.27
 1183.34        2957.50           1322          55.00       214.91
 1183.37        2957.75           1326          52.00       201.83
 1183.40        2958.00           1329          52.00       201.83
 1183.43        2958.25           1332          53.00       206.19
 1183.46        2958.50           1336          48.00       184.40
 1183.50        2958.75           1339          45.00       171.32
 1183.53        2959.00           1342          43.00       162.60
 1183.56        2959.25           1346          55.00       214.91
 1183.59        2959.50           1349          58.00       227.99
 1183.62        2959.75           1352          73.00       293.38
 1183.65        2960.00           1356         104.00       428.51
 1183.68        2960.25           1359         118.00       489.55
 1183.71        2960.50           1362         165.00       694.43
 1183.74        2960.75           1366         199.00       842.65
 1183.77        2961.00           1369         239.00      1017.03
 1183.80        2961.25           1372         259.00      1104.22
 1183.83        2961.50           1376         334.00      1431.19
 1183.86        2961.75           1379         396.00      1701.48
 1183.89        2962.00           1382         831.00      3598.03
 1183.93        2962.25           1386        2216.00      9637.92
 1183.96        2962.50           1389        3452.00     15029.88
 1183.99        2962.75           1392        4607.00     20070.06
 1184.02        2963.00           1396        6111.00     26635.49
 1184.05        2963.25           1399        7377.00     32163.98
 1184.08        2963.50           1402        8650.00     37724.88
 1184.11        2963.75           1406       10312.00     44987.88
 1184.14        2964.00           1409       11584.00     50548.70
 1184.17        2964.25           1412       12740.00     55604.01
 1184.20        2964.50           1416       14487.00     63246.75
 1184.23        2964.75           1419       15681.00     68472.25
 1184.27        2965.00           1422       16960.00     74071.57
 1184.30        2965.25           1426       18659.00     81512.51
 1184.33        2965.50           1429       19953.00     87181.96
 1184.36        2965.75           1432       21302.00     93094.42
 1184.39        2966.00           1436       23064.00    100820.20
 1184.42        2966.25           1439       24165.00    105649.50
 1184.45        2966.50           1442       25234.00    110339.80
 1184.48        2966.75           1446       26372.00    115334.30
 1184.51        2967.00           1449       26764.00    117055.10
 1184.55        2967.25           1452       26996.00    118073.60
 1184.58        2967.50           1456       26837.00    117375.50
 1184.61        2967.75           1459       26652.00    116563.40
 1184.64        2968.00           1462       26838.00    117379.90
 1184.67        2968.25           1466       25963.00    113539.10
 1184.70        2968.50           1469       25008.00    109348.10
 1184.73        2968.75           1472       23758.00    103864.10
 1184.76        2969.00           1476       22139.00     96763.93
 1184.79        2969.25           1479       20874.00     91218.34
 1184.83        2969.50           1482       19704.00     86090.85
 1184.86        2969.75           1486       18038.00     78792.40
 1184.89        2970.00           1489       16667.00     72788.68
 1184.92        2970.25           1492       15472.00     67557.45
 1184.95        2970.50           1496       14018.00     61194.63
 1184.98        2970.75           1499       12629.00     55118.54
 1185.01        2971.00           1502       11413.00     49801.03
 1185.04        2971.25           1506        9738.00     42479.13
 1185.07        2971.50           1509        8429.00     36759.35
 1185.11        2971.75           1513        6820.00     29731.39
 1185.14        2972.00           1516        5585.00     24339.04
 1185.17        2972.25           1519        4485.00     19537.60
 1185.20        2972.50           1523        2875.00     12512.54
 1185.23        2972.75           1526        1739.00      7557.51
 1185.26        2973.00           1529         806.00      3489.03
 1185.29        2973.25           1533         331.00      1418.11
 1185.32        2973.50           1536         248.00      1056.27
 1185.35        2973.75           1539         211.00       894.97
 1185.38        2974.00           1543         189.00       799.06
 1185.41        2974.25           1546         125.00       520.06
 1185.44        2974.50           1549         102.00       419.80
 1185.47        2974.75           1553          69.00       275.94
 1185.50        2975.00           1556          55.00       214.91
 1185.53        2975.25           1559          54.00       210.55
 1185.56        2975.50           1563          48.00       184.40
 1185.60        2975.75           1566          64.00       254.14
 1185.63        2976.00           1569          52.00       201.83
 1185.66        2976.25           1573          46.00       175.68
 1185.69        2976.50           1576          51.00       197.47
 1185.72        2976.75           1579          48.00       184.40
 1185.75        2977.00           1583          42.00       158.24
 1185.78        2977.25           1586          54.00       210.55
 1185.81        2977.50           1590          47.00       180.04
 1185.84        2977.75           1593          39.00       145.16
 1185.87        2978.00           1596          51.00       197.47
 1185.91        2978.25           1600          46.00       175.68
 1185.94        2978.50           1603          53.00       206.19
 1185.97        2978.75           1606          53.00       206.19
 1186.00        2979.00           1610          45.00       171.32
 1186.03        2979.25           1613          48.00       184.40
 1186.06        2979.50           1616          46.00       175.68
 1186.09        2979.75           1620          47.00       180.04
 1186.12        2980.00           1623          56.00       219.27
 1186.15        2980.25           1626          53.00       206.19
 1186.18        2980.50           1630          41.00       153.88
 1186.22        2980.75           1633          46.00       175.68
 1186.25        2981.00           1637          46.00       175.68
 1186.28        2981.25           1640          45.00       171.32
 1186.31        2981.50           1643          48.00       184.40
 1186.34        2981.75           1647          49.00       188.75
 1186.37        2982.00           1650          41.00       153.88
 1186.40        2982.25           1653          51.00       197.47
 1186.43        2982.50           1657          48.00       184.40
 1186.46        2982.75           1660          41.00       153.88
 1186.49        2983.00           1663          44.00       166.96
 1186.52        2983.25           1667          46.00       175.68
 1186.56        2983.50           1670          54.00       210.55
 1186.59        2983.75           1673          48.00       184.40
 1186.62        2984.00           1677          48.00       184.40
HS scan finished at 19:46:50
end
