************************************************************
  HS Scan of (1) Internal mercury lamp
************************************************************
Integration time is 0.2294 seconds per sample
dh080918Manchester 53.47 2.23 2.804185pr1000
************************************************************
Dead Time -------------------------  3E-08 
Number of Cycles Used -------------  4 
Starting Wavelength (Angstroms) ---  2950 
Final Wavelength (Angstoms) -------  2984 
Wavelength Increment (Angstroms) --  .25 
Filter Wheel #1 Position ---------- (1) Ground quartz diffuser (ND=2.32)
Filter Wheel #2 Position ---------- (1) Neutral Density 0.494



************************************************************
HS scan start time = 01:25:09
Dark Count =  7.1 


Time (GMT)  Wavelength (Ang)  Step Number  Raw Counts  Counts/Second

   85.52        2950.00           1222          65.00       252.40
   85.59        2950.25           1226          56.00       213.17
   85.62        2950.50           1229          50.00       187.01
   85.65        2950.75           1232          58.00       221.88
   85.68        2951.00           1236          49.00       182.65
   85.72        2951.25           1239          52.00       195.73
   85.75        2951.50           1242          48.00       178.29
   85.78        2951.75           1246          44.00       160.86
   85.81        2952.00           1249          47.00       173.93
   85.84        2952.25           1252          56.00       213.17
   85.87        2952.50           1256          53.00       200.09
   85.90        2952.75           1259          50.00       187.01
   85.93        2953.00           1262          50.00       187.01
   85.96        2953.25           1266          58.00       221.88
   85.99        2953.50           1269          53.00       200.09
   86.02        2953.75           1272          57.00       217.53
   86.05        2954.00           1276          55.00       208.81
   86.08        2954.25           1279          48.00       178.29
   86.12        2954.50           1282          53.00       200.09
   86.15        2954.75           1286          47.00       173.93
   86.18        2955.00           1289          44.00       160.86
   86.21        2955.25           1292          49.00       182.65
   86.24        2955.50           1296          54.00       204.45
   86.27        2955.75           1299          45.00       165.21
   86.30        2956.00           1302          57.00       217.53
   86.33        2956.25           1306          47.00       173.93
   86.36        2956.50           1309          51.00       191.37
   86.39        2956.75           1312          53.00       200.09
   86.42        2957.00           1316          51.00       191.37
   86.46        2957.25           1319          51.00       191.37
   86.49        2957.50           1322          56.00       213.17
   86.52        2957.75           1326          51.00       191.37
   86.55        2958.00           1329          51.00       191.37
   86.58        2958.25           1332          52.00       195.73
   86.61        2958.50           1336          52.00       195.73
   86.64        2958.75           1339          57.00       217.53
   86.67        2959.00           1342          52.00       195.73
   86.70        2959.25           1346          59.00       226.24
   86.73        2959.50           1349          52.00       195.73
   86.76        2959.75           1352          66.00       256.76
   86.80        2960.00           1356          94.00       378.82
   86.83        2960.25           1359         120.00       492.16
   86.86        2960.50           1362         146.00       605.50
   86.89        2960.75           1366         175.00       731.93
   86.92        2961.00           1369         223.00       941.18
   86.95        2961.25           1372         248.00      1050.16
   86.98        2961.50           1376         300.00      1276.86
   87.01        2961.75           1379         407.00      1743.33
   87.04        2962.00           1382         844.00      3648.61
   87.07        2962.25           1386        2092.00      9090.97
   87.10        2962.50           1389        3280.00     14273.33
   87.14        2962.75           1392        4374.00     19047.06
   87.17        2963.00           1396        6109.00     26620.64
   87.20        2963.25           1399        7241.00     31563.88
   87.23        2963.50           1402        8417.00     36700.81
   87.26        2963.75           1406       10289.00     44881.23
   87.29        2964.00           1409       11520.00     50262.75
   87.32        2964.25           1412       12774.00     55746.60
   87.35        2964.50           1416       14344.00     62614.89
   87.38        2964.75           1419       15780.00     68899.46
   87.41        2965.00           1422       17043.00     74428.87
   87.44        2965.25           1426       18859.00     82382.52
   87.48        2965.50           1429       19964.00     87224.02
   87.51        2965.75           1432       21298.00     93070.76
   87.54        2966.00           1436       22986.00    100472.00
   87.57        2966.25           1439       24141.00    105538.10
   87.60        2966.50           1442       25330.00    110754.90
   87.63        2966.75           1446       26428.00    115574.00
   87.66        2967.00           1449       27073.00    118405.50
   87.69        2967.25           1452       27322.00    119498.70
   87.72        2967.50           1456       27225.00    119072.80
   87.76        2967.75           1459       27232.00    119103.60
   87.79        2968.00           1462       27149.00    118739.10
   87.82        2968.25           1466       26780.00    117119.20
   87.85        2968.50           1469       25585.00    111874.00
   87.88        2968.75           1472       24531.00    107249.10
   87.91        2969.00           1476       22977.00    100432.50
   87.94        2969.25           1479       21919.00     95793.21
   87.97        2969.50           1482       20534.00     89722.00
   88.00        2969.75           1486       18914.00     82623.47
   88.04        2970.00           1489       17569.00     76732.25
   88.07        2970.25           1492       16363.00     71451.61
   88.10        2970.50           1496       14664.00     64015.15
   88.13        2970.75           1499       13492.00     58887.30
   88.16        2971.00           1502       12211.00     53284.33
   88.19        2971.25           1506       10541.00     45982.75
   88.22        2971.50           1509        9036.00     39405.33
   88.25        2971.75           1513        7475.00     32585.90
   88.28        2972.00           1516        6191.00     26978.67
   88.31        2972.25           1519        4983.00     21705.06
   88.35        2972.50           1523        3424.00     14901.60
   88.38        2972.75           1526        2188.00      9509.69
   88.41        2973.00           1529        1113.00      4821.53
   88.44        2973.25           1533         438.00      1878.48
   88.47        2973.50           1536         299.00      1272.50
   88.50        2973.75           1539         255.00      1080.68
   88.53        2974.00           1543         211.00       888.86
   88.56        2974.25           1546         172.00       718.85
   88.59        2974.50           1549         132.00       544.47
   88.62        2974.75           1553          89.00       357.02
   88.65        2975.00           1556          70.00       274.20
   88.68        2975.25           1559          54.00       204.45
   88.71        2975.50           1563          52.00       195.73
   88.75        2975.75           1566          46.00       169.57
   88.78        2976.00           1569          46.00       169.57
   88.81        2976.25           1573          53.00       200.09
   88.84        2976.50           1576          56.00       213.17
   88.87        2976.75           1579          43.00       156.50
   88.90        2977.00           1583          51.00       191.37
   88.93        2977.25           1586          45.00       165.21
   88.96        2977.50           1590          45.00       165.21
   88.99        2977.75           1593          47.00       173.93
   89.02        2978.00           1596          46.00       169.57
   89.05        2978.25           1600          56.00       213.17
   89.08        2978.50           1603          52.00       195.73
   89.11        2978.75           1606          51.00       191.37
   89.14        2979.00           1610          48.00       178.29
   89.18        2979.25           1613          45.00       165.21
   89.21        2979.50           1616          49.00       182.65
   89.24        2979.75           1620          48.00       178.29
   89.27        2980.00           1623          49.00       182.65
   89.30        2980.25           1626          49.00       182.65
   89.33        2980.50           1630          47.00       173.93
   89.36        2980.75           1633          52.00       195.73
   89.39        2981.00           1637          46.00       169.57
   89.42        2981.25           1640          40.00       143.42
   89.45        2981.50           1643          46.00       169.57
   89.48        2981.75           1647          44.00       160.86
   89.52        2982.00           1650          45.00       165.21
   89.55        2982.25           1653          46.00       169.57
   89.58        2982.50           1657          47.00       173.93
   89.61        2982.75           1660          43.00       156.50
   89.64        2983.00           1663          51.00       191.37
   89.67        2983.25           1667          47.00       173.93
   89.70        2983.50           1670          43.00       156.50
   89.73        2983.75           1673          40.00       143.42
   89.76        2984.00           1677          46.00       169.57
HS scan finished at 01:29:59
end
************************************************************
  HS Scan of (1) Internal mercury lamp
************************************************************
Integration time is 0.2294 seconds per sample
dh080918Manchester 53.47 2.23 2.857833pr1000
************************************************************
Dead Time -------------------------  3E-08 
Number of Cycles Used -------------  4 
Starting Wavelength (Angstroms) ---  2950 
Final Wavelength (Angstoms) -------  2984 
Wavelength Increment (Angstroms) --  .25 
Filter Wheel #1 Position ---------- (1) Ground quartz diffuser (ND=2.32)
Filter Wheel #2 Position ---------- (1) Neutral Density 0.494



************************************************************
HS scan start time = 19:42:00
Dark Count =  4.4 


Time (GMT)  Wavelength (Ang)  Step Number  Raw Counts  Counts/Second

 1182.37        2950.00           1222          52.00       207.50
 1182.44        2950.25           1226          51.00       203.14
 1182.47        2950.50           1229          49.00       194.42
 1182.50        2950.75           1232          48.00       190.06
 1182.53        2951.00           1236          52.00       207.50
 1182.56        2951.25           1239          52.00       207.50
 1182.59        2951.50           1242          57.00       229.30
 1182.62        2951.75           1246          50.00       198.78
 1182.65        2952.00           1249          47.00       185.70
 1182.69        2952.25           1252          64.00       259.81
 1182.72        2952.50           1256          45.00       176.98
 1182.75        2952.75           1259          59.00       238.01
 1182.78        2953.00           1262          51.00       203.14
 1182.81        2953.25           1266          63.00       255.45
 1182.84        2953.50           1269          51.00       203.14
 1182.87        2953.75           1272          50.00       198.78
 1182.90        2954.00           1276          53.00       211.86
 1182.93        2954.25           1279          50.00       198.78
 1182.97        2954.50           1282          49.00       194.42
 1183.00        2954.75           1286          48.00       190.06
 1183.03        2955.00           1289          51.00       203.14
 1183.06        2955.25           1292          52.00       207.50
 1183.09        2955.50           1296          59.00       238.01
 1183.12        2955.75           1299          53.00       211.86
 1183.15        2956.00           1302          44.00       172.63
 1183.18        2956.25           1306          49.00       194.42
 1183.21        2956.50           1309          61.00       246.73
 1183.25        2956.75           1312          46.00       181.34
 1183.28        2957.00           1316          49.00       194.42
 1183.31        2957.25           1319          52.00       207.50
 1183.34        2957.50           1322          56.00       224.94
 1183.37        2957.75           1326          57.00       229.30
 1183.40        2958.00           1329          59.00       238.01
 1183.43        2958.25           1332          46.00       181.34
 1183.46        2958.50           1336          49.00       194.42
 1183.49        2958.75           1339          60.00       242.37
 1183.52        2959.00           1342          51.00       203.14
 1183.55        2959.25           1346          49.00       194.42
 1183.58        2959.50           1349          60.00       242.37
 1183.62        2959.75           1352          76.00       312.12
 1183.65        2960.00           1356          99.00       412.39
 1183.68        2960.25           1359         117.00       490.85
 1183.71        2960.50           1362         146.00       617.27
 1183.74        2960.75           1366         190.00       809.09
 1183.77        2961.00           1369         226.00       966.03
 1183.80        2961.25           1372         256.00      1096.81
 1183.83        2961.50           1376         310.00      1332.22
 1183.86        2961.75           1379         450.00      1942.57
 1183.89        2962.00           1382         957.00      4153.09
 1183.92        2962.25           1386        2243.00      9761.36
 1183.95        2962.50           1389        3440.00     14983.19
 1183.98        2962.75           1392        4652.00     20272.13
 1184.02        2963.00           1396        6360.00     27728.38
 1184.05        2963.25           1399        7682.00     33501.83
 1184.08        2963.50           1402        9066.00     39548.20
 1184.11        2963.75           1406       10645.00     46449.16
 1184.14        2964.00           1409       12015.00     52439.01
 1184.17        2964.25           1412       13278.00     57962.96
 1184.20        2964.50           1416       15015.00     65563.01
 1184.23        2964.75           1419       16179.00     70657.90
 1184.27        2965.00           1422       17552.00     76669.61
 1184.30        2965.25           1426       19126.00     83564.06
 1184.33        2965.50           1429       20344.00     88901.13
 1184.36        2965.75           1432       21813.00     95340.31
 1184.39        2966.00           1436       23401.00    102303.90
 1184.42        2966.25           1439       24594.00    107537.30
 1184.45        2966.50           1442       25727.00    112509.00
 1184.48        2966.75           1446       26939.00    117829.00
 1184.51        2967.00           1449       27197.00    118961.70
 1184.55        2967.25           1452       27337.00    119576.40
 1184.58        2967.50           1456       27304.00    119431.50
 1184.61        2967.75           1459       27259.00    119233.90
 1184.64        2968.00           1462       27013.00    118153.90
 1184.67        2968.25           1466       26435.00    115616.50
 1184.70        2968.50           1469       25375.00    110964.30
 1184.73        2968.75           1472       24228.00    105931.60
 1184.76        2969.00           1476       22522.00     98449.01
 1184.79        2969.25           1479       21107.00     92245.33
 1184.82        2969.50           1482       19886.00     86894.05
 1184.86        2969.75           1486       18279.00     79853.68
 1184.89        2970.00           1489       16975.00     74142.93
 1184.92        2970.25           1492       15825.00     69108.26
 1184.95        2970.50           1496       14176.00     61891.62
 1184.98        2970.75           1499       13033.00     56891.26
 1185.01        2971.00           1502       11779.00     51407.03
 1185.04        2971.25           1506       10043.00     43817.80
 1185.07        2971.50           1509        8800.00     38385.94
 1185.10        2971.75           1513        7138.00     31125.83
 1185.13        2972.00           1516        5885.00     25654.44
 1185.17        2972.25           1519        4579.00     19953.53
 1185.20        2972.50           1523        2989.00     13015.54
 1185.23        2972.75           1526        1854.00      8064.72
 1185.26        2973.00           1529         808.00      3503.42
 1185.29        2973.25           1533         401.00      1728.95
 1185.32        2973.50           1536         269.00      1153.48
 1185.35        2973.75           1539         247.00      1057.58
 1185.38        2974.00           1543         195.00       830.88
 1185.41        2974.25           1546         151.00       639.07
 1185.44        2974.50           1549         117.00       490.85
 1185.47        2974.75           1553          74.00       303.40
 1185.51        2975.00           1556          60.00       242.37
 1185.54        2975.25           1559          55.00       220.58
 1185.57        2975.50           1563          57.00       229.30
 1185.60        2975.75           1566          45.00       176.98
 1185.63        2976.00           1569          48.00       190.06
 1185.66        2976.25           1573          46.00       181.34
 1185.69        2976.50           1576          48.00       190.06
 1185.72        2976.75           1579          50.00       198.78
 1185.75        2977.00           1583          50.00       198.78
 1185.78        2977.25           1586          51.00       203.14
 1185.81        2977.50           1590          51.00       203.14
 1185.84        2977.75           1593          50.00       198.78
 1185.88        2978.00           1596          49.00       194.42
 1185.91        2978.25           1600          48.00       190.06
 1185.94        2978.50           1603          45.00       176.98
 1185.97        2978.75           1606          42.00       163.91
 1186.00        2979.00           1610          55.00       220.58
 1186.03        2979.25           1613          52.00       207.50
 1186.06        2979.50           1616          49.00       194.42
 1186.09        2979.75           1620          54.00       216.22
 1186.12        2980.00           1623          45.00       176.98
 1186.15        2980.25           1626          48.00       190.06
 1186.18        2980.50           1630          52.00       207.50
 1186.22        2980.75           1633          43.00       168.27
 1186.25        2981.00           1637          43.00       168.27
 1186.28        2981.25           1640          43.00       168.27
 1186.31        2981.50           1643          44.00       172.63
 1186.34        2981.75           1647          46.00       181.34
 1186.37        2982.00           1650          46.00       181.34
 1186.40        2982.25           1653          47.00       185.70
 1186.43        2982.50           1657          48.00       190.06
 1186.46        2982.75           1660          48.00       190.06
 1186.49        2983.00           1663          55.00       220.58
 1186.52        2983.25           1667          43.00       168.27
 1186.56        2983.50           1670          41.00       159.55
 1186.59        2983.75           1673          50.00       198.78
 1186.62        2984.00           1677          46.00       181.34
HS scan finished at 19:46:50
end
