************************************************************
  HS Scan of (1) Internal mercury lamp
************************************************************
Integration time is 0.2294 seconds per sample
dh150917Manchester 53.47 2.23 2.804185pr1000
************************************************************
Dead Time -------------------------  3E-08 
Number of Cycles Used -------------  4 
Starting Wavelength (Angstroms) ---  2950 
Final Wavelength (Angstoms) -------  2984 
Wavelength Increment (Angstroms) --  .25 
Filter Wheel #1 Position ---------- (1) Ground quartz diffuser (ND=2.32)
Filter Wheel #2 Position ---------- (1) Neutral Density 0.494



************************************************************
HS scan start time = 02:14:29
Dark Count =  7 


Time (GMT)  Wavelength (Ang)  Step Number  Raw Counts  Counts/Second

  134.84        2950.00           1222          78.00       309.51
  134.91        2950.25           1226          72.00       283.35
  134.94        2950.50           1229          77.00       305.15
  134.97        2950.75           1232          73.00       287.71
  135.00        2951.00           1236          80.00       318.22
  135.03        2951.25           1239          79.00       313.87
  135.07        2951.50           1242          73.00       287.71
  135.10        2951.75           1246          71.00       278.99
  135.13        2952.00           1249          83.00       331.30
  135.16        2952.25           1252          76.00       300.79
  135.19        2952.50           1256          79.00       313.87
  135.22        2952.75           1259          66.00       257.19
  135.25        2953.00           1262          72.00       283.35
  135.28        2953.25           1266          74.00       292.07
  135.31        2953.50           1269          73.00       287.71
  135.34        2953.75           1272          75.00       296.43
  135.37        2954.00           1276          76.00       300.79
  135.40        2954.25           1279          85.00       340.02
  135.43        2954.50           1282          74.00       292.07
  135.47        2954.75           1286          71.00       278.99
  135.50        2955.00           1289          73.00       287.71
  135.53        2955.25           1292          73.00       287.71
  135.56        2955.50           1296          69.00       270.27
  135.59        2955.75           1299          75.00       296.43
  135.62        2956.00           1302          79.00       313.87
  135.65        2956.25           1306          73.00       287.71
  135.68        2956.50           1309          83.00       331.30
  135.71        2956.75           1312          72.00       283.35
  135.74        2957.00           1316          67.00       261.55
  135.78        2957.25           1319          81.00       322.58
  135.81        2957.50           1322          80.00       318.22
  135.84        2957.75           1326          82.00       326.94
  135.87        2958.00           1329          85.00       340.02
  135.90        2958.25           1332          75.00       296.43
  135.93        2958.50           1336          71.00       278.99
  135.96        2958.75           1339          79.00       313.87
  135.99        2959.00           1342          79.00       313.87
  136.02        2959.25           1346          78.00       309.51
  136.05        2959.50           1349          89.00       357.46
  136.09        2959.75           1352          95.00       383.61
  136.12        2960.00           1356         129.00       531.83
  136.15        2960.25           1359         164.00       684.41
  136.18        2960.50           1362         192.00       806.47
  136.21        2960.75           1366         256.00      1085.48
  136.24        2961.00           1369         286.00      1216.26
  136.27        2961.25           1372         336.00      1434.24
  136.30        2961.50           1376         399.00      1708.89
  136.33        2961.75           1379         550.00      2367.21
  136.36        2962.00           1382         960.00      4154.83
  136.40        2962.25           1386        2516.00     10940.82
  136.43        2962.50           1389        3952.00     17205.92
  136.46        2962.75           1392        5514.00     24023.41
  136.49        2963.00           1396        7453.00     32490.24
  136.52        2963.25           1399        9093.00     39654.82
  136.55        2963.50           1402       10738.00     46844.34
  136.58        2963.75           1406       12976.00     56630.57
  136.61        2964.00           1409       14688.00     64120.61
  136.65        2964.25           1412       16241.00     70917.94
  136.68        2964.50           1416       18601.00     81252.75
  136.71        2964.75           1419       20168.00     88118.42
  136.74        2965.00           1422       21840.00     95447.29
  136.77        2965.25           1426       23968.00    104779.60
  136.80        2965.50           1429       25517.00    111576.00
  136.83        2965.75           1432       27092.00    118489.30
  136.86        2966.00           1436       29102.00    127316.20
  136.89        2966.25           1439       30756.00    134583.30
  136.92        2966.50           1442       32335.00    141523.80
  136.96        2966.75           1446       33841.00    148146.10
  136.99        2967.00           1449       34452.00    150833.60
  137.02        2967.25           1452       34524.00    151150.30
  137.05        2967.50           1456       34716.00    151994.90
  137.08        2967.75           1459       34409.00    150644.40
  137.11        2968.00           1462       34560.00    151308.70
  137.14        2968.25           1466       33545.00    146844.30
  137.17        2968.50           1469       32313.00    141427.00
  137.20        2968.75           1472       31082.00    136016.00
  137.23        2969.00           1476       28990.00    126824.20
  137.27        2969.25           1479       27315.00    119468.40
  137.30        2969.50           1482       25794.00    112791.70
  137.33        2969.75           1486       23756.00    103849.60
  137.36        2970.00           1489       22260.00     97288.77
  137.39        2970.25           1492       20531.00     89709.28
  137.42        2970.50           1496       18358.00     80188.31
  137.45        2970.75           1499       16712.00     72980.02
  137.48        2971.00           1502       15278.00     66702.66
  137.51        2971.25           1506       13018.00     56814.28
  137.54        2971.50           1509       11530.00     50306.91
  137.58        2971.75           1513        9513.00     41490.15
  137.61        2972.00           1516        7978.00     34783.45
  137.64        2972.25           1519        6140.00     26756.43
  137.67        2972.50           1523        3981.00     17332.46
  137.70        2972.75           1526        2473.00     10753.25
  137.73        2973.00           1529        1128.00      4887.38
  137.76        2973.25           1533         488.00      2096.91
  137.79        2973.50           1536         359.00      1534.51
  137.82        2973.75           1539         308.00      1312.17
  137.85        2974.00           1543         269.00      1142.15
  137.89        2974.25           1546         195.00       819.55
  137.92        2974.50           1549         160.00       666.97
  137.95        2974.75           1553         119.00       488.24
  137.98        2975.00           1556          88.00       353.10
  138.01        2975.25           1559          78.00       309.51
  138.04        2975.50           1563          79.00       313.87
  138.07        2975.75           1566          70.00       274.63
  138.10        2976.00           1569          71.00       278.99
  138.13        2976.25           1573          73.00       287.71
  138.16        2976.50           1576          70.00       274.63
  138.19        2976.75           1579          74.00       292.07
  138.22        2977.00           1583          73.00       287.71
  138.26        2977.25           1586          70.00       274.63
  138.29        2977.50           1590          69.00       270.27
  138.32        2977.75           1593          65.00       252.84
  138.35        2978.00           1596          62.00       239.76
  138.38        2978.25           1600          70.00       274.63
  138.41        2978.50           1603          66.00       257.19
  138.44        2978.75           1606          69.00       270.27
  138.47        2979.00           1610          71.00       278.99
  138.50        2979.25           1613          67.00       261.55
  138.53        2979.50           1616          70.00       274.63
  138.56        2979.75           1620          67.00       261.55
  138.59        2980.00           1623          64.00       248.48
  138.63        2980.25           1626          73.00       287.71
  138.66        2980.50           1630          71.00       278.99
  138.69        2980.75           1633          69.00       270.27
  138.72        2981.00           1637          75.00       296.43
  138.75        2981.25           1640          67.00       261.55
  138.78        2981.50           1643          65.00       252.84
  138.81        2981.75           1647          70.00       274.63
  138.84        2982.00           1650          61.00       235.40
  138.87        2982.25           1653          67.00       261.55
  138.90        2982.50           1657          68.00       265.91
  138.93        2982.75           1660          80.00       318.22
  138.96        2983.00           1663          58.00       222.32
  138.99        2983.25           1667          73.00       287.71
  139.03        2983.50           1670          76.00       300.79
  139.06        2983.75           1673          62.00       239.76
  139.09        2984.00           1677          64.00       248.48
HS scan finished at 02:19:18
end
************************************************************
  HS Scan of (1) Internal mercury lamp
************************************************************
Integration time is 0.2294 seconds per sample
dh150917Manchester 53.47 2.23 2.804185pr1000
************************************************************
Dead Time -------------------------  3E-08 
Number of Cycles Used -------------  4 
Starting Wavelength (Angstroms) ---  2950 
Final Wavelength (Angstoms) -------  2984 
Wavelength Increment (Angstroms) --  .25 
Filter Wheel #1 Position ---------- (1) Ground quartz diffuser (ND=2.32)
Filter Wheel #2 Position ---------- (1) Neutral Density 0.494



************************************************************
HS scan start time = 19:11:59
Dark Count =  6.9 


Time (GMT)  Wavelength (Ang)  Step Number  Raw Counts  Counts/Second

 1152.35        2950.00           1222          72.00       283.79
 1152.42        2950.25           1226          77.00       305.58
 1152.45        2950.50           1229          68.00       266.35
 1152.48        2950.75           1232          76.00       301.22
 1152.51        2951.00           1236          78.00       309.94
 1152.54        2951.25           1239          88.00       353.53
 1152.57        2951.50           1242          82.00       327.38
 1152.60        2951.75           1246          71.00       279.43
 1152.63        2952.00           1249          75.00       296.86
 1152.66        2952.25           1252          79.00       314.30
 1152.70        2952.50           1256          75.00       296.86
 1152.73        2952.75           1259          77.00       305.58
 1152.76        2953.00           1262          79.00       314.30
 1152.79        2953.25           1266          78.00       309.94
 1152.82        2953.50           1269          80.00       318.66
 1152.85        2953.75           1272          68.00       266.35
 1152.88        2954.00           1276          76.00       301.22
 1152.91        2954.25           1279          76.00       301.22
 1152.94        2954.50           1282          68.00       266.35
 1152.97        2954.75           1286          71.00       279.43
 1153.00        2955.00           1289          74.00       292.50
 1153.04        2955.25           1292          68.00       266.35
 1153.07        2955.50           1296          72.00       283.79
 1153.10        2955.75           1299          72.00       283.79
 1153.13        2956.00           1302          69.00       270.71
 1153.16        2956.25           1306          79.00       314.30
 1153.19        2956.50           1309          75.00       296.86
 1153.22        2956.75           1312          65.00       253.27
 1153.25        2957.00           1316          80.00       318.66
 1153.28        2957.25           1319          72.00       283.79
 1153.31        2957.50           1322          70.00       275.07
 1153.34        2957.75           1326          70.00       275.07
 1153.37        2958.00           1329          81.00       323.02
 1153.40        2958.25           1332          76.00       301.22
 1153.43        2958.50           1336          78.00       309.94
 1153.46        2958.75           1339          76.00       301.22
 1153.50        2959.00           1342          77.00       305.58
 1153.53        2959.25           1346          82.00       327.38
 1153.56        2959.50           1349          88.00       353.53
 1153.59        2959.75           1352          97.00       392.77
 1153.62        2960.00           1356         139.00       575.86
 1153.65        2960.25           1359         161.00       671.77
 1153.68        2960.50           1362         218.00       920.25
 1153.71        2960.75           1366         246.00      1042.32
 1153.74        2961.00           1369         282.00      1199.26
 1153.77        2961.25           1372         329.00      1404.16
 1153.80        2961.50           1376         406.00      1739.85
 1153.84        2961.75           1379         642.00      2768.76
 1153.87        2962.00           1382        1391.00      6034.66
 1153.90        2962.25           1386        3250.00     14143.32
 1153.93        2962.50           1389        4891.00     21304.37
 1153.96        2962.75           1392        6394.00     27865.92
 1153.99        2963.00           1396        8329.00     36317.23
 1154.02        2963.25           1399        9917.00     43256.19
 1154.05        2963.50           1402       11537.00     50337.95
 1154.08        2963.75           1406       13678.00     59701.87
 1154.12        2964.00           1409       15412.00     67289.58
 1154.15        2964.25           1412       16976.00     74136.37
 1154.18        2964.50           1416       19031.00     83136.91
 1154.21        2964.75           1419       20649.00     90226.89
 1154.24        2965.00           1422       22229.00     97153.28
 1154.27        2965.25           1426       24203.00    105810.90
 1154.30        2965.50           1429       25809.00    112857.90
 1154.33        2965.75           1432       27212.00    119016.60
 1154.36        2966.00           1436       29468.00    128924.50
 1154.39        2966.25           1439       30921.00    135308.80
 1154.43        2966.50           1442       32241.00    141110.90
 1154.46        2966.75           1446       33830.00    148098.10
 1154.49        2967.00           1449       34335.00    150319.40
 1154.52        2967.25           1452       34263.00    150002.60
 1154.55        2967.50           1456       34389.00    150556.90
 1154.58        2967.75           1459       34354.00    150402.90
 1154.61        2968.00           1462       34115.00    149351.70
 1154.64        2968.25           1466       33072.00    144764.70
 1154.67        2968.50           1469       31594.00    138266.80
 1154.71        2968.75           1472       29939.00    130993.70
 1154.74        2969.00           1476       28126.00    123030.00
 1154.77        2969.25           1479       26434.00    115601.20
 1154.80        2969.50           1482       24981.00    109224.40
 1154.83        2969.75           1486       22586.00     98718.69
 1154.86        2970.00           1489       21075.00     92094.10
 1154.89        2970.25           1492       19612.00     85682.47
 1154.92        2970.50           1496       17509.00     76470.35
 1154.95        2970.75           1499       15973.00     69745.16
 1154.98        2971.00           1502       14361.00     62690.15
 1155.02        2971.25           1506       12314.00     53735.64
 1155.05        2971.50           1509       10799.00     47111.44
 1155.08        2971.75           1513        8646.00     37702.17
 1155.11        2972.00           1516        7014.00     30573.37
 1155.14        2972.25           1519        5450.00     23744.46
 1155.17        2972.50           1523        3411.00     14845.76
 1155.20        2972.75           1526        1982.00      8612.08
 1155.23        2973.00           1529         771.00      3331.20
 1155.27        2973.25           1533         432.00      1853.20
 1155.30        2973.50           1536         356.00      1521.87
 1155.33        2973.75           1539         294.00      1251.57
 1155.36        2974.00           1543         254.00      1077.19
 1155.39        2974.25           1546         196.00       824.34
 1155.42        2974.50           1549         156.00       649.97
 1155.45        2974.75           1553          99.00       401.49
 1155.48        2975.00           1556          93.00       375.33
 1155.51        2975.25           1559          83.00       331.74
 1155.54        2975.50           1563          63.00       244.55
 1155.57        2975.75           1566          77.00       305.58
 1155.60        2976.00           1569          71.00       279.43
 1155.63        2976.25           1573          69.00       270.71
 1155.66        2976.50           1576          75.00       296.86
 1155.69        2976.75           1579          72.00       283.79
 1155.72        2977.00           1583          68.00       266.35
 1155.75        2977.25           1586          70.00       275.07
 1155.78        2977.50           1590          68.00       266.35
 1155.82        2977.75           1593          73.00       288.15
 1155.85        2978.00           1596          67.00       261.99
 1155.88        2978.25           1600          68.00       266.35
 1155.91        2978.50           1603          61.00       235.83
 1155.94        2978.75           1606          70.00       275.07
 1155.97        2979.00           1610          66.00       257.63
 1156.00        2979.25           1613          68.00       266.35
 1156.03        2979.50           1616          82.00       327.38
 1156.06        2979.75           1620          61.00       235.83
 1156.09        2980.00           1623          68.00       266.35
 1156.12        2980.25           1626          71.00       279.43
 1156.16        2980.50           1630          74.00       292.50
 1156.19        2980.75           1633          64.00       248.91
 1156.22        2981.00           1637          68.00       266.35
 1156.25        2981.25           1640          65.00       253.27
 1156.28        2981.50           1643          71.00       279.43
 1156.31        2981.75           1647          65.00       253.27
 1156.34        2982.00           1650          63.00       244.55
 1156.37        2982.25           1653          69.00       270.71
 1156.41        2982.50           1657          78.00       309.94
 1156.44        2982.75           1660          72.00       283.79
 1156.47        2983.00           1663          61.00       235.83
 1156.50        2983.25           1667          63.00       244.55
 1156.53        2983.50           1670          63.00       244.55
 1156.56        2983.75           1673          71.00       279.43
 1156.59        2984.00           1677          70.00       275.07
HS scan finished at 19:16:48
end
