************************************************************
  HS Scan of (1) Internal mercury lamp
************************************************************
Integration time is 0.2294 seconds per sample
dh090917Manchester 53.47 2.23 2.804185pr1000
************************************************************
Dead Time -------------------------  3E-08 
Number of Cycles Used -------------  4 
Starting Wavelength (Angstroms) ---  2950 
Final Wavelength (Angstoms) -------  2984 
Wavelength Increment (Angstroms) --  .25 
Filter Wheel #1 Position ---------- (1) Ground quartz diffuser (ND=2.32)
Filter Wheel #2 Position ---------- (1) Neutral Density 0.494



************************************************************
HS scan start time = 01:37:04
Dark Count =  5.3 


Time (GMT)  Wavelength (Ang)  Step Number  Raw Counts  Counts/Second

   97.44        2950.00           1222          82.00       334.35
   97.51        2950.25           1226          78.00       316.92
   97.54        2950.50           1229          86.00       351.79
   97.57        2950.75           1232          74.00       299.48
   97.60        2951.00           1236          79.00       321.28
   97.63        2951.25           1239          75.00       303.84
   97.66        2951.50           1242          76.00       308.20
   97.69        2951.75           1246          75.00       303.84
   97.72        2952.00           1249          75.00       303.84
   97.75        2952.25           1252          75.00       303.84
   97.79        2952.50           1256          76.00       308.20
   97.82        2952.75           1259          82.00       334.35
   97.85        2953.00           1262          81.00       329.99
   97.88        2953.25           1266          79.00       321.28
   97.91        2953.50           1269          74.00       299.48
   97.94        2953.75           1272          85.00       347.43
   97.97        2954.00           1276          77.00       312.56
   98.00        2954.25           1279          74.00       299.48
   98.03        2954.50           1282          83.00       338.71
   98.06        2954.75           1286          74.00       299.48
   98.09        2955.00           1289          77.00       312.56
   98.12        2955.25           1292          78.00       316.92
   98.15        2955.50           1296          81.00       329.99
   98.18        2955.75           1299          83.00       338.71
   98.22        2956.00           1302          69.00       277.68
   98.25        2956.25           1306          70.00       282.04
   98.28        2956.50           1309          82.00       334.35
   98.31        2956.75           1312          81.00       329.99
   98.34        2957.00           1316          95.00       391.02
   98.37        2957.25           1319          68.00       273.32
   98.40        2957.50           1322          74.00       299.48
   98.43        2957.75           1326          85.00       347.43
   98.46        2958.00           1329          83.00       338.71
   98.49        2958.25           1332          67.00       268.96
   98.52        2958.50           1336          71.00       286.40
   98.55        2958.75           1339          82.00       334.35
   98.59        2959.00           1342          71.00       286.40
   98.62        2959.25           1346          87.00       356.15
   98.65        2959.50           1349          88.00       360.51
   98.68        2959.75           1352         108.00       447.70
   98.71        2960.00           1356         144.00       604.63
   98.74        2960.25           1359         162.00       683.10
   98.77        2960.50           1362         204.00       866.20
   98.80        2960.75           1366         279.00      1193.16
   98.83        2961.00           1369         320.00      1371.90
   98.86        2961.25           1372         362.00      1555.00
   98.89        2961.50           1376         407.00      1751.18
   98.92        2961.75           1379         510.00      2200.23
   98.96        2962.00           1382         938.00      4066.32
   98.99        2962.25           1386        2451.00     10664.70
   99.02        2962.50           1389        3966.00     17274.42
   99.05        2962.75           1392        5512.00     24022.10
   99.08        2963.00           1396        7534.00     32851.45
   99.11        2963.25           1399        9155.00     39933.17
   99.14        2963.50           1402       10771.00     46996.03
   99.17        2963.75           1406       12908.00     56340.58
   99.20        2964.00           1409       14600.00     63742.97
   99.23        2964.25           1412       16210.00     70789.68
   99.26        2964.50           1416       18303.00     79954.85
   99.29        2964.75           1419       19869.00     86815.61
   99.32        2965.00           1422       21553.00     94196.50
   99.36        2965.25           1426       23589.00    103124.60
   99.39        2965.50           1429       25262.00    110464.40
   99.42        2965.75           1432       26703.00    116789.00
   99.45        2966.00           1436       29126.00    127429.10
   99.48        2966.25           1439       30588.00    133852.50
   99.51        2966.50           1442       32116.00    140568.40
   99.54        2966.75           1446       33776.00    147867.70
   99.57        2967.00           1449       34629.00    151619.60
   99.60        2967.25           1452       34901.00    152816.30
   99.63        2967.50           1456       34981.00    153168.20
   99.67        2967.75           1459       34825.00    152481.90
   99.70        2968.00           1462       34926.00    152926.30
   99.73        2968.25           1466       34135.00    149446.70
   99.76        2968.50           1469       32937.00    144178.10
   99.79        2968.75           1472       31543.00    138049.60
   99.82        2969.00           1476       29352.00    128421.90
   99.85        2969.25           1479       27807.00    121636.20
   99.88        2969.50           1482       26367.00    115314.10
   99.91        2969.75           1486       24043.00    105116.10
   99.94        2970.00           1489       22346.00     97673.31
   99.98        2970.25           1492       20921.00     91426.09
  100.01        2970.50           1496       18884.00     82499.91
  100.04        2970.75           1499       17208.00     75159.25
  100.07        2971.00           1502       15826.00     69108.70
  100.10        2971.25           1506       13610.00     59411.39
  100.13        2971.50           1509       11966.00     52220.81
  100.16        2971.75           1513        9773.00     42633.84
  100.19        2972.00           1516        8168.00     35620.87
  100.22        2972.25           1519        6533.00     28479.86
  100.25        2972.50           1523        4291.00     18692.69
  100.28        2972.75           1526        2827.00     12304.89
  100.32        2973.00           1529        1328.00      5766.91
  100.35        2973.25           1533         498.00      2147.92
  100.38        2973.50           1536         375.00      1611.67
  100.41        2973.75           1539         300.00      1284.71
  100.44        2974.00           1543         247.00      1053.65
  100.47        2974.25           1546         189.00       800.80
  100.50        2974.50           1549         139.00       582.83
  100.53        2974.75           1553         115.00       478.21
  100.56        2975.00           1556          93.00       382.31
  100.59        2975.25           1559          84.00       343.07
  100.62        2975.50           1563          69.00       277.68
  100.65        2975.75           1566          70.00       282.04
  100.69        2976.00           1569          81.00       329.99
  100.72        2976.25           1573          68.00       273.32
  100.75        2976.50           1576          74.00       299.48
  100.78        2976.75           1579          87.00       356.15
  100.81        2977.00           1583          73.00       295.12
  100.84        2977.25           1586          68.00       273.32
  100.87        2977.50           1590          74.00       299.48
  100.90        2977.75           1593          69.00       277.68
  100.93        2978.00           1596          69.00       277.68
  100.96        2978.25           1600          70.00       282.04
  100.99        2978.50           1603          71.00       286.40
  101.03        2978.75           1606          76.00       308.20
  101.06        2979.00           1610          68.00       273.32
  101.09        2979.25           1613          79.00       321.28
  101.12        2979.50           1616          72.00       290.76
  101.15        2979.75           1620          73.00       295.12
  101.18        2980.00           1623          73.00       295.12
  101.21        2980.25           1626          71.00       286.40
  101.24        2980.50           1630          73.00       295.12
  101.27        2980.75           1633          75.00       303.84
  101.30        2981.00           1637          71.00       286.40
  101.33        2981.25           1640          71.00       286.40
  101.36        2981.50           1643          77.00       312.56
  101.39        2981.75           1647          79.00       321.28
  101.43        2982.00           1650          59.00       234.09
  101.46        2982.25           1653          71.00       286.40
  101.49        2982.50           1657          69.00       277.68
  101.52        2982.75           1660          73.00       295.12
  101.55        2983.00           1663          66.00       264.61
  101.58        2983.25           1667          74.00       299.48
  101.61        2983.50           1670          69.00       277.68
  101.64        2983.75           1673          72.00       290.76
  101.67        2984.00           1677          67.00       268.96
HS scan finished at 01:41:53
end
************************************************************
  HS Scan of (1) Internal mercury lamp
************************************************************
Integration time is 0.2294 seconds per sample
dh090917Manchester 53.47 2.23 2.804185pr1000
************************************************************
Dead Time -------------------------  3E-08 
Number of Cycles Used -------------  4 
Starting Wavelength (Angstroms) ---  2950 
Final Wavelength (Angstoms) -------  2984 
Wavelength Increment (Angstroms) --  .25 
Filter Wheel #1 Position ---------- (1) Ground quartz diffuser (ND=2.32)
Filter Wheel #2 Position ---------- (1) Neutral Density 0.494



************************************************************
HS scan start time = 19:42:03
Dark Count =  4.8 


Time (GMT)  Wavelength (Ang)  Step Number  Raw Counts  Counts/Second

 1182.42        2950.00           1222          83.00       340.89
 1182.48        2950.25           1226          72.00       292.94
 1182.51        2950.50           1229          73.00       297.30
 1182.54        2950.75           1232          80.00       327.81
 1182.57        2951.00           1236          70.00       284.22
 1182.61        2951.25           1239          74.00       301.66
 1182.64        2951.50           1242          81.00       332.17
 1182.67        2951.75           1246          74.00       301.66
 1182.70        2952.00           1249          71.00       288.58
 1182.73        2952.25           1252          78.00       319.10
 1182.76        2952.50           1256          80.00       327.81
 1182.79        2952.75           1259          79.00       323.46
 1182.82        2953.00           1262          78.00       319.10
 1182.85        2953.25           1266          76.00       310.38
 1182.88        2953.50           1269          76.00       310.38
 1182.91        2953.75           1272          77.00       314.74
 1182.94        2954.00           1276          75.00       306.02
 1182.97        2954.25           1279          79.00       323.46
 1183.00        2954.50           1282          85.00       349.61
 1183.03        2954.75           1286          78.00       319.10
 1183.06        2955.00           1289          77.00       314.74
 1183.10        2955.25           1292          75.00       306.02
 1183.13        2955.50           1296          80.00       327.81
 1183.16        2955.75           1299          76.00       310.38
 1183.19        2956.00           1302          82.00       336.53
 1183.22        2956.25           1306          76.00       310.38
 1183.25        2956.50           1309          72.00       292.94
 1183.28        2956.75           1312          67.00       271.14
 1183.31        2957.00           1316          74.00       301.66
 1183.34        2957.25           1319          72.00       292.94
 1183.37        2957.50           1322          87.00       358.33
 1183.40        2957.75           1326          82.00       336.53
 1183.43        2958.00           1329          62.00       249.35
 1183.46        2958.25           1332          76.00       310.38
 1183.50        2958.50           1336          73.00       297.30
 1183.53        2958.75           1339          77.00       314.74
 1183.56        2959.00           1342          77.00       314.74
 1183.59        2959.25           1346          89.00       367.05
 1183.62        2959.50           1349          95.00       393.20
 1183.65        2959.75           1352         104.00       432.44
 1183.68        2960.00           1356         131.00       550.14
 1183.71        2960.25           1359         161.00       680.92
 1183.74        2960.50           1362         207.00       881.45
 1183.77        2960.75           1366         257.00      1099.43
 1183.81        2961.00           1369         302.00      1295.60
 1183.84        2961.25           1372         365.00      1570.26
 1183.87        2961.50           1376         421.00      1814.40
 1183.90        2961.75           1379         537.00      2320.13
 1183.93        2962.00           1382         987.00      4282.16
 1183.96        2962.25           1386        2465.00     10727.95
 1183.99        2962.50           1389        4037.00     17586.43
 1184.02        2962.75           1392        5565.00     24255.66
 1184.05        2963.00           1396        7543.00     32892.95
 1184.09        2963.25           1399        9177.00     40031.49
 1184.12        2963.50           1402       10657.00     46499.87
 1184.15        2963.75           1406       13062.00     57016.37
 1184.18        2964.00           1409       14678.00     64086.48
 1184.21        2964.25           1412       16360.00     71448.54
 1184.24        2964.50           1416       18629.00     81385.03
 1184.27        2964.75           1419       20217.00     88342.81
 1184.30        2965.00           1422       21997.00     96145.28
 1184.33        2965.25           1426       24109.00    105407.80
 1184.36        2965.50           1429       25577.00    111849.00
 1184.40        2965.75           1432       27169.00    118837.00
 1184.43        2966.00           1436       29248.00    127967.20
 1184.46        2966.25           1439       30753.00    134579.80
 1184.49        2966.50           1442       32314.00    141441.10
 1184.52        2966.75           1446       33923.00    148516.40
 1184.55        2967.00           1449       34368.00    150473.70
 1184.58        2967.25           1452       34558.00    151309.50
 1184.61        2967.50           1456       34627.00    151613.10
 1184.64        2967.75           1459       34391.00    150574.90
 1184.68        2968.00           1462       34344.00    150368.20
 1184.71        2968.25           1466       33671.00    147408.10
 1184.74        2968.50           1469       32405.00    141841.20
 1184.77        2968.75           1472       31061.00    135933.40
 1184.80        2969.00           1476       28641.00    125301.00
 1184.83        2969.25           1479       27209.00    119012.70
 1184.86        2969.50           1482       25499.00    111506.70
 1184.89        2969.75           1486       23678.00    103517.10
 1184.92        2970.00           1489       21947.00     95926.05
 1184.95        2970.25           1492       20505.00     89604.98
 1184.99        2970.50           1496       18278.00     79847.53
 1185.02        2970.75           1499       16653.00     72731.31
 1185.05        2971.00           1502       15109.00     65972.65
 1185.08        2971.25           1506       12969.00     56609.57
 1185.11        2971.50           1509       11378.00     49651.94
 1185.14        2971.75           1513        9493.00     41412.36
 1185.17        2972.00           1516        7866.00     34303.81
 1185.20        2972.25           1519        6328.00     27586.90
 1185.23        2972.50           1523        4369.00     19035.28
 1185.27        2972.75           1526        2809.00     12228.55
 1185.30        2973.00           1529        1440.00      6257.50
 1185.33        2973.25           1533         496.00      2141.38
 1185.36        2973.50           1536         356.00      1531.02
 1185.39        2973.75           1539         297.00      1273.81
 1185.42        2974.00           1543         260.00      1112.50
 1185.45        2974.25           1546         184.00       781.19
 1185.48        2974.50           1549         154.00       650.41
 1185.51        2974.75           1553         104.00       432.44
 1185.54        2975.00           1556          83.00       340.89
 1185.57        2975.25           1559          84.00       345.25
 1185.60        2975.50           1563          76.00       310.38
 1185.64        2975.75           1566          63.00       253.71
 1185.67        2976.00           1569          81.00       332.17
 1185.70        2976.25           1573          69.00       279.86
 1185.73        2976.50           1576          68.00       275.50
 1185.76        2976.75           1579          77.00       314.74
 1185.79        2977.00           1583          70.00       284.22
 1185.82        2977.25           1586          74.00       301.66
 1185.85        2977.50           1590          79.00       323.46
 1185.88        2977.75           1593          79.00       323.46
 1185.91        2978.00           1596          64.00       258.07
 1185.94        2978.25           1600          78.00       319.10
 1185.97        2978.50           1603          68.00       275.50
 1186.01        2978.75           1606          75.00       306.02
 1186.04        2979.00           1610          69.00       279.86
 1186.07        2979.25           1613          85.00       349.61
 1186.10        2979.50           1616          80.00       327.81
 1186.13        2979.75           1620          71.00       288.58
 1186.16        2980.00           1623          69.00       279.86
 1186.19        2980.25           1626          68.00       275.50
 1186.22        2980.50           1630          71.00       288.58
 1186.25        2980.75           1633          75.00       306.02
 1186.28        2981.00           1637          66.00       266.79
 1186.31        2981.25           1640          76.00       310.38
 1186.34        2981.50           1643          74.00       301.66
 1186.37        2981.75           1647          75.00       306.02
 1186.41        2982.00           1650          68.00       275.50
 1186.44        2982.25           1653          72.00       292.94
 1186.47        2982.50           1657          73.00       297.30
 1186.50        2982.75           1660          71.00       288.58
 1186.53        2983.00           1663          77.00       314.74
 1186.56        2983.25           1667          68.00       275.50
 1186.59        2983.50           1670          71.00       288.58
 1186.62        2983.75           1673          72.00       292.94
 1186.65        2984.00           1677          72.00       292.94
HS scan finished at 19:46:52
end
