************************************************************
  HS Scan of (1) Internal mercury lamp
************************************************************
Integration time is 0.2294 seconds per sample
dh140917Manchester 53.47 2.23 2.804185pr1000
************************************************************
Dead Time -------------------------  3E-08 
Number of Cycles Used -------------  4 
Starting Wavelength (Angstroms) ---  2950 
Final Wavelength (Angstoms) -------  2984 
Wavelength Increment (Angstroms) --  .25 
Filter Wheel #1 Position ---------- (1) Ground quartz diffuser (ND=2.32)
Filter Wheel #2 Position ---------- (1) Neutral Density 0.494



************************************************************
HS scan start time = 02:09:25
Dark Count =  5.1 


Time (GMT)  Wavelength (Ang)  Step Number  Raw Counts  Counts/Second

  129.79        2950.00           1222          78.00       317.79
  129.86        2950.25           1226          67.00       269.84
  129.89        2950.50           1229          76.00       309.07
  129.92        2950.75           1232          74.00       300.35
  129.95        2951.00           1236          76.00       309.07
  129.98        2951.25           1239          78.00       317.79
  130.01        2951.50           1242          81.00       330.87
  130.04        2951.75           1246          78.00       317.79
  130.07        2952.00           1249          77.00       313.43
  130.10        2952.25           1252          73.00       295.99
  130.13        2952.50           1256          88.00       361.38
  130.17        2952.75           1259          72.00       291.63
  130.20        2953.00           1262          74.00       300.35
  130.23        2953.25           1266          77.00       313.43
  130.26        2953.50           1269          95.00       391.90
  130.29        2953.75           1272          73.00       295.99
  130.32        2954.00           1276          76.00       309.07
  130.35        2954.25           1279          83.00       339.59
  130.38        2954.50           1282          74.00       300.35
  130.41        2954.75           1286          74.00       300.35
  130.44        2955.00           1289          79.00       322.15
  130.48        2955.25           1292          79.00       322.15
  130.51        2955.50           1296          84.00       343.94
  130.54        2955.75           1299          67.00       269.84
  130.57        2956.00           1302          69.00       278.56
  130.60        2956.25           1306          78.00       317.79
  130.63        2956.50           1309          71.00       287.27
  130.66        2956.75           1312          75.00       304.71
  130.69        2957.00           1316          75.00       304.71
  130.72        2957.25           1319          67.00       269.84
  130.75        2957.50           1322          75.00       304.71
  130.78        2957.75           1326          76.00       309.07
  130.81        2958.00           1329          84.00       343.94
  130.84        2958.25           1332          72.00       291.63
  130.88        2958.50           1336          77.00       313.43
  130.91        2958.75           1339          70.00       282.91
  130.94        2959.00           1342          69.00       278.56
  130.97        2959.25           1346          82.00       335.23
  131.00        2959.50           1349          87.00       357.02
  131.03        2959.75           1352         106.00       439.85
  131.06        2960.00           1356         131.00       548.83
  131.09        2960.25           1359         161.00       679.61
  131.12        2960.50           1362         194.00       823.47
  131.15        2960.75           1366         251.00      1071.96
  131.18        2961.00           1369         288.00      1233.26
  131.22        2961.25           1372         334.00      1433.80
  131.25        2961.50           1376         422.00      1817.45
  131.28        2961.75           1379         561.00      2423.45
  131.31        2962.00           1382        1193.00      5179.10
  131.34        2962.25           1386        2886.00     12563.15
  131.37        2962.50           1389        4325.00     18841.95
  131.40        2962.75           1392        5721.00     24935.39
  131.43        2963.00           1396        8017.00     34962.11
  131.46        2963.25           1399        9673.00     42197.68
  131.49        2963.50           1402       11337.00     49471.37
  131.53        2963.75           1406       13441.00     58672.94
  131.56        2964.00           1409       14959.00     65314.87
  131.59        2964.25           1412       16661.00     72765.04
  131.62        2964.50           1416       18821.00     82224.81
  131.65        2964.75           1419       20431.00     89279.35
  131.68        2965.00           1422       22043.00     96345.64
  131.71        2965.25           1426       24300.00    106244.40
  131.74        2965.50           1429       25810.00    112870.20
  131.77        2965.75           1432       27230.00    119103.60
  131.81        2966.00           1436       29447.00    128840.10
  131.84        2966.25           1439       30998.00    135655.10
  131.87        2966.50           1442       32203.00    140951.80
  131.90        2966.75           1446       34131.00    149429.90
  131.93        2967.00           1449       34201.00    149737.80
  131.96        2967.25           1452       34529.00    151180.60
  131.99        2967.50           1456       34465.00    150899.10
  132.02        2967.75           1459       34398.00    150604.40
  132.05        2968.00           1462       34186.00    149671.90
  132.08        2968.25           1466       33488.00    146601.90
  132.12        2968.50           1469       32267.00    141233.20
  132.15        2968.75           1472       30597.00    133892.90
  132.18        2969.00           1476       28735.00    125712.50
  132.21        2969.25           1479       27066.00    118383.50
  132.24        2969.50           1482       25425.00    111180.60
  132.27        2969.75           1486       23309.00    101897.30
  132.30        2970.00           1489       21736.00     94999.66
  132.33        2970.25           1492       20131.00     87964.61
  132.36        2970.50           1496       18279.00     79850.60
  132.39        2970.75           1499       16657.00     72747.53
  132.42        2971.00           1502       15033.00     65638.72
  132.46        2971.25           1506       13067.00     57036.92
  132.49        2971.50           1509       11482.00     50105.35
  132.52        2971.75           1513        9377.00     40904.13
  132.55        2972.00           1516        7766.00     33865.69
  132.58        2972.25           1519        5982.00     26074.88
  132.61        2972.50           1523        3926.00     17100.75
  132.64        2972.75           1526        2552.00     11106.14
  132.67        2973.00           1529        1253.00      5440.73
  132.70        2973.25           1533         501.00      2161.87
  132.73        2973.50           1536         352.00      1512.27
  132.76        2973.75           1539         297.00      1272.50
  132.80        2974.00           1543         235.00      1002.21
  132.83        2974.25           1546         177.00       749.36
  132.86        2974.50           1549         141.00       592.43
  132.89        2974.75           1553         104.00       431.13
  132.92        2975.00           1556          94.00       387.54
  132.95        2975.25           1559          82.00       335.23
  132.98        2975.50           1563          70.00       282.91
  133.01        2975.75           1566          72.00       291.63
  133.04        2976.00           1569          66.00       265.48
  133.07        2976.25           1573          71.00       287.27
  133.10        2976.50           1576          69.00       278.56
  133.13        2976.75           1579          70.00       282.91
  133.17        2977.00           1583          73.00       295.99
  133.20        2977.25           1586          65.00       261.12
  133.23        2977.50           1590          71.00       287.27
  133.26        2977.75           1593          69.00       278.56
  133.29        2978.00           1596          75.00       304.71
  133.32        2978.25           1600          65.00       261.12
  133.35        2978.50           1603          76.00       309.07
  133.38        2978.75           1606          72.00       291.63
  133.41        2979.00           1610          63.00       252.40
  133.44        2979.25           1613          71.00       287.27
  133.47        2979.50           1616          68.00       274.20
  133.51        2979.75           1620          68.00       274.20
  133.54        2980.00           1623          61.00       243.68
  133.57        2980.25           1626          62.00       248.04
  133.60        2980.50           1630          74.00       300.35
  133.63        2980.75           1633          67.00       269.84
  133.66        2981.00           1637          70.00       282.91
  133.69        2981.25           1640          68.00       274.20
  133.72        2981.50           1643          67.00       269.84
  133.75        2981.75           1647          73.00       295.99
  133.78        2982.00           1650          60.00       239.32
  133.81        2982.25           1653          71.00       287.27
  133.84        2982.50           1657          70.00       282.91
  133.87        2982.75           1660          68.00       274.20
  133.91        2983.00           1663          64.00       256.76
  133.94        2983.25           1667          63.00       252.40
  133.97        2983.50           1670          60.00       239.32
  134.00        2983.75           1673          67.00       269.84
  134.03        2984.00           1677          67.00       269.84
HS scan finished at 02:14:15
end
************************************************************
  HS Scan of (1) Internal mercury lamp
************************************************************
Integration time is 0.2294 seconds per sample
dh140917Manchester 53.47 2.23 2.804185pr1000
************************************************************
Dead Time -------------------------  3E-08 
Number of Cycles Used -------------  4 
Starting Wavelength (Angstroms) ---  2950 
Final Wavelength (Angstoms) -------  2984 
Wavelength Increment (Angstroms) --  .25 
Filter Wheel #1 Position ---------- (1) Ground quartz diffuser (ND=2.32)
Filter Wheel #2 Position ---------- (1) Neutral Density 0.494



************************************************************
HS scan start time = 19:12:02
Dark Count =  6.4 


Time (GMT)  Wavelength (Ang)  Step Number  Raw Counts  Counts/Second

 1152.41        2950.00           1222          75.00       299.04
 1152.47        2950.25           1226          77.00       307.76
 1152.50        2950.50           1229          78.00       312.12
 1152.53        2950.75           1232          85.00       342.64
 1152.56        2951.00           1236          75.00       299.04
 1152.59        2951.25           1239          77.00       307.76
 1152.63        2951.50           1242          78.00       312.12
 1152.66        2951.75           1246          73.00       290.33
 1152.69        2952.00           1249          79.00       316.48
 1152.72        2952.25           1252          75.00       299.04
 1152.75        2952.50           1256          78.00       312.12
 1152.78        2952.75           1259          69.00       272.89
 1152.81        2953.00           1262          77.00       307.76
 1152.84        2953.25           1266          81.00       325.20
 1152.87        2953.50           1269          88.00       355.71
 1152.90        2953.75           1272          81.00       325.20
 1152.93        2954.00           1276          78.00       312.12
 1152.96        2954.25           1279          72.00       285.97
 1152.99        2954.50           1282          68.00       268.53
 1153.02        2954.75           1286          76.00       303.40
 1153.05        2955.00           1289          73.00       290.33
 1153.09        2955.25           1292          72.00       285.97
 1153.12        2955.50           1296          71.00       281.61
 1153.15        2955.75           1299          74.00       294.68
 1153.18        2956.00           1302          76.00       303.40
 1153.21        2956.25           1306          79.00       316.48
 1153.24        2956.50           1309          66.00       259.81
 1153.27        2956.75           1312          76.00       303.40
 1153.30        2957.00           1316          77.00       307.76
 1153.33        2957.25           1319          68.00       268.53
 1153.36        2957.50           1322          72.00       285.97
 1153.39        2957.75           1326          84.00       338.28
 1153.43        2958.00           1329          84.00       338.28
 1153.46        2958.25           1332          75.00       299.04
 1153.49        2958.50           1336          74.00       294.68
 1153.52        2958.75           1339          82.00       329.56
 1153.55        2959.00           1342          82.00       329.56
 1153.58        2959.25           1346          88.00       355.71
 1153.61        2959.50           1349          85.00       342.64
 1153.64        2959.75           1352          99.00       403.67
 1153.67        2960.00           1356         138.00       573.68
 1153.70        2960.25           1359         153.00       639.07
 1153.73        2960.50           1362         199.00       839.60
 1153.76        2960.75           1366         256.00      1088.09
 1153.80        2961.00           1369         308.00      1314.79
 1153.83        2961.25           1372         337.00      1441.21
 1153.86        2961.50           1376         414.00      1776.90
 1153.89        2961.75           1379         692.00      2988.93
 1153.92        2962.00           1382        1510.00      6555.78
 1153.95        2962.25           1386        3435.00     14952.65
 1153.98        2962.50           1389        4899.00     21341.47
 1154.01        2962.75           1392        6406.00     27920.50
 1154.04        2963.00           1396        8531.00     37201.92
 1154.08        2963.25           1399       10118.00     44136.87
 1154.11        2963.50           1402       11779.00     51398.29
 1154.14        2963.75           1406       13823.00     60338.42
 1154.17        2964.00           1409       15477.00     67576.26
 1154.20        2964.25           1412       17101.00     74685.90
 1154.23        2964.50           1416       19185.00     83813.79
 1154.26        2964.75           1419       20781.00     90807.64
 1154.29        2965.00           1422       22378.00     97808.81
 1154.32        2965.25           1426       24436.00    106835.30
 1154.35        2965.50           1429       25913.00    113316.60
 1154.38        2965.75           1432       27661.00    120990.20
 1154.41        2966.00           1436       29897.00    130811.40
 1154.45        2966.25           1439       31239.00    136708.60
 1154.48        2966.50           1442       32791.00    143531.30
 1154.51        2966.75           1446       34013.00    148905.20
 1154.54        2967.00           1449       34257.00    149978.40
 1154.57        2967.25           1452       34368.00    150466.70
 1154.60        2967.50           1456       34343.00    150356.70
 1154.63        2967.75           1459       34291.00    150128.00
 1154.66        2968.00           1462       33979.00    148755.70
 1154.69        2968.25           1466       33028.00    144573.40
 1154.72        2968.50           1469       31350.00    137196.50
 1154.76        2968.75           1472       29822.00    130481.90
 1154.79        2969.00           1476       27854.00    121837.70
 1154.82        2969.25           1479       26180.00    114488.50
 1154.85        2969.50           1482       24810.00    108476.20
 1154.88        2969.75           1486       22561.00     98611.27
 1154.91        2970.00           1489       21028.00     91890.28
 1154.94        2970.25           1492       19814.00     86569.78
 1154.97        2970.50           1496       17426.00     76109.06
 1155.00        2970.75           1499       15967.00     69721.10
 1155.04        2971.00           1502       14291.00     62386.05
 1155.07        2971.25           1506       12068.00     52662.03
 1155.10        2971.50           1509       10547.00     46012.03
 1155.13        2971.75           1513        8540.00     37241.24
 1155.16        2972.00           1516        6901.00     30082.07
 1155.19        2972.25           1519        5318.00     23170.42
 1155.22        2972.50           1523        3161.00     13757.20
 1155.25        2972.75           1526        1676.00      7279.71
 1155.28        2973.00           1529         743.00      3211.29
 1155.32        2973.25           1533         417.00      1789.98
 1155.35        2973.50           1536         336.00      1436.85
 1155.38        2973.75           1539         284.00      1210.16
 1155.41        2974.00           1543         244.00      1035.78
 1155.44        2974.25           1546         194.00       817.81
 1155.47        2974.50           1549         156.00       652.15
 1155.50        2974.75           1553         108.00       442.90
 1155.53        2975.00           1556          87.00       351.36
 1155.56        2975.25           1559          79.00       316.48
 1155.59        2975.50           1563          71.00       281.61
 1155.62        2975.75           1566          72.00       285.97
 1155.66        2976.00           1569          71.00       281.61
 1155.69        2976.25           1573          70.00       277.25
 1155.72        2976.50           1576          75.00       299.04
 1155.75        2976.75           1579          65.00       255.45
 1155.78        2977.00           1583          67.00       264.17
 1155.81        2977.25           1586          76.00       303.40
 1155.84        2977.50           1590          73.00       290.33
 1155.87        2977.75           1593          69.00       272.89
 1155.90        2978.00           1596          76.00       303.40
 1155.93        2978.25           1600          63.00       246.73
 1155.96        2978.50           1603          66.00       259.81
 1155.99        2978.75           1606          63.00       246.73
 1156.02        2979.00           1610          70.00       277.25
 1156.05        2979.25           1613          72.00       285.97
 1156.09        2979.50           1616          65.00       255.45
 1156.12        2979.75           1620          68.00       268.53
 1156.15        2980.00           1623          64.00       251.09
 1156.18        2980.25           1626          70.00       277.25
 1156.21        2980.50           1630          74.00       294.68
 1156.24        2980.75           1633          72.00       285.97
 1156.27        2981.00           1637          69.00       272.89
 1156.30        2981.25           1640          72.00       285.97
 1156.33        2981.50           1643          73.00       290.33
 1156.36        2981.75           1647          75.00       299.04
 1156.39        2982.00           1650          55.00       211.86
 1156.43        2982.25           1653          65.00       255.45
 1156.46        2982.50           1657          70.00       277.25
 1156.49        2982.75           1660          74.00       294.68
 1156.52        2983.00           1663          62.00       242.37
 1156.55        2983.25           1667          69.00       272.89
 1156.58        2983.50           1670          68.00       268.53
 1156.61        2983.75           1673          57.00       220.58
 1156.64        2984.00           1677          67.00       264.17
HS scan finished at 19:16:52
end
