************************************************************
  HS Scan of (1) Internal mercury lamp
************************************************************
Integration time is 0.2294 seconds per sample
dh070918Manchester 53.47 2.23 2.804185pr1000
************************************************************
Dead Time -------------------------  3E-08 
Number of Cycles Used -------------  4 
Starting Wavelength (Angstroms) ---  2950 
Final Wavelength (Angstoms) -------  2984 
Wavelength Increment (Angstroms) --  .25 
Filter Wheel #1 Position ---------- (1) Ground quartz diffuser (ND=2.32)
Filter Wheel #2 Position ---------- (1) Neutral Density 0.494



************************************************************
HS scan start time = 01:31:15
Dark Count =  5.9 


Time (GMT)  Wavelength (Ang)  Step Number  Raw Counts  Counts/Second

   91.61        2950.00           1222          53.00       205.32
   91.68        2950.25           1226          57.00       222.76
   91.71        2950.50           1229          44.00       166.09
   91.74        2950.75           1232          46.00       174.80
   91.77        2951.00           1236          54.00       209.68
   91.81        2951.25           1239          53.00       205.32
   91.84        2951.50           1242          57.00       222.76
   91.87        2951.75           1246          50.00       192.24
   91.90        2952.00           1249          50.00       192.24
   91.93        2952.25           1252          48.00       183.52
   91.96        2952.50           1256          49.00       187.88
   91.99        2952.75           1259          45.00       170.45
   92.02        2953.00           1262          54.00       209.68
   92.05        2953.25           1266          66.00       261.99
   92.08        2953.50           1269          50.00       192.24
   92.11        2953.75           1272          50.00       192.24
   92.14        2954.00           1276          55.00       214.04
   92.17        2954.25           1279          46.00       174.80
   92.20        2954.50           1282          53.00       205.32
   92.23        2954.75           1286          63.00       248.91
   92.27        2955.00           1289          52.00       200.96
   92.30        2955.25           1292          47.00       179.16
   92.33        2955.50           1296          46.00       174.80
   92.36        2955.75           1299          47.00       179.16
   92.39        2956.00           1302          54.00       209.68
   92.42        2956.25           1306          50.00       192.24
   92.45        2956.50           1309          47.00       179.16
   92.48        2956.75           1312          51.00       196.60
   92.51        2957.00           1316          53.00       205.32
   92.54        2957.25           1319          48.00       183.52
   92.57        2957.50           1322          47.00       179.16
   92.60        2957.75           1326          46.00       174.80
   92.64        2958.00           1329          51.00       196.60
   92.67        2958.25           1332          57.00       222.76
   92.70        2958.50           1336          45.00       170.45
   92.73        2958.75           1339          50.00       192.24
   92.76        2959.00           1342          54.00       209.68
   92.79        2959.25           1346          58.00       227.12
   92.82        2959.50           1349          62.00       244.55
   92.85        2959.75           1352          58.00       227.12
   92.88        2960.00           1356          93.00       379.69
   92.91        2960.25           1359         111.00       458.16
   92.94        2960.50           1362         137.00       571.50
   92.98        2960.75           1366         184.00       776.39
   93.01        2961.00           1369         215.00       911.53
   93.04        2961.25           1372         254.00      1081.55
   93.07        2961.50           1376         315.00      1347.48
   93.10        2961.75           1379         466.00      2005.79
   93.13        2962.00           1382         941.00      4076.78
   93.16        2962.25           1386        2296.00      9985.99
   93.19        2962.50           1389        3519.00     15321.34
   93.22        2962.75           1392        4764.00     20754.42
   93.25        2963.00           1396        6443.00     28084.25
   93.29        2963.25           1399        7639.00     33307.46
   93.32        2963.50           1402        9040.00     39428.04
   93.35        2963.75           1406       10604.00     46263.39
   93.38        2964.00           1409       11939.00     52100.12
   93.41        2964.25           1412       13067.00     57033.42
   93.44        2964.50           1416       14851.00     64838.73
   93.47        2964.75           1419       16051.00     70091.00
   93.50        2965.00           1422       17461.00     76264.53
   93.53        2965.25           1426       18963.00     82843.38
   93.57        2965.50           1429       20208.00     88298.55
   93.60        2965.75           1432       21516.00     94031.66
   93.63        2966.00           1436       23191.00    101376.30
   93.66        2966.25           1439       24440.00    106855.10
   93.69        2966.50           1442       25592.00    111910.00
   93.72        2966.75           1446       26813.00    117269.30
   93.75        2967.00           1449       27089.00    118481.00
   93.78        2967.25           1452       27224.00    119073.70
   93.82        2967.50           1456       27092.00    118494.20
   93.85        2967.75           1459       27233.00    119113.20
   93.88        2968.00           1462       26991.00    118050.70
   93.91        2968.25           1466       26412.00    115509.00
   93.94        2968.50           1469       25137.00    109913.30
   93.97        2968.75           1472       23969.00    104788.80
   94.00        2969.00           1476       22412.00     97960.09
   94.03        2969.25           1479       21155.00     92449.16
   94.06        2969.50           1482       19874.00     86834.90
   94.10        2969.75           1486       18202.00     79509.83
   94.13        2970.00           1489       16954.00     74044.43
   94.16        2970.25           1492       15894.00     69403.73
   94.19        2970.50           1496       14223.00     62090.70
   94.22        2970.75           1499       13026.00     56854.08
   94.25        2971.00           1502       11875.00     51820.25
   94.28        2971.25           1506       10078.00     43964.23
   94.31        2971.50           1509        8770.00     38248.31
   94.34        2971.75           1513        7049.00     30730.59
   94.37        2972.00           1516        5883.00     25639.16
   94.40        2972.25           1519        4650.00     20256.86
   94.44        2972.50           1523        2922.00     12716.71
   94.47        2972.75           1526        1726.00      7499.94
   94.50        2973.00           1529         743.00      3213.47
   94.53        2973.25           1533         363.00      1556.74
   94.56        2973.50           1536         294.00      1255.93
   94.59        2973.75           1539         243.00      1033.60
   94.62        2974.00           1543         203.00       859.22
   94.65        2974.25           1546         147.00       615.09
   94.68        2974.50           1549         117.00       484.31
   94.71        2974.75           1553          91.00       370.97
   94.75        2975.00           1556          67.00       266.35
   94.78        2975.25           1559          48.00       183.52
   94.81        2975.50           1563          47.00       179.16
   94.84        2975.75           1566          46.00       174.80
   94.87        2976.00           1569          48.00       183.52
   94.90        2976.25           1573          53.00       205.32
   94.93        2976.50           1576          62.00       244.55
   94.96        2976.75           1579          46.00       174.80
   94.99        2977.00           1583          47.00       179.16
   95.02        2977.25           1586          49.00       187.88
   95.05        2977.50           1590          49.00       187.88
   95.08        2977.75           1593          49.00       187.88
   95.12        2978.00           1596          51.00       196.60
   95.15        2978.25           1600          54.00       209.68
   95.18        2978.50           1603          42.00       157.37
   95.21        2978.75           1606          44.00       166.09
   95.24        2979.00           1610          52.00       200.96
   95.27        2979.25           1613          48.00       183.52
   95.30        2979.50           1616          44.00       166.09
   95.33        2979.75           1620          44.00       166.09
   95.36        2980.00           1623          50.00       192.24
   95.39        2980.25           1626          44.00       166.09
   95.42        2980.50           1630          43.00       161.73
   95.45        2980.75           1633          51.00       196.60
   95.48        2981.00           1637          41.00       153.01
   95.51        2981.25           1640          54.00       209.68
   95.55        2981.50           1643          51.00       196.60
   95.58        2981.75           1647          44.00       166.09
   95.61        2982.00           1650          45.00       170.45
   95.64        2982.25           1653          52.00       200.96
   95.67        2982.50           1657          45.00       170.45
   95.70        2982.75           1660          47.00       179.16
   95.73        2983.00           1663          45.00       170.45
   95.76        2983.25           1667          51.00       196.60
   95.79        2983.50           1670          41.00       153.01
   95.82        2983.75           1673          41.00       153.01
   95.85        2984.00           1677          44.00       166.09
HS scan finished at 01:36:04
end
************************************************************
  HS Scan of (1) Internal mercury lamp
************************************************************
Integration time is 0.2294 seconds per sample
dh070918Manchester 53.47 2.23 2.804185pr1000
************************************************************
Dead Time -------------------------  3E-08 
Number of Cycles Used -------------  4 
Starting Wavelength (Angstroms) ---  2950 
Final Wavelength (Angstoms) -------  2984 
Wavelength Increment (Angstroms) --  .25 
Filter Wheel #1 Position ---------- (1) Ground quartz diffuser (ND=2.32)
Filter Wheel #2 Position ---------- (1) Neutral Density 0.494



************************************************************
HS scan start time = 19:42:03
Dark Count =  7.5 


Time (GMT)  Wavelength (Ang)  Step Number  Raw Counts  Counts/Second

 1182.43        2950.00           1222          55.00       207.06
 1182.49        2950.25           1226          49.00       180.91
 1182.52        2950.50           1229          51.00       189.63
 1182.56        2950.75           1232          61.00       233.22
 1182.59        2951.00           1236          53.00       198.34
 1182.62        2951.25           1239          45.00       163.47
 1182.65        2951.50           1242          53.00       198.34
 1182.68        2951.75           1246          50.00       185.27
 1182.71        2952.00           1249          54.00       202.70
 1182.74        2952.25           1252          59.00       224.50
 1182.77        2952.50           1256          50.00       185.27
 1182.80        2952.75           1259          48.00       176.55
 1182.83        2953.00           1262          55.00       207.06
 1182.86        2953.25           1266          51.00       189.63
 1182.90        2953.50           1269          55.00       207.06
 1182.93        2953.75           1272          65.00       250.66
 1182.96        2954.00           1276          48.00       176.55
 1182.99        2954.25           1279          46.00       167.83
 1183.02        2954.50           1282          57.00       215.78
 1183.05        2954.75           1286          52.00       193.99
 1183.08        2955.00           1289          52.00       193.99
 1183.11        2955.25           1292          62.00       237.58
 1183.14        2955.50           1296          50.00       185.27
 1183.17        2955.75           1299          55.00       207.06
 1183.20        2956.00           1302          57.00       215.78
 1183.23        2956.25           1306          48.00       176.55
 1183.27        2956.50           1309          53.00       198.34
 1183.30        2956.75           1312          43.00       154.75
 1183.33        2957.00           1316          49.00       180.91
 1183.36        2957.25           1319          52.00       193.99
 1183.39        2957.50           1322          49.00       180.91
 1183.42        2957.75           1326          55.00       207.06
 1183.45        2958.00           1329          50.00       185.27
 1183.48        2958.25           1332          60.00       228.86
 1183.51        2958.50           1336          52.00       193.99
 1183.54        2958.75           1339          47.00       172.19
 1183.57        2959.00           1342          53.00       198.34
 1183.60        2959.25           1346          58.00       220.14
 1183.63        2959.50           1349          67.00       259.37
 1183.66        2959.75           1352          70.00       272.45
 1183.69        2960.00           1356         102.00       411.95
 1183.72        2960.25           1359         119.00       486.06
 1183.76        2960.50           1362         149.00       616.84
 1183.79        2960.75           1366         201.00       843.53
 1183.82        2961.00           1369         248.00      1048.42
 1183.85        2961.25           1372         278.00      1179.20
 1183.88        2961.50           1376         334.00      1423.34
 1183.91        2961.75           1379         446.00      1911.62
 1183.94        2962.00           1382         963.00      4165.73
 1183.97        2962.25           1386        2385.00     10367.22
 1184.00        2962.50           1389        3540.00     15405.99
 1184.03        2962.75           1392        4728.00     20590.31
 1184.06        2963.00           1396        6354.00     27688.64
 1184.09        2963.25           1399        7439.00     32426.91
 1184.13        2963.50           1402        8765.00     38219.47
 1184.16        2963.75           1406       10468.00     45661.90
 1184.19        2964.00           1409       11716.00     51118.01
 1184.22        2964.25           1412       13171.00     57481.34
 1184.25        2964.50           1416       14750.00     64389.74
 1184.28        2964.75           1419       16057.00     70110.25
 1184.31        2965.00           1422       17207.00     75145.24
 1184.34        2965.25           1426       18839.00     82293.15
 1184.37        2965.50           1429       20177.00     88155.68
 1184.40        2965.75           1432       21487.00     93897.52
 1184.44        2966.00           1436       22907.00    100123.80
 1184.47        2966.25           1439       24240.00    105970.60
 1184.50        2966.50           1442       25481.00    111415.80
 1184.53        2966.75           1446       26893.00    117613.50
 1184.56        2967.00           1449       27086.00    118460.80
 1184.59        2967.25           1452       27128.00    118645.20
 1184.62        2967.50           1456       26985.00    118017.40
 1184.65        2967.75           1459       27222.00    119057.90
 1184.68        2968.00           1462       26950.00    117863.70
 1184.71        2968.25           1466       26340.00    115185.90
 1184.75        2968.50           1469       25375.00    110950.60
 1184.78        2968.75           1472       24117.00    105431.00
 1184.81        2969.00           1476       22442.00     98084.62
 1184.84        2969.25           1479       21335.00     93231.19
 1184.87        2969.50           1482       20082.00     87739.36
 1184.90        2969.75           1486       18206.00     79520.35
 1184.93        2970.00           1489       17022.00     74335.16
 1184.96        2970.25           1492       15786.00     68923.98
 1184.99        2970.50           1496       14279.00     62328.73
 1185.03        2970.75           1499       12966.00     56584.64
 1185.06        2971.00           1502       11668.00     50908.12
 1185.09        2971.25           1506        9960.00     43441.50
 1185.12        2971.50           1509        8760.00     38197.63
 1185.15        2971.75           1513        7186.00     31321.92
 1185.18        2972.00           1516        5937.00     25867.93
 1185.21        2972.25           1519        4613.00     20088.39
 1185.24        2972.50           1523        3024.00     13154.71
 1185.27        2972.75           1526        1849.00      8029.40
 1185.31        2973.00           1529         903.00      3904.12
 1185.34        2973.25           1533         352.00      1501.81
 1185.37        2973.50           1536         251.00      1061.50
 1185.40        2973.75           1539         219.00       922.00
 1185.43        2974.00           1543         182.00       760.70
 1185.46        2974.25           1546         126.00       516.57
 1185.49        2974.50           1549         101.00       407.59
 1185.52        2974.75           1553          74.00       289.89
 1185.55        2975.00           1556          63.00       241.94
 1185.58        2975.25           1559          58.00       220.14
 1185.61        2975.50           1563          58.00       220.14
 1185.64        2975.75           1566          48.00       176.55
 1185.67        2976.00           1569          49.00       180.91
 1185.71        2976.25           1573          45.00       163.47
 1185.74        2976.50           1576          47.00       172.19
 1185.77        2976.75           1579          47.00       172.19
 1185.80        2977.00           1583          51.00       189.63
 1185.83        2977.25           1586          45.00       163.47
 1185.86        2977.50           1590          44.00       159.11
 1185.89        2977.75           1593          54.00       202.70
 1185.92        2978.00           1596          43.00       154.75
 1185.95        2978.25           1600          48.00       176.55
 1185.98        2978.50           1603          49.00       180.91
 1186.01        2978.75           1606          49.00       180.91
 1186.04        2979.00           1610          53.00       198.34
 1186.07        2979.25           1613          52.00       193.99
 1186.11        2979.50           1616          59.00       224.50
 1186.14        2979.75           1620          47.00       172.19
 1186.17        2980.00           1623          53.00       198.34
 1186.20        2980.25           1626          46.00       167.83
 1186.23        2980.50           1630          44.00       159.11
 1186.26        2980.75           1633          51.00       189.63
 1186.29        2981.00           1637          50.00       185.27
 1186.32        2981.25           1640          49.00       180.91
 1186.35        2981.50           1643          41.00       146.03
 1186.38        2981.75           1647          48.00       176.55
 1186.41        2982.00           1650          45.00       163.47
 1186.44        2982.25           1653          46.00       167.83
 1186.48        2982.50           1657          40.00       141.67
 1186.51        2982.75           1660          47.00       172.19
 1186.54        2983.00           1663          49.00       180.91
 1186.57        2983.25           1667          47.00       172.19
 1186.60        2983.50           1670          52.00       193.99
 1186.63        2983.75           1673          45.00       163.47
 1186.66        2984.00           1677          45.00       163.47
HS scan finished at 19:46:53
end
