************************************************************
  HS Scan of (1) Internal mercury lamp
************************************************************
Integration time is 0.2294 seconds per sample
dh140918Manchester 53.47 2.23 2.804185pr1000
************************************************************
Dead Time -------------------------  3E-08 
Number of Cycles Used -------------  4 
Starting Wavelength (Angstroms) ---  2950 
Final Wavelength (Angstoms) -------  2984 
Wavelength Increment (Angstroms) --  .25 
Filter Wheel #1 Position ---------- (1) Ground quartz diffuser (ND=2.32)
Filter Wheel #2 Position ---------- (1) Neutral Density 0.494



************************************************************
HS scan start time = 02:08:09
Dark Count =  6.8 


Time (GMT)  Wavelength (Ang)  Step Number  Raw Counts  Counts/Second

  128.51        2950.00           1222          46.00       170.88
  128.58        2950.25           1226          56.00       214.47
  128.61        2950.50           1229          59.00       227.55
  128.64        2950.75           1232          52.00       197.04
  128.67        2951.00           1236          52.00       197.04
  128.70        2951.25           1239          51.00       192.68
  128.73        2951.50           1242          53.00       201.40
  128.76        2951.75           1246          52.00       197.04
  128.80        2952.00           1249          53.00       201.40
  128.83        2952.25           1252          49.00       183.96
  128.86        2952.50           1256          54.00       205.76
  128.89        2952.75           1259          49.00       183.96
  128.92        2953.00           1262          62.00       240.63
  128.95        2953.25           1266          54.00       205.76
  128.98        2953.50           1269          51.00       192.68
  129.01        2953.75           1272          48.00       179.60
  129.04        2954.00           1276          47.00       175.24
  129.07        2954.25           1279          47.00       175.24
  129.10        2954.50           1282          51.00       192.68
  129.13        2954.75           1286          57.00       218.83
  129.16        2955.00           1289          54.00       205.76
  129.20        2955.25           1292          51.00       192.68
  129.23        2955.50           1296          46.00       170.88
  129.26        2955.75           1299          43.00       157.80
  129.29        2956.00           1302          56.00       214.47
  129.32        2956.25           1306          48.00       179.60
  129.35        2956.50           1309          59.00       227.55
  129.38        2956.75           1312          52.00       197.04
  129.41        2957.00           1316          50.00       188.32
  129.44        2957.25           1319          59.00       227.55
  129.47        2957.50           1322          53.00       201.40
  129.50        2957.75           1326          55.00       210.11
  129.53        2958.00           1329          48.00       179.60
  129.57        2958.25           1332          51.00       192.68
  129.60        2958.50           1336          55.00       210.11
  129.63        2958.75           1339          44.00       162.16
  129.66        2959.00           1342          46.00       170.88
  129.69        2959.25           1346          55.00       210.11
  129.72        2959.50           1349          58.00       223.19
  129.75        2959.75           1352          70.00       275.50
  129.78        2960.00           1356          86.00       345.25
  129.81        2960.25           1359         106.00       432.44
  129.84        2960.50           1362         143.00       593.73
  129.87        2960.75           1366         181.00       759.39
  129.90        2961.00           1369         207.00       872.73
  129.93        2961.25           1372         255.00      1081.99
  129.96        2961.50           1376         302.00      1286.89
  129.99        2961.75           1379         450.00      1932.11
  130.03        2962.00           1382        1002.00      4338.84
  130.06        2962.25           1386        2470.00     10741.04
  130.09        2962.50           1389        3718.00     16185.71
  130.12        2962.75           1392        4929.00     21470.67
  130.15        2963.00           1396        6507.00     28359.78
  130.18        2963.25           1399        7692.00     33535.03
  130.21        2963.50           1402        8935.00     38965.32
  130.24        2963.75           1406       10597.00     46228.85
  130.27        2964.00           1409       11808.00     51523.35
  130.30        2964.25           1412       13117.00     57248.19
  130.33        2964.50           1416       14699.00     64169.62
  130.36        2964.75           1419       15959.00     69684.32
  130.40        2965.00           1422       17360.00     75818.29
  130.43        2965.25           1426       19123.00     83540.41
  130.46        2965.50           1429       20404.00     89153.56
  130.49        2965.75           1432       21541.00     94137.31
  130.52        2966.00           1436       23322.00    101946.90
  130.55        2966.25           1439       24388.00    106623.00
  130.58        2966.50           1442       25467.00    111357.40
  130.61        2966.75           1446       26686.00    116707.80
  130.64        2967.00           1449       26897.00    117634.10
  130.67        2967.25           1452       26869.00    117511.20
  130.70        2967.50           1456       26867.00    117502.40
  130.74        2967.75           1459       26821.00    117300.50
  130.77        2968.00           1462       26843.00    117397.00
  130.80        2968.25           1466       25698.00    112371.20
  130.83        2968.50           1469       24663.00    107829.50
  130.86        2968.75           1472       23461.00    102556.60
  130.89        2969.00           1476       21990.00     96105.81
  130.92        2969.25           1479       20792.00     90854.09
  130.95        2969.50           1482       19493.00     85161.50
  130.98        2969.75           1486       17933.00     78327.70
  131.01        2970.00           1489       16702.00     72937.10
  131.04        2970.25           1492       15665.00     68397.40
  131.07        2970.50           1496       13948.00     60883.56
  131.11        2970.75           1499       12573.00     54868.80
  131.14        2971.00           1502       11366.00     49590.73
  131.17        2971.25           1506        9687.00     42251.44
  131.20        2971.50           1509        8332.00     36330.77
  131.23        2971.75           1513        6792.00     29604.31
  131.26        2972.00           1516        5483.00     23888.96
  131.29        2972.25           1519        4367.00     19017.82
  131.32        2972.50           1523        2731.00     11879.56
  131.35        2972.75           1526        1580.00      6859.30
  131.38        2973.00           1529         725.00      3131.07
  131.41        2973.25           1533         344.00      1469.99
  131.44        2973.50           1536         272.00      1156.10
  131.48        2973.75           1539         231.00       977.36
  131.51        2974.00           1543         209.00       881.45
  131.54        2974.25           1546         154.00       641.69
  131.57        2974.50           1549         123.00       506.55
  131.60        2974.75           1553          93.00       375.77
  131.63        2975.00           1556          62.00       240.63
  131.66        2975.25           1559          59.00       227.55
  131.69        2975.50           1563          44.00       162.16
  131.72        2975.75           1566          50.00       188.32
  131.75        2976.00           1569          50.00       188.32
  131.79        2976.25           1573          54.00       205.76
  131.82        2976.50           1576          49.00       183.96
  131.85        2976.75           1579          55.00       210.11
  131.88        2977.00           1583          54.00       205.76
  131.91        2977.25           1586          46.00       170.88
  131.94        2977.50           1590          49.00       183.96
  131.97        2977.75           1593          64.00       249.35
  132.00        2978.00           1596          49.00       183.96
  132.03        2978.25           1600          53.00       201.40
  132.06        2978.50           1603          46.00       170.88
  132.09        2978.75           1606          57.00       218.83
  132.13        2979.00           1610          51.00       192.68
  132.16        2979.25           1613          40.00       144.73
  132.19        2979.50           1616          47.00       175.24
  132.22        2979.75           1620          50.00       188.32
  132.25        2980.00           1623          51.00       192.68
  132.28        2980.25           1626          42.00       153.44
  132.31        2980.50           1630          41.00       149.09
  132.34        2980.75           1633          44.00       162.16
  132.37        2981.00           1637          40.00       144.73
  132.40        2981.25           1640          44.00       162.16
  132.43        2981.50           1643          51.00       192.68
  132.46        2981.75           1647          43.00       157.80
  132.50        2982.00           1650          52.00       197.04
  132.53        2982.25           1653          50.00       188.32
  132.56        2982.50           1657          38.00       136.01
  132.59        2982.75           1660          40.00       144.73
  132.62        2983.00           1663          47.00       175.24
  132.65        2983.25           1667          48.00       179.60
  132.68        2983.50           1670          46.00       170.88
  132.71        2983.75           1673          47.00       175.24
  132.74        2984.00           1677          43.00       157.80
HS scan finished at 02:12:57
end
************************************************************
  HS Scan of (1) Internal mercury lamp
************************************************************
Integration time is 0.2294 seconds per sample
dh140918Manchester 53.47 2.23 2.857833pr1000
************************************************************
Dead Time -------------------------  3E-08 
Number of Cycles Used -------------  4 
Starting Wavelength (Angstroms) ---  2950 
Final Wavelength (Angstoms) -------  2984 
Wavelength Increment (Angstroms) --  .25 
Filter Wheel #1 Position ---------- (1) Ground quartz diffuser (ND=2.32)
Filter Wheel #2 Position ---------- (1) Neutral Density 0.494



************************************************************
HS scan start time = 19:42:00
Dark Count =  5.7 


Time (GMT)  Wavelength (Ang)  Step Number  Raw Counts  Counts/Second

 1182.37        2950.00           1222          48.00       184.40
 1182.44        2950.25           1226          47.00       180.04
 1182.47        2950.50           1229          54.00       210.55
 1182.50        2950.75           1232          47.00       180.04
 1182.53        2951.00           1236          55.00       214.91
 1182.56        2951.25           1239          54.00       210.55
 1182.59        2951.50           1242          49.00       188.75
 1182.62        2951.75           1246          45.00       171.32
 1182.65        2952.00           1249          54.00       210.55
 1182.68        2952.25           1252          51.00       197.47
 1182.71        2952.50           1256          59.00       232.35
 1182.74        2952.75           1259          48.00       184.40
 1182.78        2953.00           1262          53.00       206.19
 1182.81        2953.25           1266          56.00       219.27
 1182.84        2953.50           1269          49.00       188.75
 1182.87        2953.75           1272          47.00       180.04
 1182.90        2954.00           1276          53.00       206.19
 1182.93        2954.25           1279          54.00       210.55
 1182.96        2954.50           1282          52.00       201.83
 1182.99        2954.75           1286          52.00       201.83
 1183.02        2955.00           1289          53.00       206.19
 1183.05        2955.25           1292          49.00       188.75
 1183.08        2955.50           1296          38.00       140.80
 1183.11        2955.75           1299          57.00       223.63
 1183.14        2956.00           1302          52.00       201.83
 1183.17        2956.25           1306          53.00       206.19
 1183.20        2956.50           1309          47.00       180.04
 1183.24        2956.75           1312          54.00       210.55
 1183.27        2957.00           1316          56.00       219.27
 1183.30        2957.25           1319          52.00       201.83
 1183.33        2957.50           1322          57.00       223.63
 1183.36        2957.75           1326          53.00       206.19
 1183.39        2958.00           1329          45.00       171.32
 1183.42        2958.25           1332          52.00       201.83
 1183.45        2958.50           1336          51.00       197.47
 1183.48        2958.75           1339          47.00       180.04
 1183.51        2959.00           1342          42.00       158.24
 1183.55        2959.25           1346          55.00       214.91
 1183.58        2959.50           1349          56.00       219.27
 1183.61        2959.75           1352          65.00       258.50
 1183.64        2960.00           1356          92.00       376.20
 1183.67        2960.25           1359         131.00       546.22
 1183.70        2960.50           1362         148.00       620.33
 1183.73        2960.75           1366         201.00       851.37
 1183.76        2961.00           1369         227.00       964.72
 1183.79        2961.25           1372         258.00      1099.86
 1183.82        2961.50           1376         328.00      1405.03
 1183.85        2961.75           1379         449.00      1932.54
 1183.89        2962.00           1382         944.00      4090.74
 1183.92        2962.25           1386        2306.00     10030.48
 1183.95        2962.50           1389        3509.00     15278.58
 1183.98        2962.75           1392        4662.00     20310.10
 1184.01        2963.00           1396        6397.00     27884.26
 1184.04        2963.25           1399        7631.00     33273.39
 1184.07        2963.50           1402        8864.00     38659.90
 1184.10        2963.75           1406       10639.00     46417.25
 1184.13        2964.00           1409       11860.00     51755.54
 1184.17        2964.25           1412       13221.00     57707.93
 1184.20        2964.50           1416       14764.00     64458.88
 1184.23        2964.75           1419       16071.00     70179.43
 1184.26        2965.00           1422       17325.00     75669.85
 1184.29        2965.25           1426       18827.00     82248.47
 1184.32        2965.50           1429       20216.00     88334.49
 1184.35        2965.75           1432       21671.00     94712.06
 1184.38        2966.00           1436       23179.00    101324.50
 1184.41        2966.25           1439       24330.00    106373.40
 1184.45        2966.50           1442       25762.00    112656.90
 1184.48        2966.75           1446       26639.00    116506.30
 1184.51        2967.00           1449       26992.00    118056.00
 1184.54        2967.25           1452       26962.00    117924.30
 1184.57        2967.50           1456       26968.00    117950.60
 1184.60        2967.75           1459       27045.00    118288.70
 1184.63        2968.00           1462       26974.00    117977.00
 1184.66        2968.25           1466       26059.00    113960.40
 1184.69        2968.50           1469       24898.00    108865.50
 1184.72        2968.75           1472       23740.00    103785.20
 1184.76        2969.00           1476       22058.00     96408.78
 1184.79        2969.25           1479       20933.00     91476.96
 1184.82        2969.50           1482       19523.00     85297.77
 1184.85        2969.75           1486       17995.00     78604.06
 1184.88        2970.00           1489       16665.00     72779.93
 1184.91        2970.25           1492       15468.00     67539.94
 1184.94        2970.50           1496       13907.00     60708.99
 1184.97        2970.75           1499       12690.00     55385.33
 1185.00        2971.00           1502       11371.00     49617.40
 1185.04        2971.25           1506        9828.00     42872.46
 1185.07        2971.50           1509        8496.00     37052.06
 1185.10        2971.75           1513        6801.00     29648.42
 1185.13        2972.00           1516        5508.00     24002.90
 1185.16        2972.25           1519        4243.00     18481.47
 1185.19        2972.50           1523        2624.00     11417.60
 1185.22        2972.75           1526        1538.00      6680.94
 1185.25        2973.00           1529         680.00      2939.67
 1185.28        2973.25           1533         349.00      1496.58
 1185.31        2973.50           1536         287.00      1226.29
 1185.35        2973.75           1539         226.00       960.36
 1185.38        2974.00           1543         191.00       807.78
 1185.41        2974.25           1546         150.00       629.04
 1185.44        2974.50           1549         111.00       459.03
 1185.47        2974.75           1553          84.00       341.33
 1185.50        2975.00           1556          61.00       241.07
 1185.53        2975.25           1559          56.00       219.27
 1185.56        2975.50           1563          54.00       210.55
 1185.59        2975.75           1566          59.00       232.35
 1185.62        2976.00           1569          48.00       184.40
 1185.65        2976.25           1573          49.00       188.75
 1185.68        2976.50           1576          44.00       166.96
 1185.72        2976.75           1579          50.00       193.11
 1185.75        2977.00           1583          46.00       175.68
 1185.78        2977.25           1586          50.00       193.11
 1185.81        2977.50           1590          46.00       175.68
 1185.84        2977.75           1593          47.00       180.04
 1185.87        2978.00           1596          53.00       206.19
 1185.90        2978.25           1600          58.00       227.99
 1185.93        2978.50           1603          44.00       166.96
 1185.96        2978.75           1606          47.00       180.04
 1185.99        2979.00           1610          56.00       219.27
 1186.02        2979.25           1613          47.00       180.04
 1186.06        2979.50           1616          44.00       166.96
 1186.09        2979.75           1620          56.00       219.27
 1186.12        2980.00           1623          43.00       162.60
 1186.15        2980.25           1626          56.00       219.27
 1186.18        2980.50           1630          52.00       201.83
 1186.21        2980.75           1633          46.00       175.68
 1186.24        2981.00           1637          43.00       162.60
 1186.27        2981.25           1640          54.00       210.55
 1186.30        2981.50           1643          46.00       175.68
 1186.34        2981.75           1647          49.00       188.75
 1186.37        2982.00           1650          41.00       153.88
 1186.40        2982.25           1653          49.00       188.75
 1186.43        2982.50           1657          39.00       145.16
 1186.46        2982.75           1660          39.00       145.16
 1186.49        2983.00           1663          43.00       162.60
 1186.52        2983.25           1667          55.00       214.91
 1186.55        2983.50           1670          42.00       158.24
 1186.58        2983.75           1673          47.00       180.04
 1186.62        2984.00           1677          53.00       206.19
HS scan finished at 19:46:50
end
