************************************************************
  HS Scan of (1) Internal mercury lamp
************************************************************
Integration time is 0.2294 seconds per sample
dh150918Manchester 53.47 2.23 2.804185pr1000
************************************************************
Dead Time -------------------------  3E-08 
Number of Cycles Used -------------  4 
Starting Wavelength (Angstroms) ---  2950 
Final Wavelength (Angstoms) -------  2984 
Wavelength Increment (Angstroms) --  .25 
Filter Wheel #1 Position ---------- (1) Ground quartz diffuser (ND=2.32)
Filter Wheel #2 Position ---------- (1) Neutral Density 0.494



************************************************************
HS scan start time = 02:13:17
Dark Count =  4.9 


Time (GMT)  Wavelength (Ang)  Step Number  Raw Counts  Counts/Second

  133.66        2950.00           1222          51.00       200.96
  133.72        2950.25           1226          50.00       196.60
  133.75        2950.50           1229          46.00       179.16
  133.79        2950.75           1232          48.00       187.88
  133.82        2951.00           1236          54.00       214.04
  133.85        2951.25           1239          49.00       192.24
  133.88        2951.50           1242          55.00       218.40
  133.91        2951.75           1246          43.00       166.09
  133.94        2952.00           1249          52.00       205.32
  133.97        2952.25           1252          55.00       218.40
  134.00        2952.50           1256          54.00       214.04
  134.03        2952.75           1259          54.00       214.04
  134.06        2953.00           1262          51.00       200.96
  134.09        2953.25           1266          51.00       200.96
  134.12        2953.50           1269          51.00       200.96
  134.15        2953.75           1272          57.00       227.12
  134.18        2954.00           1276          51.00       200.96
  134.22        2954.25           1279          58.00       231.48
  134.25        2954.50           1282          55.00       218.40
  134.28        2954.75           1286          53.00       209.68
  134.31        2955.00           1289          43.00       166.09
  134.34        2955.25           1292          52.00       205.32
  134.37        2955.50           1296          49.00       192.24
  134.40        2955.75           1299          53.00       209.68
  134.43        2956.00           1302          48.00       187.88
  134.46        2956.25           1306          46.00       179.16
  134.49        2956.50           1309          46.00       179.16
  134.52        2956.75           1312          46.00       179.16
  134.55        2957.00           1316          53.00       209.68
  134.58        2957.25           1319          44.00       170.45
  134.62        2957.50           1322          57.00       227.12
  134.65        2957.75           1326          48.00       187.88
  134.68        2958.00           1329          47.00       183.52
  134.71        2958.25           1332          56.00       222.76
  134.74        2958.50           1336          49.00       192.24
  134.77        2958.75           1339          51.00       200.96
  134.80        2959.00           1342          54.00       214.04
  134.83        2959.25           1346          55.00       218.40
  134.86        2959.50           1349          62.00       248.91
  134.89        2959.75           1352          66.00       266.35
  134.92        2960.00           1356          88.00       362.25
  134.95        2960.25           1359         120.00       501.75
  134.99        2960.50           1362         132.00       554.06
  135.02        2960.75           1366         183.00       776.39
  135.05        2961.00           1369         215.00       915.89
  135.08        2961.25           1372         252.00      1077.19
  135.11        2961.50           1376         303.00      1299.53
  135.14        2961.75           1379         399.00      1718.05
  135.17        2962.00           1382         791.00      3427.12
  135.20        2962.25           1386        2073.00      9017.70
  135.23        2962.50           1389        3312.00     14422.54
  135.26        2962.75           1392        4504.00     19624.02
  135.30        2963.00           1396        6226.00     27141.10
  135.33        2963.25           1399        7333.00     31975.30
  135.36        2963.50           1402        8484.00     37003.13
  135.39        2963.75           1406       10162.00     44335.74
  135.42        2964.00           1409       11396.00     49730.20
  135.45        2964.25           1412       12574.00     54881.48
  135.48        2964.50           1416       14342.00     62615.78
  135.51        2964.75           1419       15520.00     67771.03
  135.54        2965.00           1422       16783.00     73300.07
  135.57        2965.25           1426       18440.00     80556.70
  135.61        2965.50           1429       19706.00     86103.12
  135.64        2965.75           1432       21023.00     91874.94
  135.67        2966.00           1436       22775.00     99556.28
  135.70        2966.25           1439       23925.00    104600.20
  135.73        2966.50           1442       24988.00    109263.90
  135.76        2966.75           1446       26356.00    115267.60
  135.79        2967.00           1449       26719.00    116861.00
  135.82        2967.25           1452       26743.00    116966.40
  135.85        2967.50           1456       26924.00    117761.00
  135.88        2967.75           1459       26726.00    116891.80
  135.91        2968.00           1462       26746.00    116979.60
  135.95        2968.25           1466       26275.00    114912.00
  135.98        2968.50           1469       25095.00    109733.40
  136.01        2968.75           1472       23912.00    104543.10
  136.04        2969.00           1476       22295.00     97451.44
  136.07        2969.25           1479       21098.00     92203.69
  136.10        2969.50           1482       20078.00     87733.22
  136.13        2969.75           1486       18273.00     79825.21
  136.16        2970.00           1489       17173.00     75007.75
  136.19        2970.25           1492       15815.00     69062.29
  136.23        2970.50           1496       14231.00     62130.08
  136.26        2970.75           1499       12998.00     56735.98
  136.29        2971.00           1502       11798.00     51487.92
  136.32        2971.25           1506       10126.00     44178.39
  136.35        2971.50           1509        8788.00     38331.33
  136.38        2971.75           1513        7174.00     31280.87
  136.41        2972.00           1516        5913.00     25774.50
  136.44        2972.25           1519        4613.00     20099.74
  136.47        2972.50           1523        3076.00     13392.91
  136.51        2972.75           1526        1921.00      8354.75
  136.54        2973.00           1529         909.00      3941.62
  136.57        2973.25           1533         360.00      1548.02
  136.60        2973.50           1536         270.00      1155.66
  136.63        2973.75           1539         225.00       959.49
  136.66        2974.00           1543         181.00       767.67
  136.69        2974.25           1546         143.00       602.02
  136.72        2974.50           1549         115.00       479.95
  136.75        2974.75           1553          78.00       318.66
  136.79        2975.00           1556          60.00       240.19
  136.82        2975.25           1559          55.00       218.40
  136.85        2975.50           1563          42.00       161.73
  136.88        2975.75           1566          44.00       170.45
  136.91        2976.00           1569          48.00       187.88
  136.94        2976.25           1573          55.00       218.40
  136.97        2976.50           1576          43.00       166.09
  137.00        2976.75           1579          48.00       187.88
  137.03        2977.00           1583          48.00       187.88
  137.06        2977.25           1586          50.00       196.60
  137.09        2977.50           1590          41.00       157.37
  137.12        2977.75           1593          52.00       205.32
  137.15        2978.00           1596          45.00       174.80
  137.19        2978.25           1600          52.00       205.32
  137.22        2978.50           1603          51.00       200.96
  137.25        2978.75           1606          45.00       174.80
  137.28        2979.00           1610          49.00       192.24
  137.31        2979.25           1613          51.00       200.96
  137.34        2979.50           1616          48.00       187.88
  137.37        2979.75           1620          50.00       196.60
  137.40        2980.00           1623          45.00       174.80
  137.43        2980.25           1626          41.00       157.37
  137.46        2980.50           1630          43.00       166.09
  137.49        2980.75           1633          52.00       205.32
  137.52        2981.00           1637          41.00       157.37
  137.55        2981.25           1640          42.00       161.73
  137.58        2981.50           1643          42.00       161.73
  137.61        2981.75           1647          49.00       192.24
  137.65        2982.00           1650          47.00       183.52
  137.68        2982.25           1653          45.00       174.80
  137.71        2982.50           1657          51.00       200.96
  137.74        2982.75           1660          44.00       170.45
  137.77        2983.00           1663          49.00       192.24
  137.80        2983.25           1667          42.00       161.73
  137.83        2983.50           1670          43.00       166.09
  137.86        2983.75           1673          47.00       183.52
  137.89        2984.00           1677          48.00       187.88
HS scan finished at 02:18:07
end
************************************************************
  HS Scan of (1) Internal mercury lamp
************************************************************
Integration time is 0.2294 seconds per sample
dh150918Manchester 53.47 2.23 2.857833pr1000
************************************************************
Dead Time -------------------------  3E-08 
Number of Cycles Used -------------  4 
Starting Wavelength (Angstroms) ---  2950 
Final Wavelength (Angstoms) -------  2984 
Wavelength Increment (Angstroms) --  .25 
Filter Wheel #1 Position ---------- (1) Ground quartz diffuser (ND=2.32)
Filter Wheel #2 Position ---------- (1) Neutral Density 0.494



************************************************************
HS scan start time = 19:12:00
Dark Count =  6 


Time (GMT)  Wavelength (Ang)  Step Number  Raw Counts  Counts/Second

 1152.37        2950.00           1222          56.00       217.96
 1152.44        2950.25           1226          55.00       213.60
 1152.47        2950.50           1229          47.00       178.73
 1152.50        2950.75           1232          45.00       170.01
 1152.53        2951.00           1236          53.00       204.88
 1152.57        2951.25           1239          41.00       152.57
 1152.60        2951.50           1242          47.00       178.73
 1152.63        2951.75           1246          51.00       196.17
 1152.66        2952.00           1249          50.00       191.81
 1152.69        2952.25           1252          56.00       217.96
 1152.72        2952.50           1256          53.00       204.88
 1152.75        2952.75           1259          51.00       196.17
 1152.78        2953.00           1262          54.00       209.24
 1152.81        2953.25           1266          52.00       200.52
 1152.84        2953.50           1269          51.00       196.17
 1152.87        2953.75           1272          55.00       213.60
 1152.90        2954.00           1276          50.00       191.81
 1152.94        2954.25           1279          51.00       196.17
 1152.97        2954.50           1282          52.00       200.52
 1153.00        2954.75           1286          53.00       204.88
 1153.03        2955.00           1289          54.00       209.24
 1153.06        2955.25           1292          51.00       196.17
 1153.09        2955.50           1296          62.00       244.12
 1153.12        2955.75           1299          57.00       222.32
 1153.15        2956.00           1302          49.00       187.45
 1153.18        2956.25           1306          46.00       174.37
 1153.21        2956.50           1309          50.00       191.81
 1153.24        2956.75           1312          49.00       187.45
 1153.27        2957.00           1316          47.00       178.73
 1153.31        2957.25           1319          46.00       174.37
 1153.34        2957.50           1322          58.00       226.68
 1153.37        2957.75           1326          49.00       187.45
 1153.40        2958.00           1329          50.00       191.81
 1153.43        2958.25           1332          51.00       196.17
 1153.46        2958.50           1336          49.00       187.45
 1153.49        2958.75           1339          55.00       213.60
 1153.52        2959.00           1342          52.00       200.52
 1153.55        2959.25           1346          58.00       226.68
 1153.59        2959.50           1349          57.00       222.32
 1153.62        2959.75           1352          63.00       248.48
 1153.65        2960.00           1356          86.00       348.74
 1153.68        2960.25           1359         120.00       496.96
 1153.71        2960.50           1362         137.00       571.06
 1153.74        2960.75           1366         163.00       684.41
 1153.77        2961.00           1369         207.00       876.22
 1153.80        2961.25           1372         236.00      1002.65
 1153.83        2961.50           1376         311.00      1329.61
 1153.86        2961.75           1379         475.00      2044.59
 1153.89        2962.00           1382        1115.00      4835.05
 1153.92        2962.25           1386        2564.00     11154.56
 1153.95        2962.50           1389        3899.00     16979.00
 1153.99        2962.75           1392        5056.00     22028.50
 1154.02        2963.00           1396        6767.00     29498.63
 1154.05        2963.25           1399        7983.00     34809.66
 1154.08        2963.50           1402        9275.00     40454.47
 1154.11        2963.75           1406       10895.00     47535.05
 1154.14        2964.00           1409       12081.00     52720.64
 1154.17        2964.25           1412       13405.00     58511.51
 1154.20        2964.50           1416       15241.00     66545.10
 1154.23        2964.75           1419       16527.00     72174.43
 1154.27        2965.00           1422       17924.00     78291.78
 1154.30        2965.25           1426       19435.00     84910.88
 1154.33        2965.50           1429       20726.00     90568.33
 1154.36        2965.75           1432       21873.00     95596.35
 1154.39        2966.00           1436       23755.00    103849.60
 1154.42        2966.25           1439       24797.00    108421.00
 1154.45        2966.50           1442       26027.00    113818.70
 1154.48        2966.75           1446       27237.00    119130.30
 1154.51        2967.00           1449       27511.00    120333.40
 1154.55        2967.25           1452       27514.00    120346.50
 1154.58        2967.50           1456       27490.00    120241.20
 1154.61        2967.75           1459       27657.00    120974.50
 1154.64        2968.00           1462       27360.00    119670.40
 1154.67        2968.25           1466       26373.00    115337.40
 1154.70        2968.50           1469       25232.00    110329.70
 1154.73        2968.75           1472       24141.00    105542.90
 1154.76        2969.00           1476       22570.00     98652.48
 1154.79        2969.25           1479       21371.00     93395.59
 1154.83        2969.50           1482       20034.00     87535.59
 1154.86        2969.75           1486       18313.00     79995.59
 1154.89        2970.00           1489       17109.00     74722.69
 1154.92        2970.25           1492       15725.00     68663.53
 1154.95        2970.50           1496       14306.00     62453.44
 1154.98        2970.75           1499       12990.00     56696.18
 1155.01        2971.00           1502       11580.00     50529.90
 1155.04        2971.25           1506        9905.00     43207.68
 1155.07        2971.50           1509        8601.00     37509.49
 1155.10        2971.75           1513        6844.00     29834.89
 1155.13        2972.00           1516        5638.00     24569.11
 1155.17        2972.25           1519        4417.00     19239.52
 1155.20        2972.50           1523        2784.00     12114.25
 1155.23        2972.75           1526        1592.00      6915.12
 1155.26        2973.00           1529         709.00      3064.80
 1155.29        2973.25           1533         352.00      1508.35
 1155.32        2973.50           1536         290.00      1238.06
 1155.35        2973.75           1539         264.00      1124.71
 1155.38        2974.00           1543         212.00       898.02
 1155.41        2974.25           1546         169.00       710.56
 1155.44        2974.50           1549         139.00       579.78
 1155.47        2974.75           1553         107.00       440.28
 1155.50        2975.00           1556          78.00       313.87
 1155.53        2975.25           1559          63.00       248.48
 1155.57        2975.50           1563          47.00       178.73
 1155.60        2975.75           1566          49.00       187.45
 1155.63        2976.00           1569          43.00       161.29
 1155.66        2976.25           1573          53.00       204.88
 1155.69        2976.50           1576          50.00       191.81
 1155.72        2976.75           1579          53.00       204.88
 1155.75        2977.00           1583          46.00       174.37
 1155.78        2977.25           1586          57.00       222.32
 1155.81        2977.50           1590          51.00       196.17
 1155.84        2977.75           1593          47.00       178.73
 1155.88        2978.00           1596          44.00       165.65
 1155.91        2978.25           1600          47.00       178.73
 1155.94        2978.50           1603          46.00       174.37
 1155.97        2978.75           1606          46.00       174.37
 1156.00        2979.00           1610          44.00       165.65
 1156.03        2979.25           1613          56.00       217.96
 1156.06        2979.50           1616          44.00       165.65
 1156.09        2979.75           1620          42.00       156.93
 1156.12        2980.00           1623          47.00       178.73
 1156.15        2980.25           1626          49.00       187.45
 1156.18        2980.50           1630          51.00       196.17
 1156.21        2980.75           1633          50.00       191.81
 1156.24        2981.00           1637          45.00       170.01
 1156.27        2981.25           1640          46.00       174.37
 1156.31        2981.50           1643          47.00       178.73
 1156.34        2981.75           1647          37.00       135.14
 1156.37        2982.00           1650          42.00       156.93
 1156.40        2982.25           1653          44.00       165.65
 1156.43        2982.50           1657          50.00       191.81
 1156.46        2982.75           1660          46.00       174.37
 1156.49        2983.00           1663          48.00       183.09
 1156.52        2983.25           1667          43.00       161.29
 1156.55        2983.50           1670          47.00       178.73
 1156.58        2983.75           1673          41.00       152.57
 1156.61        2984.00           1677          40.00       148.21
HS scan finished at 19:16:50
end
