************************************************************
  HS Scan of (1) Internal mercury lamp
************************************************************
Integration time is 0.2294 seconds per sample
dh130918Manchester 53.47 2.23 2.804185pr1000
************************************************************
Dead Time -------------------------  3E-08 
Number of Cycles Used -------------  4 
Starting Wavelength (Angstroms) ---  2950 
Final Wavelength (Angstoms) -------  2984 
Wavelength Increment (Angstroms) --  .25 
Filter Wheel #1 Position ---------- (1) Ground quartz diffuser (ND=2.32)
Filter Wheel #2 Position ---------- (1) Neutral Density 0.494



************************************************************
HS scan start time = 02:09:49
Dark Count =  5.6 


Time (GMT)  Wavelength (Ang)  Step Number  Raw Counts  Counts/Second

  130.19        2950.00           1222          52.00       202.27
  130.26        2950.25           1226          58.00       228.42
  130.29        2950.50           1229          47.00       180.47
  130.32        2950.75           1232          45.00       171.75
  130.35        2951.00           1236          44.00       167.39
  130.38        2951.25           1239          50.00       193.55
  130.41        2951.50           1242          66.00       263.30
  130.44        2951.75           1246          48.00       184.83
  130.47        2952.00           1249          55.00       215.35
  130.50        2952.25           1252          45.00       171.75
  130.53        2952.50           1256          55.00       215.35
  130.57        2952.75           1259          53.00       206.63
  130.60        2953.00           1262          55.00       215.35
  130.63        2953.25           1266          52.00       202.27
  130.66        2953.50           1269          56.00       219.71
  130.69        2953.75           1272          55.00       215.35
  130.72        2954.00           1276          47.00       180.47
  130.75        2954.25           1279          50.00       193.55
  130.78        2954.50           1282          52.00       202.27
  130.81        2954.75           1286          48.00       184.83
  130.84        2955.00           1289          47.00       180.47
  130.87        2955.25           1292          55.00       215.35
  130.90        2955.50           1296          60.00       237.14
  130.93        2955.75           1299          58.00       228.42
  130.97        2956.00           1302          64.00       254.58
  131.00        2956.25           1306          49.00       189.19
  131.03        2956.50           1309          47.00       180.47
  131.06        2956.75           1312          50.00       193.55
  131.09        2957.00           1316          54.00       210.99
  131.12        2957.25           1319          51.00       197.91
  131.15        2957.50           1322          51.00       197.91
  131.18        2957.75           1326          60.00       237.14
  131.21        2958.00           1329          54.00       210.99
  131.24        2958.25           1332          50.00       193.55
  131.27        2958.50           1336          50.00       193.55
  131.30        2958.75           1339          55.00       215.35
  131.33        2959.00           1342          53.00       206.63
  131.36        2959.25           1346          48.00       184.83
  131.40        2959.50           1349          57.00       224.06
  131.43        2959.75           1352          63.00       250.22
  131.46        2960.00           1356          83.00       337.41
  131.49        2960.25           1359         106.00       437.67
  131.52        2960.50           1362         138.00       577.17
  131.55        2960.75           1366         188.00       795.14
  131.58        2961.00           1369         230.00       978.23
  131.61        2961.25           1372         232.00       986.95
  131.64        2961.50           1376         314.00      1344.43
  131.67        2961.75           1379         496.00      2137.89
  131.70        2962.00           1382        1157.00      5019.94
  131.73        2962.25           1386        2597.00     11300.26
  131.76        2962.50           1389        3803.00     16561.84
  131.79        2962.75           1392        5105.00     22244.14
  131.82        2963.00           1396        6649.00     28985.09
  131.86        2963.25           1399        7814.00     34073.17
  131.89        2963.50           1402        9121.00     39783.29
  131.92        2963.75           1406       10837.00     47283.24
  131.95        2964.00           1409       12141.00     52984.77
  131.98        2964.25           1412       13462.00     58762.62
  132.01        2964.50           1416       15140.00     66104.81
  132.04        2964.75           1419       16258.00     70998.49
  132.07        2965.00           1422       17540.00     76611.80
  132.10        2965.25           1426       19204.00     83900.55
  132.14        2965.50           1429       20332.00     88843.28
  132.17        2965.75           1432       21598.00     94392.46
  132.20        2966.00           1436       23386.00    102232.90
  132.23        2966.25           1439       24541.00    107299.50
  132.26        2966.50           1442       25516.00    111577.80
  132.29        2966.75           1446       26758.00    117029.20
  132.32        2967.00           1449       27013.00    118148.60
  132.35        2967.25           1452       27022.00    118188.20
  132.38        2967.50           1456       27000.00    118091.60
  132.42        2967.75           1459       26855.00    117455.00
  132.45        2968.00           1462       26509.00    115936.10
  132.48        2968.25           1466       26005.00    113723.90
  132.51        2968.50           1469       24810.00    108479.80
  132.54        2968.75           1472       23486.00    102671.50
  132.57        2969.00           1476       21874.00     95602.49
  132.60        2969.25           1479       20638.00     90184.38
  132.63        2969.50           1482       19327.00     84439.44
  132.66        2969.75           1486       17614.00     76935.88
  132.70        2970.00           1489       16563.00     72333.78
  132.73        2970.25           1492       15429.00     67369.68
  132.76        2970.50           1496       13703.00     59816.93
  132.79        2970.75           1499       12512.00     54607.26
  132.82        2971.00           1502       11308.00     49342.39
  132.85        2971.25           1506        9619.00     41959.50
  132.88        2971.50           1509        8429.00     36759.79
  132.91        2971.75           1513        6668.00     29068.06
  132.94        2972.00           1516        5422.00     23627.90
  132.97        2972.25           1519        4163.00     18132.79
  133.00        2972.50           1523        2547.00     11082.15
  133.04        2972.75           1526        1470.00      6384.83
  133.07        2973.00           1529         604.00      2608.75
  133.10        2973.25           1533         320.00      1370.59
  133.13        2973.50           1536         293.00      1252.88
  133.16        2973.75           1539         243.00      1034.91
  133.19        2974.00           1543         209.00       886.68
  133.22        2974.25           1546         163.00       686.15
  133.25        2974.50           1549         122.00       507.42
  133.28        2974.75           1553          85.00       346.12
  133.31        2975.00           1556          68.00       272.02
  133.34        2975.25           1559          56.00       219.71
  133.37        2975.50           1563          53.00       206.63
  133.40        2975.75           1566          42.00       158.68
  133.44        2976.00           1569          51.00       197.91
  133.47        2976.25           1573          43.00       163.03
  133.50        2976.50           1576          46.00       176.11
  133.53        2976.75           1579          57.00       224.06
  133.56        2977.00           1583          51.00       197.91
  133.59        2977.25           1586          53.00       206.63
  133.62        2977.50           1590          45.00       171.75
  133.65        2977.75           1593          46.00       176.11
  133.68        2978.00           1596          43.00       163.03
  133.71        2978.25           1600          46.00       176.11
  133.74        2978.50           1603          50.00       193.55
  133.77        2978.75           1606          45.00       171.75
  133.80        2979.00           1610          51.00       197.91
  133.84        2979.25           1613          49.00       189.19
  133.87        2979.50           1616          52.00       202.27
  133.90        2979.75           1620          42.00       158.68
  133.93        2980.00           1623          46.00       176.11
  133.96        2980.25           1626          58.00       228.42
  133.99        2980.50           1630          49.00       189.19
  134.02        2980.75           1633          54.00       210.99
  134.05        2981.00           1637          48.00       184.83
  134.08        2981.25           1640          46.00       176.11
  134.11        2981.50           1643          41.00       154.32
  134.14        2981.75           1647          39.00       145.60
  134.18        2982.00           1650          44.00       167.39
  134.21        2982.25           1653          43.00       163.03
  134.24        2982.50           1657          47.00       180.47
  134.27        2982.75           1660          44.00       167.39
  134.30        2983.00           1663          46.00       176.11
  134.33        2983.25           1667          43.00       163.03
  134.36        2983.50           1670          49.00       189.19
  134.39        2983.75           1673          42.00       158.68
  134.42        2984.00           1677          47.00       180.47
HS scan finished at 02:14:38
end
************************************************************
  HS Scan of (1) Internal mercury lamp
************************************************************
Integration time is 0.2294 seconds per sample
dh130918Manchester 53.47 2.23 2.857833pr1000
************************************************************
Dead Time -------------------------  3E-08 
Number of Cycles Used -------------  4 
Starting Wavelength (Angstroms) ---  2950 
Final Wavelength (Angstoms) -------  2984 
Wavelength Increment (Angstroms) --  .25 
Filter Wheel #1 Position ---------- (1) Ground quartz diffuser (ND=2.32)
Filter Wheel #2 Position ---------- (1) Neutral Density 0.494



************************************************************
HS scan start time = 19:43:15
Dark Count =  6.6 


Time (GMT)  Wavelength (Ang)  Step Number  Raw Counts  Counts/Second

 1183.62        2950.00           1222          40.00       145.60
 1183.68        2950.25           1226          47.00       176.11
 1183.71        2950.50           1229          53.00       202.27
 1183.74        2950.75           1232          51.00       193.55
 1183.78        2951.00           1236          55.00       210.99
 1183.81        2951.25           1239          56.00       215.35
 1183.84        2951.50           1242          54.00       206.63
 1183.87        2951.75           1246          49.00       184.83
 1183.90        2952.00           1249          46.00       171.75
 1183.93        2952.25           1252          58.00       224.06
 1183.96        2952.50           1256          51.00       193.55
 1183.99        2952.75           1259          55.00       210.99
 1184.02        2953.00           1262          53.00       202.27
 1184.05        2953.25           1266          53.00       202.27
 1184.08        2953.50           1269          55.00       210.99
 1184.11        2953.75           1272          46.00       171.75
 1184.14        2954.00           1276          52.00       197.91
 1184.17        2954.25           1279          58.00       224.06
 1184.20        2954.50           1282          51.00       193.55
 1184.23        2954.75           1286          47.00       176.11
 1184.26        2955.00           1289          40.00       145.60
 1184.29        2955.25           1292          49.00       184.83
 1184.33        2955.50           1296          59.00       228.42
 1184.36        2955.75           1299          50.00       189.19
 1184.39        2956.00           1302          55.00       210.99
 1184.42        2956.25           1306          66.00       258.94
 1184.45        2956.50           1309          52.00       197.91
 1184.48        2956.75           1312          47.00       176.11
 1184.51        2957.00           1316          45.00       167.39
 1184.54        2957.25           1319          53.00       202.27
 1184.57        2957.50           1322          54.00       206.63
 1184.60        2957.75           1326          53.00       202.27
 1184.63        2958.00           1329          52.00       197.91
 1184.67        2958.25           1332          44.00       163.03
 1184.70        2958.50           1336          55.00       210.99
 1184.73        2958.75           1339          52.00       197.91
 1184.76        2959.00           1342          51.00       193.55
 1184.79        2959.25           1346          56.00       215.35
 1184.82        2959.50           1349          67.00       263.30
 1184.85        2959.75           1352          76.00       302.53
 1184.88        2960.00           1356          98.00       398.44
 1184.91        2960.25           1359         122.00       503.06
 1184.94        2960.50           1362         163.00       681.79
 1184.97        2960.75           1366         205.00       864.89
 1185.00        2961.00           1369         236.00      1000.03
 1185.04        2961.25           1372         276.00      1174.41
 1185.07        2961.50           1376         324.00      1383.67
 1185.10        2961.75           1379         476.00      2046.33
 1185.13        2962.00           1382        1039.00      4501.04
 1185.16        2962.25           1386        2547.00     11077.79
 1185.19        2962.50           1389        3766.00     16396.03
 1185.22        2962.75           1392        4988.00     21729.07
 1185.25        2963.00           1396        6603.00     28779.85
 1185.28        2963.25           1399        7822.00     34103.75
 1185.31        2963.50           1402        9108.00     39722.11
 1185.34        2963.75           1406       10744.00     46872.32
 1185.37        2964.00           1409       12095.00     52779.24
 1185.41        2964.25           1412       13463.00     58762.62
 1185.44        2964.50           1416       15094.00     65899.12
 1185.47        2964.75           1419       16316.00     71248.03
 1185.50        2965.00           1422       17718.00     77386.96
 1185.53        2965.25           1426       19529.00     85320.11
 1185.56        2965.50           1429       20624.00     90118.64
 1185.59        2965.75           1432       21896.00     95694.56
 1185.62        2966.00           1436       23499.00    102724.10
 1185.66        2966.25           1439       24694.00    107966.40
 1185.69        2966.50           1442       25724.00    112486.20
 1185.72        2966.75           1446       26800.00    117209.20
 1185.75        2967.00           1449       27258.00    119219.90
 1185.78        2967.25           1452       27286.00    119342.80
 1185.81        2967.50           1456       27274.00    119290.10
 1185.84        2967.75           1459       27242.00    119149.60
 1185.87        2968.00           1462       26994.00    118060.80
 1185.90        2968.25           1466       26261.00    114843.10
 1185.93        2968.50           1469       25086.00    109686.40
 1185.97        2968.75           1472       23906.00    104509.40
 1186.00        2969.00           1476       22369.00     97768.47
 1186.03        2969.25           1479       21103.00     92218.18
 1186.06        2969.50           1482       19778.00     86411.16
 1186.09        2969.75           1486       18108.00     79095.05
 1186.12        2970.00           1489       16999.00     74238.40
 1186.15        2970.25           1492       15772.00     68866.63
 1186.18        2970.50           1496       14171.00     61860.12
 1186.21        2970.75           1499       12781.00     55779.40
 1186.24        2971.00           1502       11583.00     50540.40
 1186.27        2971.25           1506        9771.00     42619.41
 1186.31        2971.50           1509        8496.00     37048.13
 1186.34        2971.75           1513        6839.00     29810.43
 1186.37        2972.00           1516        5578.00     24304.55
 1186.40        2972.25           1519        4388.00     19110.34
 1186.43        2972.50           1523        2740.00     11919.69
 1186.46        2972.75           1526        1626.00      7060.78
 1186.49        2973.00           1529         709.00      3062.18
 1186.52        2973.25           1533         341.00      1457.78
 1186.56        2973.50           1536         268.00      1139.53
 1186.59        2973.75           1539         239.00      1013.11
 1186.62        2974.00           1543         175.00       734.11
 1186.65        2974.25           1546         136.00       564.09
 1186.68        2974.50           1549         109.00       446.39
 1186.71        2974.75           1553          82.00       328.69
 1186.74        2975.00           1556          73.00       289.45
 1186.77        2975.25           1559          50.00       189.19
 1186.80        2975.50           1563          47.00       176.11
 1186.83        2975.75           1566          49.00       184.83
 1186.86        2976.00           1569          57.00       219.71
 1186.90        2976.25           1573          55.00       210.99
 1186.93        2976.50           1576          51.00       193.55
 1186.96        2976.75           1579          49.00       184.83
 1186.99        2977.00           1583          49.00       184.83
 1187.02        2977.25           1586          46.00       171.75
 1187.05        2977.50           1590          47.00       176.11
 1187.08        2977.75           1593          48.00       180.47
 1187.11        2978.00           1596          47.00       176.11
 1187.14        2978.25           1600          52.00       197.91
 1187.17        2978.50           1603          43.00       158.68
 1187.21        2978.75           1606          47.00       176.11
 1187.24        2979.00           1610          50.00       189.19
 1187.27        2979.25           1613          47.00       176.11
 1187.30        2979.50           1616          49.00       184.83
 1187.33        2979.75           1620          46.00       171.75
 1187.36        2980.00           1623          42.00       154.32
 1187.39        2980.25           1626          44.00       163.03
 1187.42        2980.50           1630          49.00       184.83
 1187.45        2980.75           1633          47.00       176.11
 1187.48        2981.00           1637          45.00       167.39
 1187.51        2981.25           1640          47.00       176.11
 1187.55        2981.50           1643          37.00       132.52
 1187.58        2981.75           1647          45.00       167.39
 1187.61        2982.00           1650          39.00       141.24
 1187.64        2982.25           1653          47.00       176.11
 1187.67        2982.50           1657          46.00       171.75
 1187.70        2982.75           1660          47.00       176.11
 1187.73        2983.00           1663          49.00       184.83
 1187.76        2983.25           1667          44.00       163.03
 1187.79        2983.50           1670          41.00       149.96
 1187.82        2983.75           1673          44.00       163.03
 1187.85        2984.00           1677          44.00       163.03
HS scan finished at 19:48:04
end
