************************************************************
  HS Scan of (1) Internal mercury lamp
************************************************************
Integration time is 0.2294 seconds per sample
dh120917Manchester 53.47 2.23 2.804185pr1000
************************************************************
Dead Time -------------------------  3E-08 
Number of Cycles Used -------------  4 
Starting Wavelength (Angstroms) ---  2950 
Final Wavelength (Angstoms) -------  2984 
Wavelength Increment (Angstroms) --  .25 
Filter Wheel #1 Position ---------- (1) Ground quartz diffuser (ND=2.32)
Filter Wheel #2 Position ---------- (1) Neutral Density 0.494



************************************************************
HS scan start time = 01:58:13
Dark Count =  5.9 


Time (GMT)  Wavelength (Ang)  Step Number  Raw Counts  Counts/Second

  118.58        2950.00           1222          73.00       292.50
  118.65        2950.25           1226          69.00       275.07
  118.68        2950.50           1229          86.00       349.18
  118.71        2950.75           1232          73.00       292.50
  118.74        2951.00           1236          81.00       327.38
  118.77        2951.25           1239          81.00       327.38
  118.80        2951.50           1242          72.00       288.15
  118.83        2951.75           1246          79.00       318.66
  118.87        2952.00           1249          82.00       331.74
  118.90        2952.25           1252          72.00       288.15
  118.93        2952.50           1256          76.00       305.58
  118.96        2952.75           1259          79.00       318.66
  118.99        2953.00           1262          84.00       340.46
  119.02        2953.25           1266          74.00       296.86
  119.05        2953.50           1269          68.00       270.71
  119.08        2953.75           1272          73.00       292.50
  119.11        2954.00           1276          76.00       305.58
  119.14        2954.25           1279          81.00       327.38
  119.17        2954.50           1282          74.00       296.86
  119.20        2954.75           1286          71.00       283.79
  119.23        2955.00           1289          66.00       261.99
  119.26        2955.25           1292          66.00       261.99
  119.29        2955.50           1296          79.00       318.66
  119.33        2955.75           1299          83.00       336.10
  119.36        2956.00           1302          89.00       362.25
  119.39        2956.25           1306          75.00       301.22
  119.42        2956.50           1309          71.00       283.79
  119.45        2956.75           1312          82.00       331.74
  119.48        2957.00           1316          71.00       283.79
  119.51        2957.25           1319          78.00       314.30
  119.54        2957.50           1322          88.00       357.89
  119.57        2957.75           1326          77.00       309.94
  119.60        2958.00           1329          78.00       314.30
  119.64        2958.25           1332          80.00       323.02
  119.67        2958.50           1336          75.00       301.22
  119.70        2958.75           1339          76.00       305.58
  119.73        2959.00           1342          78.00       314.30
  119.76        2959.25           1346          69.00       275.07
  119.79        2959.50           1349          87.00       353.53
  119.82        2959.75           1352          88.00       357.89
  119.85        2960.00           1356         118.00       488.67
  119.88        2960.25           1359         165.00       693.56
  119.91        2960.50           1362         180.00       758.95
  119.94        2960.75           1366         249.00      1059.75
  119.98        2961.00           1369         270.00      1151.30
  120.01        2961.25           1372         307.00      1312.61
  120.04        2961.50           1376         393.00      1687.53
  120.07        2961.75           1379         459.00      1975.27
  120.10        2962.00           1382         654.00      2825.44
  120.13        2962.25           1386        1799.00      7818.31
  120.16        2962.50           1389        3147.00     13698.31
  120.19        2962.75           1392        4705.00     20496.91
  120.23        2963.00           1396        6675.00     29097.32
  120.26        2963.25           1399        8327.00     36312.86
  120.29        2963.50           1402        9929.00     43313.00
  120.32        2963.75           1406       12380.00     54028.66
  120.35        2964.00           1409       13975.00     61005.62
  120.38        2964.25           1412       15480.00     67591.58
  120.41        2964.50           1416       17635.00     77026.53
  120.44        2964.75           1419       19415.00     84823.69
  120.47        2965.00           1422       21091.00     92168.62
  120.50        2965.25           1426       23059.00    100797.40
  120.53        2965.50           1429       24647.00    107763.30
  120.57        2965.75           1432       26353.00    115250.00
  120.60        2966.00           1436       28368.00    124097.20
  120.63        2966.25           1439       29878.00    130730.10
  120.66        2966.50           1442       31509.00    137897.60
  120.69        2966.75           1446       33473.00    146532.50
  120.72        2967.00           1449       34361.00    150438.10
  120.75        2967.25           1452       34632.00    151630.20
  120.78        2967.50           1456       34827.00    152488.10
  120.81        2967.75           1459       34905.00    152831.20
  120.84        2968.00           1462       34705.00    151951.40
  120.88        2968.25           1466       34387.00    150552.50
  120.91        2968.50           1469       33504.00    146668.80
  120.94        2968.75           1472       32162.00    140768.00
  120.97        2969.00           1476       30232.00    132285.50
  121.00        2969.25           1479       28417.00    124312.40
  121.03        2969.50           1482       26920.00    117739.00
  121.06        2969.75           1486       25004.00    109329.70
  121.09        2970.00           1489       23321.00    101946.50
  121.12        2970.25           1492       21673.00     94719.96
  121.15        2970.50           1496       19655.00     85875.27
  121.18        2970.75           1499       17969.00     78489.31
  121.21        2971.00           1502       16400.00     71618.84
  121.25        2971.25           1506       14380.00     62777.67
  121.28        2971.50           1509       12679.00     55336.34
  121.31        2971.75           1513       10837.00     47281.92
  121.34        2972.00           1516        9060.00     39515.43
  121.37        2972.25           1519        7283.00     31752.56
  121.40        2972.50           1523        5244.00     22849.57
  121.43        2972.75           1526        3774.00     16434.00
  121.46        2973.00           1529        2180.00      9480.03
  121.49        2973.25           1533         744.00      3217.83
  121.53        2973.50           1536         385.00      1652.65
  121.56        2973.75           1539         325.00      1391.08
  121.59        2974.00           1543         256.00      1090.27
  121.62        2974.25           1546         206.00       872.30
  121.65        2974.50           1549         151.00       632.53
  121.68        2974.75           1553         116.00       479.95
  121.71        2975.00           1556          90.00       366.61
  121.74        2975.25           1559          78.00       314.30
  121.77        2975.50           1563          75.00       301.22
  121.80        2975.75           1566          66.00       261.99
  121.83        2976.00           1569          68.00       270.71
  121.86        2976.25           1573          75.00       301.22
  121.89        2976.50           1576          69.00       275.07
  121.92        2976.75           1579          75.00       301.22
  121.96        2977.00           1583          66.00       261.99
  121.99        2977.25           1586          94.00       384.05
  122.02        2977.50           1590          70.00       279.43
  122.05        2977.75           1593          77.00       309.94
  122.08        2978.00           1596          70.00       279.43
  122.11        2978.25           1600          70.00       279.43
  122.14        2978.50           1603          77.00       309.94
  122.17        2978.75           1606          76.00       305.58
  122.20        2979.00           1610          69.00       275.07
  122.23        2979.25           1613          63.00       248.91
  122.27        2979.50           1616          69.00       275.07
  122.30        2979.75           1620          66.00       261.99
  122.33        2980.00           1623          64.00       253.27
  122.36        2980.25           1626          67.00       266.35
  122.39        2980.50           1630          77.00       309.94
  122.42        2980.75           1633          68.00       270.71
  122.45        2981.00           1637          62.00       244.55
  122.48        2981.25           1640          78.00       314.30
  122.51        2981.50           1643          70.00       279.43
  122.55        2981.75           1647          71.00       283.79
  122.58        2982.00           1650          70.00       279.43
  122.61        2982.25           1653          67.00       266.35
  122.64        2982.50           1657          73.00       292.50
  122.67        2982.75           1660          74.00       296.86
  122.70        2983.00           1663          69.00       275.07
  122.73        2983.25           1667          58.00       227.12
  122.76        2983.50           1670          65.00       257.63
  122.79        2983.75           1673          67.00       266.35
  122.82        2984.00           1677          69.00       275.07
HS scan finished at 02:03:02
end
************************************************************
  HS Scan of (1) Internal mercury lamp
************************************************************
Integration time is 0.2294 seconds per sample
dh120917Manchester 53.47 2.23 2.804185pr1000
************************************************************
Dead Time -------------------------  3E-08 
Number of Cycles Used -------------  4 
Starting Wavelength (Angstroms) ---  2950 
Final Wavelength (Angstoms) -------  2984 
Wavelength Increment (Angstroms) --  .25 
Filter Wheel #1 Position ---------- (1) Ground quartz diffuser (ND=2.32)
Filter Wheel #2 Position ---------- (1) Neutral Density 0.494



************************************************************
HS scan start time = 19:42:00
Dark Count =  6.6 


Time (GMT)  Wavelength (Ang)  Step Number  Raw Counts  Counts/Second

 1182.37        2950.00           1222          74.00       293.81
 1182.43        2950.25           1226          70.00       276.38
 1182.46        2950.50           1229          74.00       293.81
 1182.50        2950.75           1232          69.00       272.02
 1182.53        2951.00           1236          71.00       280.73
 1182.56        2951.25           1239          72.00       285.09
 1182.59        2951.50           1242          68.00       267.66
 1182.62        2951.75           1246          80.00       319.97
 1182.65        2952.00           1249          60.00       232.78
 1182.68        2952.25           1252          76.00       302.53
 1182.71        2952.50           1256          81.00       324.33
 1182.74        2952.75           1259          79.00       315.61
 1182.77        2953.00           1262          76.00       302.53
 1182.80        2953.25           1266          74.00       293.81
 1182.83        2953.50           1269          66.00       258.94
 1182.86        2953.75           1272          88.00       354.84
 1182.89        2954.00           1276          85.00       341.76
 1182.93        2954.25           1279          81.00       324.33
 1182.96        2954.50           1282          84.00       337.41
 1182.99        2954.75           1286          79.00       315.61
 1183.02        2955.00           1289          93.00       376.64
 1183.05        2955.25           1292          75.00       298.17
 1183.08        2955.50           1296          73.00       289.45
 1183.11        2955.75           1299          72.00       285.09
 1183.14        2956.00           1302          77.00       306.89
 1183.17        2956.25           1306          78.00       311.25
 1183.20        2956.50           1309          75.00       298.17
 1183.23        2956.75           1312          94.00       381.00
 1183.26        2957.00           1316          73.00       289.45
 1183.29        2957.25           1319          74.00       293.81
 1183.32        2957.50           1322          74.00       293.81
 1183.36        2957.75           1326          72.00       285.09
 1183.39        2958.00           1329          80.00       319.97
 1183.42        2958.25           1332          78.00       311.25
 1183.45        2958.50           1336          77.00       306.89
 1183.48        2958.75           1339          74.00       293.81
 1183.51        2959.00           1342          82.00       328.69
 1183.54        2959.25           1346          83.00       333.05
 1183.57        2959.50           1349          89.00       359.20
 1183.60        2959.75           1352         110.00       450.75
 1183.63        2960.00           1356         126.00       520.50
 1183.66        2960.25           1359         174.00       729.75
 1183.70        2960.50           1362         229.00       969.51
 1183.73        2960.75           1366         273.00      1161.33
 1183.76        2961.00           1369         305.00      1300.84
 1183.79        2961.25           1372         344.00      1470.86
 1183.82        2961.50           1376         489.00      2103.01
 1183.85        2961.75           1379        1011.00      4378.95
 1183.88        2962.00           1382        2194.00      9538.04
 1183.91        2962.25           1386        4279.00     18634.65
 1183.94        2962.50           1389        5699.00     24832.79
 1183.98        2962.75           1392        7325.00     31932.93
 1184.01        2963.00           1396        9440.00     41172.88
 1184.04        2963.25           1399       10800.00     47117.13
 1184.07        2963.50           1402       12463.00     54388.59
 1184.10        2963.75           1406       14734.00     64323.66
 1184.13        2964.00           1409       16339.00     71348.72
 1184.16        2964.25           1412       17753.00     77540.24
 1184.19        2964.50           1416       20110.00     87866.01
 1184.22        2964.75           1419       21645.00     94594.12
 1184.26        2965.00           1422       23307.00    101882.00
 1184.29        2965.25           1426       25534.00    111652.40
 1184.32        2965.50           1429       27039.00    118258.40
 1184.35        2965.75           1432       28798.00    125982.70
 1184.38        2966.00           1436       30590.00    133855.60
 1184.41        2966.25           1439       32234.00    141081.50
 1184.44        2966.50           1442       33583.00    147013.10
 1184.47        2966.75           1446       34390.00    150562.60
 1184.50        2967.00           1449       34408.00    150641.80
 1184.54        2967.25           1452       34624.00    151591.90
 1184.57        2967.50           1456       34484.00    150976.10
 1184.60        2967.75           1459       34537.00    151209.20
 1184.63        2968.00           1462       33967.00    148702.00
 1184.66        2968.25           1466       32042.00    140237.40
 1184.69        2968.50           1469       30964.00    135499.10
 1184.72        2968.75           1472       29391.00    128587.50
 1184.75        2969.00           1476       27171.00    118837.90
 1184.78        2969.25           1479       25693.00    112350.20
 1184.81        2969.50           1482       24276.00    106132.50
 1184.84        2969.75           1486       22177.00     96926.60
 1184.88        2970.00           1489       20673.00     90333.40
 1184.91        2970.25           1492       18881.00     82481.10
 1184.94        2970.50           1496       16811.00     73415.23
 1184.97        2970.75           1499       15203.00     66376.16
 1185.00        2971.00           1502       13477.00     58823.87
 1185.03        2971.25           1506       11200.00     48865.84
 1185.06        2971.50           1509        9653.00     42103.72
 1185.09        2971.75           1513        7641.00     33313.14
 1185.12        2972.00           1516        5984.00     26077.06
 1185.16        2972.25           1519        4476.00     19494.40
 1185.19        2972.50           1523        2526.00     10986.18
 1185.22        2972.75           1526        1224.00      5307.73
 1185.25        2973.00           1529         576.00      2482.31
 1185.28        2973.25           1533         401.00      1719.36
 1185.31        2973.50           1536         323.00      1379.31
 1185.34        2973.75           1539         283.00      1204.93
 1185.37        2974.00           1543         239.00      1013.11
 1185.40        2974.25           1546         175.00       734.11
 1185.43        2974.50           1549         142.00       590.25
 1185.47        2974.75           1553         111.00       455.11
 1185.50        2975.00           1556          92.00       372.28
 1185.53        2975.25           1559          77.00       306.89
 1185.56        2975.50           1563          68.00       267.66
 1185.59        2975.75           1566          66.00       258.94
 1185.62        2976.00           1569          78.00       311.25
 1185.65        2976.25           1573          66.00       258.94
 1185.68        2976.50           1576          65.00       254.58
 1185.71        2976.75           1579          72.00       285.09
 1185.74        2977.00           1583          80.00       319.97
 1185.77        2977.25           1586          76.00       302.53
 1185.81        2977.50           1590          72.00       285.09
 1185.84        2977.75           1593          74.00       293.81
 1185.87        2978.00           1596          73.00       289.45
 1185.90        2978.25           1600          62.00       241.50
 1185.93        2978.50           1603          78.00       311.25
 1185.96        2978.75           1606          66.00       258.94
 1185.99        2979.00           1610          72.00       285.09
 1186.02        2979.25           1613          71.00       280.73
 1186.05        2979.50           1616          65.00       254.58
 1186.08        2979.75           1620          67.00       263.30
 1186.11        2980.00           1623          69.00       272.02
 1186.14        2980.25           1626          68.00       267.66
 1186.17        2980.50           1630          68.00       267.66
 1186.20        2980.75           1633          71.00       280.73
 1186.24        2981.00           1637          71.00       280.73
 1186.27        2981.25           1640          75.00       298.17
 1186.30        2981.50           1643          83.00       333.05
 1186.33        2981.75           1647          66.00       258.94
 1186.36        2982.00           1650          69.00       272.02
 1186.39        2982.25           1653          63.00       245.86
 1186.42        2982.50           1657          63.00       245.86
 1186.45        2982.75           1660          67.00       263.30
 1186.48        2983.00           1663          61.00       237.14
 1186.51        2983.25           1667          70.00       276.38
 1186.55        2983.50           1670          73.00       289.45
 1186.58        2983.75           1673          65.00       254.58
 1186.61        2984.00           1677          72.00       285.09
HS scan finished at 19:46:50
end
