************************************************************
  HS Scan of (1) Internal mercury lamp
************************************************************
Integration time is 0.2294 seconds per sample
dh110917Manchester 53.47 2.23 2.804185pr1000
************************************************************
Dead Time -------------------------  3E-08 
Number of Cycles Used -------------  4 
Starting Wavelength (Angstroms) ---  2950 
Final Wavelength (Angstoms) -------  2984 
Wavelength Increment (Angstroms) --  .25 
Filter Wheel #1 Position ---------- (1) Ground quartz diffuser (ND=2.32)
Filter Wheel #2 Position ---------- (1) Neutral Density 0.494



************************************************************
HS scan start time = 01:51:56
Dark Count =  6.7 


Time (GMT)  Wavelength (Ang)  Step Number  Raw Counts  Counts/Second

  112.30        2950.00           1222          76.00       302.10
  112.37        2950.25           1226          88.00       354.41
  112.40        2950.50           1229          80.00       319.53
  112.43        2950.75           1232          80.00       319.53
  112.46        2951.00           1236          78.00       310.81
  112.49        2951.25           1239          72.00       284.66
  112.52        2951.50           1242          76.00       302.10
  112.55        2951.75           1246          77.00       306.45
  112.58        2952.00           1249          82.00       328.25
  112.61        2952.25           1252          82.00       328.25
  112.64        2952.50           1256          76.00       302.10
  112.68        2952.75           1259          73.00       289.02
  112.71        2953.00           1262          76.00       302.10
  112.74        2953.25           1266          75.00       297.74
  112.77        2953.50           1269          82.00       328.25
  112.80        2953.75           1272          77.00       306.45
  112.83        2954.00           1276          80.00       319.53
  112.86        2954.25           1279          71.00       280.30
  112.89        2954.50           1282          74.00       293.38
  112.92        2954.75           1286          75.00       297.74
  112.95        2955.00           1289          73.00       289.02
  112.98        2955.25           1292          71.00       280.30
  113.02        2955.50           1296          90.00       363.13
  113.05        2955.75           1299          77.00       306.45
  113.08        2956.00           1302          78.00       310.81
  113.11        2956.25           1306          75.00       297.74
  113.14        2956.50           1309          75.00       297.74
  113.17        2956.75           1312          75.00       297.74
  113.20        2957.00           1316          78.00       310.81
  113.23        2957.25           1319          73.00       289.02
  113.26        2957.50           1322          74.00       293.38
  113.29        2957.75           1326          71.00       280.30
  113.33        2958.00           1329          85.00       341.33
  113.36        2958.25           1332          74.00       293.38
  113.39        2958.50           1336          74.00       293.38
  113.42        2958.75           1339          81.00       323.89
  113.45        2959.00           1342          84.00       336.97
  113.48        2959.25           1346          76.00       302.10
  113.51        2959.50           1349          81.00       323.89
  113.54        2959.75           1352          93.00       376.20
  113.57        2960.00           1356         127.00       524.42
  113.60        2960.25           1359         140.00       581.09
  113.63        2960.50           1362         184.00       772.90
  113.67        2960.75           1366         241.00      1021.39
  113.70        2961.00           1369         266.00      1130.38
  113.73        2961.25           1372         325.00      1387.59
  113.76        2961.50           1376         396.00      1697.12
  113.79        2961.75           1379         517.00      2224.65
  113.82        2962.00           1382         948.00      4103.82
  113.85        2962.25           1386        2486.00     10811.27
  113.88        2962.50           1389        4186.00     18228.36
  113.91        2962.75           1392        5767.00     25129.22
  113.95        2963.00           1396        7824.00     34112.05
  113.98        2963.25           1399        9401.00     41002.02
  114.01        2963.50           1402       10857.00     47365.86
  114.04        2963.75           1406       13064.00     57016.80
  114.07        2964.00           1409       14768.00     64472.01
  114.10        2964.25           1412       16395.00     71593.46
  114.13        2964.50           1416       18508.00     80846.68
  114.16        2964.75           1419       20071.00     87694.66
  114.19        2965.00           1422       21775.00     95163.63
  114.23        2965.25           1426       24047.00    105127.50
  114.26        2965.50           1429       25769.00    112683.30
  114.29        2965.75           1432       27246.00    119166.80
  114.32        2966.00           1436       29643.00    129694.10
  114.35        2966.25           1439       31111.00    136144.70
  114.38        2966.50           1442       32543.00    142439.60
  114.41        2966.75           1446       34249.00    149941.90
  114.44        2967.00           1449       34832.00    152506.50
  114.47        2967.25           1452       34712.00    151978.60
  114.50        2967.50           1456       34667.00    151780.70
  114.54        2967.75           1459       34846.00    152568.10
  114.57        2968.00           1462       34886.00    152744.10
  114.60        2968.25           1466       33989.00    148798.30
  114.63        2968.50           1469       32470.00    142118.60
  114.66        2968.75           1472       31048.00    135867.90
  114.69        2969.00           1476       29048.00    127080.40
  114.72        2969.25           1479       27168.00    118824.30
  114.75        2969.50           1482       25798.00    112810.50
  114.78        2969.75           1486       23593.00    103136.00
  114.82        2970.00           1489       21934.00     95860.72
  114.85        2970.25           1492       20452.00     89364.38
  114.88        2970.50           1496       18296.00     79918.06
  114.91        2970.75           1499       16714.00     72990.09
  114.94        2971.00           1502       15094.00     65898.68
  114.97        2971.25           1506       12749.00     55639.01
  115.00        2971.50           1509       10969.00     47855.49
  115.03        2971.75           1513        8806.00     38402.11
  115.06        2972.00           1516        7241.00     31565.63
  115.09        2972.25           1519        5647.00     24605.34
  115.13        2972.50           1523        3697.00     16094.52
  115.16        2972.75           1526        2246.00      9764.41
  115.19        2973.00           1529        1014.00      4391.60
  115.22        2973.25           1533         485.00      2085.13
  115.25        2973.50           1536         345.00      1474.78
  115.28        2973.75           1539         314.00      1339.64
  115.31        2974.00           1543         256.00      1086.78
  115.34        2974.25           1546         198.00       833.94
  115.37        2974.50           1549         171.00       716.23
  115.40        2974.75           1553         122.00       502.62
  115.43        2975.00           1556         106.00       432.87
  115.46        2975.25           1559          83.00       332.61
  115.49        2975.50           1563          68.00       267.22
  115.52        2975.75           1566          73.00       289.02
  115.55        2976.00           1569          76.00       302.10
  115.59        2976.25           1573          78.00       310.81
  115.62        2976.50           1576          73.00       289.02
  115.65        2976.75           1579          71.00       280.30
  115.68        2977.00           1583          77.00       306.45
  115.71        2977.25           1586          75.00       297.74
  115.74        2977.50           1590          74.00       293.38
  115.77        2977.75           1593          77.00       306.45
  115.80        2978.00           1596          75.00       297.74
  115.83        2978.25           1600          79.00       315.17
  115.86        2978.50           1603          81.00       323.89
  115.89        2978.75           1606          67.00       262.86
  115.92        2979.00           1610          76.00       302.10
  115.96        2979.25           1613          67.00       262.86
  115.99        2979.50           1616          67.00       262.86
  116.02        2979.75           1620          73.00       289.02
  116.05        2980.00           1623          70.00       275.94
  116.08        2980.25           1626          72.00       284.66
  116.11        2980.50           1630          67.00       262.86
  116.14        2980.75           1633          70.00       275.94
  116.17        2981.00           1637          63.00       245.42
  116.20        2981.25           1640          65.00       254.14
  116.23        2981.50           1643          64.00       249.78
  116.26        2981.75           1647          60.00       232.35
  116.29        2982.00           1650          66.00       258.50
  116.32        2982.25           1653          66.00       258.50
  116.35        2982.50           1657          65.00       254.14
  116.38        2982.75           1660          63.00       245.42
  116.42        2983.00           1663          58.00       223.63
  116.45        2983.25           1667          72.00       284.66
  116.48        2983.50           1670          71.00       280.30
  116.51        2983.75           1673          77.00       306.45
  116.54        2984.00           1677          65.00       254.14
HS scan finished at 01:56:45
end
************************************************************
  HS Scan of (1) Internal mercury lamp
************************************************************
Integration time is 0.2294 seconds per sample
dh110917Manchester 53.47 2.23 2.804185pr1000
************************************************************
Dead Time -------------------------  3E-08 
Number of Cycles Used -------------  4 
Starting Wavelength (Angstroms) ---  2950 
Final Wavelength (Angstoms) -------  2984 
Wavelength Increment (Angstroms) --  .25 
Filter Wheel #1 Position ---------- (1) Ground quartz diffuser (ND=2.32)
Filter Wheel #2 Position ---------- (1) Neutral Density 0.494



************************************************************
HS scan start time = 19:42:01
Dark Count =  7.2 


Time (GMT)  Wavelength (Ang)  Step Number  Raw Counts  Counts/Second

 1182.39        2950.00           1222          74.00       291.20
 1182.46        2950.25           1226          73.00       286.84
 1182.49        2950.50           1229          75.00       295.56
 1182.52        2950.75           1232          78.00       308.63
 1182.55        2951.00           1236          88.00       352.23
 1182.58        2951.25           1239          71.00       278.12
 1182.61        2951.50           1242          84.00       334.79
 1182.64        2951.75           1246          78.00       308.63
 1182.67        2952.00           1249          80.00       317.35
 1182.70        2952.25           1252          73.00       286.84
 1182.73        2952.50           1256          83.00       330.43
 1182.77        2952.75           1259          84.00       334.79
 1182.80        2953.00           1262          70.00       273.76
 1182.83        2953.25           1266          83.00       330.43
 1182.86        2953.50           1269          77.00       304.27
 1182.89        2953.75           1272          81.00       321.71
 1182.92        2954.00           1276          73.00       286.84
 1182.95        2954.25           1279          79.00       312.99
 1182.98        2954.50           1282          81.00       321.71
 1183.01        2954.75           1286          75.00       295.56
 1183.04        2955.00           1289          72.00       282.48
 1183.07        2955.25           1292          75.00       295.56
 1183.10        2955.50           1296          72.00       282.48
 1183.13        2955.75           1299          71.00       278.12
 1183.16        2956.00           1302          78.00       308.63
 1183.20        2956.25           1306          78.00       308.63
 1183.23        2956.50           1309          77.00       304.27
 1183.26        2956.75           1312          73.00       286.84
 1183.29        2957.00           1316          73.00       286.84
 1183.32        2957.25           1319          80.00       317.35
 1183.35        2957.50           1322          72.00       282.48
 1183.38        2957.75           1326          75.00       295.56
 1183.41        2958.00           1329          74.00       291.20
 1183.44        2958.25           1332          79.00       312.99
 1183.47        2958.50           1336          74.00       291.20
 1183.50        2958.75           1339          66.00       256.32
 1183.53        2959.00           1342          73.00       286.84
 1183.56        2959.25           1346          81.00       321.71
 1183.60        2959.50           1349          85.00       339.15
 1183.63        2959.75           1352         102.00       413.26
 1183.66        2960.00           1356         137.00       565.83
 1183.69        2960.25           1359         172.00       718.41
 1183.72        2960.50           1362         206.00       866.63
 1183.75        2960.75           1366         275.00      1167.43
 1183.78        2961.00           1369         305.00      1298.22
 1183.81        2961.25           1372         338.00      1442.09
 1183.84        2961.50           1376         386.00      1651.35
 1183.88        2961.75           1379         497.00      2135.27
 1183.91        2962.00           1382         746.00      3220.89
 1183.94        2962.25           1386        2094.00      9099.26
 1183.97        2962.50           1389        3431.00     14931.71
 1184.00        2962.75           1392        4826.00     21019.35
 1184.03        2963.00           1396        6834.00     29785.98
 1184.06        2963.25           1399        8448.00     36835.80
 1184.09        2963.50           1402       10142.00     44238.27
 1184.12        2963.75           1406       12364.00     53953.00
 1184.15        2964.00           1409       13843.00     60422.42
 1184.18        2964.25           1412       15502.00     67682.19
 1184.21        2964.50           1416       17580.00     76779.98
 1184.25        2964.75           1419       19116.00     83508.00
 1184.28        2965.00           1422       20843.00     91075.88
 1184.31        2965.25           1426       22978.00    100436.40
 1184.34        2965.50           1429       24540.00    107288.10
 1184.37        2965.75           1432       26356.00    115257.50
 1184.40        2966.00           1436       28498.00    124662.40
 1184.43        2966.25           1439       29766.00    130232.30
 1184.46        2966.50           1442       31374.00    137298.50
 1184.49        2966.75           1446       33366.00    146056.20
 1184.53        2967.00           1449       34304.00    150181.70
 1184.56        2967.25           1452       34562.00    151316.60
 1184.59        2967.50           1456       34491.00    151004.30
 1184.62        2967.75           1459       34460.00    150867.90
 1184.65        2968.00           1462       34581.00    151400.20
 1184.68        2968.25           1466       34168.00    149583.40
 1184.71        2968.50           1469       33124.00    144992.00
 1184.74        2968.75           1472       31553.00    138085.20
 1184.77        2969.00           1476       29697.00    129929.20
 1184.81        2969.25           1479       28278.00    123696.20
 1184.84        2969.50           1482       26565.00    116174.90
 1184.87        2969.75           1486       24568.00    107410.90
 1184.90        2970.00           1489       23174.00    101296.00
 1184.93        2970.25           1492       21449.00     93732.26
 1184.96        2970.50           1496       19154.00     83674.48
 1184.99        2970.75           1499       17656.00     77112.81
 1185.02        2971.00           1502       16192.00     70702.56
 1185.05        2971.25           1506       13910.00     60715.55
 1185.08        2971.50           1509       12240.00     53410.71
 1185.12        2971.75           1513       10058.00     43871.13
 1185.15        2972.00           1516        8468.00     36923.18
 1185.18        2972.25           1519        6958.00     30327.50
 1185.21        2972.50           1523        4722.00     20565.43
 1185.24        2972.75           1526        3218.00     14002.40
 1185.27        2973.00           1529        1814.00      7878.06
 1185.30        2973.25           1533         616.00      2654.09
 1185.33        2973.50           1536         386.00      1651.35
 1185.36        2973.75           1539         316.00      1346.17
 1185.39        2974.00           1543         267.00      1132.56
 1185.42        2974.25           1546         219.00       923.30
 1185.45        2974.50           1549         150.00       622.51
 1185.48        2974.75           1553         102.00       413.26
 1185.52        2975.00           1556          86.00       343.51
 1185.55        2975.25           1559          78.00       308.63
 1185.58        2975.50           1563          67.00       260.68
 1185.61        2975.75           1566          75.00       295.56
 1185.64        2976.00           1569          81.00       321.71
 1185.67        2976.25           1573          81.00       321.71
 1185.70        2976.50           1576          67.00       260.68
 1185.73        2976.75           1579          66.00       256.32
 1185.76        2977.00           1583          74.00       291.20
 1185.79        2977.25           1586          68.00       265.04
 1185.82        2977.50           1590          74.00       291.20
 1185.85        2977.75           1593          71.00       278.12
 1185.89        2978.00           1596          69.00       269.40
 1185.92        2978.25           1600          62.00       238.89
 1185.95        2978.50           1603          69.00       269.40
 1185.98        2978.75           1606          68.00       265.04
 1186.01        2979.00           1610          67.00       260.68
 1186.04        2979.25           1613          70.00       273.76
 1186.07        2979.50           1616          65.00       251.96
 1186.10        2979.75           1620          71.00       278.12
 1186.13        2980.00           1623          77.00       304.27
 1186.16        2980.25           1626          62.00       238.89
 1186.19        2980.50           1630          69.00       269.40
 1186.23        2980.75           1633          69.00       269.40
 1186.26        2981.00           1637          74.00       291.20
 1186.29        2981.25           1640          70.00       273.76
 1186.32        2981.50           1643          72.00       282.48
 1186.35        2981.75           1647          69.00       269.40
 1186.38        2982.00           1650          70.00       273.76
 1186.41        2982.25           1653          70.00       273.76
 1186.44        2982.50           1657          68.00       265.04
 1186.47        2982.75           1660          66.00       256.32
 1186.50        2983.00           1663          67.00       260.68
 1186.53        2983.25           1667          65.00       251.96
 1186.57        2983.50           1670          70.00       273.76
 1186.60        2983.75           1673          63.00       243.25
 1186.63        2984.00           1677          65.00       251.96
HS scan finished at 19:46:51
end
