************************************************************
  HS Scan of (1) Internal mercury lamp
************************************************************
Integration time is 0.2294 seconds per sample
dh100918Manchester 53.47 2.23 2.804185pr1000
************************************************************
Dead Time -------------------------  3E-08 
Number of Cycles Used -------------  4 
Starting Wavelength (Angstroms) ---  2950 
Final Wavelength (Angstoms) -------  2984 
Wavelength Increment (Angstroms) --  .25 
Filter Wheel #1 Position ---------- (1) Ground quartz diffuser (ND=2.32)
Filter Wheel #2 Position ---------- (1) Neutral Density 0.494



************************************************************
HS scan start time = 01:43:06
Dark Count =  8.7 


Time (GMT)  Wavelength (Ang)  Step Number  Raw Counts  Counts/Second

  103.48        2950.00           1222          51.00       184.40
  103.54        2950.25           1226          51.00       184.40
  103.57        2950.50           1229          58.00       214.91
  103.60        2950.75           1232          51.00       184.40
  103.63        2951.00           1236          53.00       193.11
  103.67        2951.25           1239          53.00       193.11
  103.70        2951.50           1242          53.00       193.11
  103.73        2951.75           1246          50.00       180.04
  103.76        2952.00           1249          55.00       201.83
  103.79        2952.25           1252          50.00       180.04
  103.82        2952.50           1256          54.00       197.47
  103.85        2952.75           1259          53.00       193.11
  103.88        2953.00           1262          51.00       184.40
  103.91        2953.25           1266          53.00       193.11
  103.94        2953.50           1269          50.00       180.04
  103.97        2953.75           1272          60.00       223.63
  104.00        2954.00           1276          59.00       219.27
  104.03        2954.25           1279          52.00       188.75
  104.07        2954.50           1282          50.00       180.04
  104.10        2954.75           1286          48.00       171.32
  104.13        2955.00           1289          60.00       223.63
  104.16        2955.25           1292          54.00       197.47
  104.19        2955.50           1296          50.00       180.04
  104.22        2955.75           1299          50.00       180.04
  104.25        2956.00           1302          50.00       180.04
  104.28        2956.25           1306          52.00       188.75
  104.31        2956.50           1309          55.00       201.83
  104.34        2956.75           1312          51.00       184.40
  104.37        2957.00           1316          52.00       188.75
  104.40        2957.25           1319          53.00       193.11
  104.44        2957.50           1322          50.00       180.04
  104.47        2957.75           1326          47.00       166.96
  104.50        2958.00           1329          56.00       206.19
  104.53        2958.25           1332          53.00       193.11
  104.56        2958.50           1336          56.00       206.19
  104.59        2958.75           1339          43.00       149.52
  104.62        2959.00           1342          50.00       180.04
  104.65        2959.25           1346          57.00       210.55
  104.68        2959.50           1349          57.00       210.55
  104.71        2959.75           1352          77.00       297.74
  104.74        2960.00           1356          89.00       350.05
  104.77        2960.25           1359         125.00       506.98
  104.80        2960.50           1362         151.00       620.33
  104.83        2960.75           1366         190.00       790.34
  104.87        2961.00           1369         215.00       899.33
  104.90        2961.25           1372         260.00      1095.50
  104.93        2961.50           1376         325.00      1378.87
  104.96        2961.75           1379         448.00      1915.11
  104.99        2962.00           1382        1019.00      4404.68
  105.02        2962.25           1386        2569.00     11164.59
  105.05        2962.50           1389        3737.00     16260.33
  105.08        2962.75           1392        4918.00     21414.36
  105.11        2963.00           1396        6527.00     28438.81
  105.15        2963.25           1399        7683.00     33487.42
  105.18        2963.50           1402        8911.00     38852.15
  105.21        2963.75           1406       10566.00     46085.03
  105.24        2964.00           1409       12004.00     52372.11
  105.27        2964.25           1412       13229.00     57729.81
  105.30        2964.50           1416       14900.00     65040.91
  105.33        2964.75           1419       16266.00     71019.95
  105.36        2965.00           1422       17465.00     76269.78
  105.39        2965.25           1426       19207.00     83900.11
  105.42        2965.50           1429       20406.00     89154.01
  105.46        2965.75           1432       21654.00     94624.38
  105.49        2966.00           1436       23351.00    102065.80
  105.52        2966.25           1439       24378.00    106570.80
  105.55        2966.50           1442       25427.00    111173.60
  105.58        2966.75           1446       26513.00    115940.10
  105.61        2967.00           1449       27033.00    118222.90
  105.64        2967.25           1452       26913.00    117696.00
  105.67        2967.50           1456       26976.00    117972.60
  105.70        2967.75           1459       26932.00    117779.40
  105.73        2968.00           1462       26917.00    117713.60
  105.76        2968.25           1466       25710.00    112415.50
  105.80        2968.50           1469       24636.00    107702.70
  105.83        2968.75           1472       23523.00    102820.20
  105.86        2969.00           1476       21921.00     95794.96
  105.89        2969.25           1479       20646.00     90205.86
  105.92        2969.50           1482       19488.00     85131.28
  105.95        2969.75           1486       17832.00     77877.03
  105.98        2970.00           1489       16480.00     71956.83
  106.01        2970.25           1492       15277.00     66690.84
  106.04        2970.50           1496       13654.00     59588.99
  106.07        2970.75           1499       12502.00     54549.97
  106.11        2971.00           1502       11061.00     48248.96
  106.14        2971.25           1506        9527.00     41543.90
  106.17        2971.50           1509        8210.00     35789.50
  106.20        2971.75           1513        6555.00     28561.08
  106.23        2972.00           1516        5335.00     23234.59
  106.26        2972.25           1519        4122.00     17940.34
  106.29        2972.50           1523        2502.00     10872.34
  106.32        2972.75           1526        1460.00      6327.71
  106.35        2973.00           1529         640.00      2752.19
  106.38        2973.25           1533         336.00      1426.83
  106.41        2973.50           1536         271.00      1143.46
  106.44        2973.75           1539         232.00       973.44
  106.48        2974.00           1543         184.00       764.18
  106.51        2974.25           1546         144.00       589.81
  106.54        2974.50           1549         114.00       459.03
  106.57        2974.75           1553          80.00       310.81
  106.60        2975.00           1556          78.00       302.10
  106.63        2975.25           1559          54.00       197.47
  106.66        2975.50           1563          46.00       162.60
  106.69        2975.75           1566          44.00       153.88
  106.72        2976.00           1569          51.00       184.40
  106.75        2976.25           1573          52.00       188.75
  106.78        2976.50           1576          48.00       171.32
  106.81        2976.75           1579          55.00       201.83
  106.84        2977.00           1583          45.00       158.24
  106.88        2977.25           1586          50.00       180.04
  106.91        2977.50           1590          50.00       180.04
  106.94        2977.75           1593          52.00       188.75
  106.97        2978.00           1596          50.00       180.04
  107.00        2978.25           1600          47.00       166.96
  107.03        2978.50           1603          44.00       153.88
  107.06        2978.75           1606          54.00       197.47
  107.09        2979.00           1610          53.00       193.11
  107.12        2979.25           1613          43.00       149.52
  107.16        2979.50           1616          44.00       153.88
  107.19        2979.75           1620          54.00       197.47
  107.22        2980.00           1623          48.00       171.32
  107.25        2980.25           1626          52.00       188.75
  107.28        2980.50           1630          50.00       180.04
  107.31        2980.75           1633          43.00       149.52
  107.34        2981.00           1637          46.00       162.60
  107.37        2981.25           1640          40.00       136.44
  107.40        2981.50           1643          47.00       166.96
  107.43        2981.75           1647          46.00       162.60
  107.46        2982.00           1650          42.00       145.16
  107.50        2982.25           1653          51.00       184.40
  107.53        2982.50           1657          52.00       188.75
  107.56        2982.75           1660          48.00       171.32
  107.59        2983.00           1663          48.00       171.32
  107.62        2983.25           1667          44.00       153.88
  107.65        2983.50           1670          42.00       145.16
  107.68        2983.75           1673          51.00       184.40
  107.71        2984.00           1677          47.00       166.96
HS scan finished at 01:47:55
end
************************************************************
  HS Scan of (1) Internal mercury lamp
************************************************************
Integration time is 0.2294 seconds per sample
dh100918Manchester 53.47 2.23 2.857833pr1000
************************************************************
Dead Time -------------------------  3E-08 
Number of Cycles Used -------------  4 
Starting Wavelength (Angstroms) ---  2950 
Final Wavelength (Angstoms) -------  2984 
Wavelength Increment (Angstroms) --  .25 
Filter Wheel #1 Position ---------- (1) Ground quartz diffuser (ND=2.32)
Filter Wheel #2 Position ---------- (1) Neutral Density 0.494



************************************************************
HS scan start time = 19:42:02
Dark Count =  7.6 


Time (GMT)  Wavelength (Ang)  Step Number  Raw Counts  Counts/Second

 1182.41        2950.00           1222          49.00       180.47
 1182.48        2950.25           1226          54.00       202.27
 1182.51        2950.50           1229          54.00       202.27
 1182.54        2950.75           1232          52.00       193.55
 1182.57        2951.00           1236          50.00       184.83
 1182.60        2951.25           1239          55.00       206.63
 1182.63        2951.50           1242          61.00       232.78
 1182.66        2951.75           1246          50.00       184.83
 1182.70        2952.00           1249          52.00       193.55
 1182.73        2952.25           1252          53.00       197.91
 1182.76        2952.50           1256          46.00       167.39
 1182.79        2952.75           1259          55.00       206.63
 1182.82        2953.00           1262          55.00       206.63
 1182.85        2953.25           1266          50.00       184.83
 1182.88        2953.50           1269          52.00       193.55
 1182.91        2953.75           1272          58.00       219.71
 1182.94        2954.00           1276          50.00       184.83
 1182.97        2954.25           1279          51.00       189.19
 1183.00        2954.50           1282          46.00       167.39
 1183.03        2954.75           1286          47.00       171.75
 1183.07        2955.00           1289          54.00       202.27
 1183.10        2955.25           1292          53.00       197.91
 1183.13        2955.50           1296          51.00       189.19
 1183.16        2955.75           1299          57.00       215.35
 1183.19        2956.00           1302          48.00       176.11
 1183.22        2956.25           1306          46.00       167.39
 1183.25        2956.50           1309          48.00       176.11
 1183.28        2956.75           1312          49.00       180.47
 1183.31        2957.00           1316          55.00       206.63
 1183.34        2957.25           1319          52.00       193.55
 1183.37        2957.50           1322          54.00       202.27
 1183.40        2957.75           1326          56.00       210.99
 1183.44        2958.00           1329          54.00       202.27
 1183.47        2958.25           1332          50.00       184.83
 1183.50        2958.50           1336          48.00       176.11
 1183.53        2958.75           1339          53.00       197.91
 1183.56        2959.00           1342          57.00       215.35
 1183.59        2959.25           1346          58.00       219.71
 1183.62        2959.50           1349          53.00       197.91
 1183.65        2959.75           1352          63.00       241.50
 1183.68        2960.00           1356          81.00       319.97
 1183.71        2960.25           1359         105.00       424.59
 1183.74        2960.50           1362         132.00       542.29
 1183.77        2960.75           1366         173.00       721.03
 1183.81        2961.00           1369         216.00       908.48
 1183.84        2961.25           1372         246.00      1039.27
 1183.87        2961.50           1376         304.00      1292.12
 1183.90        2961.75           1379         459.00      1967.86
 1183.93        2962.00           1382        1049.00      4540.29
 1183.96        2962.25           1386        2557.00     11117.05
 1183.99        2962.50           1389        3732.00     16243.31
 1184.02        2962.75           1392        4943.00     21528.29
 1184.05        2963.00           1396        6572.00     28640.12
 1184.08        2963.25           1399        7732.00     33706.26
 1184.11        2963.50           1402        8975.00     39136.60
 1184.14        2963.75           1406       10670.00     46544.46
 1184.18        2964.00           1409       11921.00     52013.98
 1184.21        2964.25           1412       13330.00     58176.43
 1184.24        2964.50           1416       14952.00     65273.30
 1184.27        2964.75           1419       16428.00     71733.99
 1184.30        2965.00           1422       17898.00     78170.90
 1184.33        2965.25           1426       19363.00     84588.41
 1184.36        2965.50           1429       20495.00     89548.88
 1184.39        2965.75           1432       21894.00     95681.41
 1184.43        2966.00           1436       23618.00    103241.70
 1184.46        2966.25           1439       24883.00    108791.30
 1184.49        2966.50           1442       25861.00    113083.10
 1184.52        2966.75           1446       27085.00    118456.00
 1184.55        2967.00           1449       27227.00    119079.40
 1184.58        2967.25           1452       27299.00    119395.50
 1184.61        2967.50           1456       27267.00    119255.00
 1184.64        2967.75           1459       27236.00    119118.90
 1184.67        2968.00           1462       27024.00    118188.20
 1184.71        2968.25           1466       26060.00    113956.50
 1184.74        2968.50           1469       25070.00    109611.80
 1184.77        2968.75           1472       23777.00    103939.10
 1184.80        2969.00           1476       22237.00     97185.30
 1184.83        2969.25           1479       21140.00     92375.96
 1184.86        2969.50           1482       19926.00     87055.31
 1184.89        2969.75           1486       18352.00     80159.41
 1184.92        2970.00           1489       17043.00     74426.68
 1184.95        2970.25           1492       15677.00     68446.43
 1184.99        2970.50           1496       13967.00     60963.19
 1185.02        2970.75           1499       12744.00     55613.20
 1185.05        2971.00           1502       11483.00     50098.78
 1185.08        2971.25           1506        9813.00     42798.60
 1185.11        2971.50           1509        8506.00     37087.45
 1185.14        2971.75           1513        6808.00     29670.69
 1185.17        2972.00           1516        5589.00     24348.21
 1185.20        2972.25           1519        4397.00     19145.26
 1185.23        2972.50           1523        2787.00     12120.36
 1185.26        2972.75           1526        1640.00      7117.47
 1185.30        2973.00           1529         790.00      3410.99
 1185.33        2973.25           1533         373.00      1592.93
 1185.36        2973.50           1536         289.00      1226.72
 1185.39        2973.75           1539         262.00      1109.02
 1185.42        2974.00           1543         222.00       934.64
 1185.45        2974.25           1546         173.00       721.03
 1185.48        2974.50           1549         131.00       537.93
 1185.51        2974.75           1553         105.00       424.59
 1185.54        2975.00           1556          77.00       302.53
 1185.58        2975.25           1559          66.00       254.58
 1185.61        2975.50           1563          53.00       197.91
 1185.64        2975.75           1566          54.00       202.27
 1185.67        2976.00           1569          49.00       180.47
 1185.70        2976.25           1573          50.00       184.83
 1185.73        2976.50           1576          44.00       158.68
 1185.76        2976.75           1579          56.00       210.99
 1185.79        2977.00           1583          49.00       180.47
 1185.82        2977.25           1586          48.00       176.11
 1185.85        2977.50           1590          41.00       145.60
 1185.88        2977.75           1593          54.00       202.27
 1185.91        2978.00           1596          44.00       158.68
 1185.94        2978.25           1600          53.00       197.91
 1185.98        2978.50           1603          60.00       228.42
 1186.01        2978.75           1606          55.00       206.63
 1186.04        2979.00           1610          47.00       171.75
 1186.07        2979.25           1613          49.00       180.47
 1186.10        2979.50           1616          46.00       167.39
 1186.13        2979.75           1620          50.00       184.83
 1186.16        2980.00           1623          47.00       171.75
 1186.19        2980.25           1626          49.00       180.47
 1186.22        2980.50           1630          48.00       176.11
 1186.25        2980.75           1633          53.00       197.91
 1186.28        2981.00           1637          44.00       158.68
 1186.31        2981.25           1640          56.00       210.99
 1186.35        2981.50           1643          49.00       180.47
 1186.38        2981.75           1647          45.00       163.03
 1186.41        2982.00           1650          49.00       180.47
 1186.44        2982.25           1653          45.00       163.03
 1186.47        2982.50           1657          44.00       158.68
 1186.50        2982.75           1660          42.00       149.96
 1186.53        2983.00           1663          41.00       145.60
 1186.56        2983.25           1667          40.00       141.24
 1186.59        2983.50           1670          48.00       176.11
 1186.62        2983.75           1673          43.00       154.32
 1186.66        2984.00           1677          52.00       193.55
HS scan finished at 19:46:52
end
