************************************************************
  HS Scan of (1) Internal mercury lamp
************************************************************
Integration time is 0.2294 seconds per sample
dh130917Manchester 53.47 2.23 2.804185pr1000
************************************************************
Dead Time -------------------------  3E-08 
Number of Cycles Used -------------  4 
Starting Wavelength (Angstroms) ---  2950 
Final Wavelength (Angstoms) -------  2984 
Wavelength Increment (Angstroms) --  .25 
Filter Wheel #1 Position ---------- (1) Ground quartz diffuser (ND=2.32)
Filter Wheel #2 Position ---------- (1) Neutral Density 0.494



************************************************************
HS scan start time = 02:09:20
Dark Count =  7 


Time (GMT)  Wavelength (Ang)  Step Number  Raw Counts  Counts/Second

  129.70        2950.00           1222          74.00       292.07
  129.76        2950.25           1226          88.00       353.10
  129.79        2950.50           1229          75.00       296.43
  129.83        2950.75           1232          74.00       292.07
  129.86        2951.00           1236          78.00       309.51
  129.89        2951.25           1239          76.00       300.79
  129.92        2951.50           1242          84.00       335.66
  129.95        2951.75           1246          80.00       318.22
  129.98        2952.00           1249          75.00       296.43
  130.01        2952.25           1252          79.00       313.87
  130.04        2952.50           1256          75.00       296.43
  130.07        2952.75           1259          79.00       313.87
  130.10        2953.00           1262          87.00       348.74
  130.13        2953.25           1266          76.00       300.79
  130.17        2953.50           1269          80.00       318.22
  130.20        2953.75           1272          76.00       300.79
  130.23        2954.00           1276          68.00       265.91
  130.26        2954.25           1279          72.00       283.35
  130.29        2954.50           1282          79.00       313.87
  130.32        2954.75           1286          76.00       300.79
  130.35        2955.00           1289          70.00       274.63
  130.38        2955.25           1292          76.00       300.79
  130.41        2955.50           1296          82.00       326.94
  130.44        2955.75           1299          71.00       278.99
  130.47        2956.00           1302          83.00       331.30
  130.51        2956.25           1306          76.00       300.79
  130.54        2956.50           1309          77.00       305.15
  130.57        2956.75           1312          85.00       340.02
  130.60        2957.00           1316          76.00       300.79
  130.63        2957.25           1319          74.00       292.07
  130.66        2957.50           1322          70.00       274.63
  130.69        2957.75           1326          74.00       292.07
  130.72        2958.00           1329          73.00       287.71
  130.75        2958.25           1332          83.00       331.30
  130.79        2958.50           1336          63.00       244.12
  130.82        2958.75           1339          69.00       270.27
  130.85        2959.00           1342          87.00       348.74
  130.88        2959.25           1346          82.00       326.94
  130.91        2959.50           1349         100.00       405.41
  130.94        2959.75           1352         106.00       431.57
  130.97        2960.00           1356         150.00       623.38
  131.00        2960.25           1359         169.00       706.21
  131.03        2960.50           1362         218.00       919.82
  131.06        2960.75           1366         275.00      1168.31
  131.09        2961.00           1369         321.00      1368.84
  131.12        2961.25           1372         357.00      1525.79
  131.15        2961.50           1376         454.00      1948.68
  131.18        2961.75           1379         728.00      3143.28
  131.22        2962.00           1382        1606.00      6971.82
  131.25        2962.25           1386        3451.00     15019.85
  131.28        2962.50           1389        4984.00     21709.86
  131.31        2962.75           1392        6601.00     28769.37
  131.34        2963.00           1396        8746.00     38138.64
  131.37        2963.25           1399       10199.00     44488.28
  131.40        2963.50           1402       11747.00     51255.74
  131.43        2963.75           1406       14087.00     61490.84
  131.46        2964.00           1409       15829.00     69114.40
  131.49        2964.25           1412       17514.00     76491.81
  131.52        2964.50           1416       19747.00     86273.58
  131.56        2964.75           1419       21312.00     93132.56
  131.59        2965.00           1422       23075.00    100862.70
  131.62        2965.25           1426       25291.00    110584.20
  131.65        2965.50           1429       26850.00    117426.90
  131.68        2965.75           1432       28484.00    124601.80
  131.71        2966.00           1436       30525.00    133568.10
  131.74        2966.25           1439       32093.00    140459.90
  131.77        2966.50           1442       33691.00    147486.40
  131.81        2966.75           1446       34627.00    151603.40
  131.84        2967.00           1449       34945.00    153002.40
  131.87        2967.25           1452       34910.00    152848.40
  131.90        2967.50           1456       34701.00    151928.90
  131.93        2967.75           1459       35088.00    153631.50
  131.96        2968.00           1462       34700.00    151924.50
  131.99        2968.25           1466       33680.00    147438.00
  132.02        2968.50           1469       32176.00    140824.80
  132.05        2968.75           1472       30668.00    134196.60
  132.08        2969.00           1476       28579.00    125019.00
  132.12        2969.25           1479       26982.00    118006.40
  132.15        2969.50           1482       25292.00    110588.60
  132.18        2969.75           1486       23165.00    101257.40
  132.21        2970.00           1489       21444.00     93711.21
  132.24        2970.25           1492       20104.00     87837.96
  132.27        2970.50           1496       17796.00     77726.81
  132.30        2970.75           1499       16161.00     70567.72
  132.33        2971.00           1502       14568.00     63595.50
  132.37        2971.25           1506       12412.00     54163.80
  132.40        2971.50           1509       10909.00     47591.88
  132.43        2971.75           1513        8889.00     38763.45
  132.46        2972.00           1516        7142.00     31131.94
  132.49        2972.25           1519        5721.00     24927.09
  132.52        2972.50           1523        3625.00     15779.05
  132.55        2972.75           1526        2060.00      8951.84
  132.58        2973.00           1529         889.00      3845.26
  132.61        2973.25           1533         421.00      1804.81
  132.64        2973.50           1536         328.00      1399.36
  132.68        2973.75           1539         280.00      1190.10
  132.71        2974.00           1543         234.00       989.57
  132.74        2974.25           1546         176.00       736.72
  132.77        2974.50           1549         132.00       544.91
  132.80        2974.75           1553         107.00       435.93
  132.83        2975.00           1556          81.00       322.58
  132.86        2975.25           1559          76.00       300.79
  132.89        2975.50           1563          70.00       274.63
  132.92        2975.75           1566          74.00       292.07
  132.95        2976.00           1569          77.00       305.15
  132.98        2976.25           1573          65.00       252.84
  133.01        2976.50           1576          75.00       296.43
  133.05        2976.75           1579          81.00       322.58
  133.08        2977.00           1583          70.00       274.63
  133.11        2977.25           1586          66.00       257.19
  133.14        2977.50           1590          74.00       292.07
  133.17        2977.75           1593          76.00       300.79
  133.20        2978.00           1596          75.00       296.43
  133.23        2978.25           1600          67.00       261.55
  133.26        2978.50           1603          70.00       274.63
  133.29        2978.75           1606          67.00       261.55
  133.32        2979.00           1610          69.00       270.27
  133.35        2979.25           1613          66.00       257.19
  133.38        2979.50           1616          71.00       278.99
  133.41        2979.75           1620          79.00       313.87
  133.45        2980.00           1623          71.00       278.99
  133.48        2980.25           1626          75.00       296.43
  133.51        2980.50           1630          56.00       213.60
  133.54        2980.75           1633          69.00       270.27
  133.57        2981.00           1637          67.00       261.55
  133.60        2981.25           1640          60.00       231.04
  133.63        2981.50           1643          74.00       292.07
  133.66        2981.75           1647          71.00       278.99
  133.69        2982.00           1650          62.00       239.76
  133.72        2982.25           1653          62.00       239.76
  133.75        2982.50           1657          74.00       292.07
  133.79        2982.75           1660          71.00       278.99
  133.82        2983.00           1663          77.00       305.15
  133.85        2983.25           1667          63.00       244.12
  133.88        2983.50           1670          69.00       270.27
  133.91        2983.75           1673          62.00       239.76
  133.94        2984.00           1677          66.00       257.19
HS scan finished at 02:14:09
end
************************************************************
  HS Scan of (1) Internal mercury lamp
************************************************************
Integration time is 0.2294 seconds per sample
dh130917Manchester 53.47 2.23 2.804185pr1000
************************************************************
Dead Time -------------------------  3E-08 
Number of Cycles Used -------------  4 
Starting Wavelength (Angstroms) ---  2950 
Final Wavelength (Angstoms) -------  2984 
Wavelength Increment (Angstroms) --  .25 
Filter Wheel #1 Position ---------- (1) Ground quartz diffuser (ND=2.32)
Filter Wheel #2 Position ---------- (1) Neutral Density 0.494



************************************************************
HS scan start time = 19:42:02
Dark Count =  5.9 


Time (GMT)  Wavelength (Ang)  Step Number  Raw Counts  Counts/Second

 1182.40        2950.00           1222          78.00       314.30
 1182.47        2950.25           1226          75.00       301.22
 1182.50        2950.50           1229          87.00       353.53
 1182.53        2950.75           1232          79.00       318.66
 1182.56        2951.00           1236          75.00       301.22
 1182.59        2951.25           1239          82.00       331.74
 1182.63        2951.50           1242          82.00       331.74
 1182.66        2951.75           1246          79.00       318.66
 1182.69        2952.00           1249          85.00       344.82
 1182.72        2952.25           1252          69.00       275.07
 1182.75        2952.50           1256          72.00       288.15
 1182.78        2952.75           1259          82.00       331.74
 1182.81        2953.00           1262          76.00       305.58
 1182.84        2953.25           1266          78.00       314.30
 1182.87        2953.50           1269          69.00       275.07
 1182.90        2953.75           1272          93.00       379.69
 1182.93        2954.00           1276          75.00       301.22
 1182.96        2954.25           1279          80.00       323.02
 1182.99        2954.50           1282          86.00       349.18
 1183.03        2954.75           1286          81.00       327.38
 1183.06        2955.00           1289          73.00       292.50
 1183.09        2955.25           1292          70.00       279.43
 1183.12        2955.50           1296          80.00       323.02
 1183.15        2955.75           1299          75.00       301.22
 1183.18        2956.00           1302          82.00       331.74
 1183.21        2956.25           1306          77.00       309.94
 1183.24        2956.50           1309          71.00       283.79
 1183.27        2956.75           1312          73.00       292.50
 1183.30        2957.00           1316          74.00       296.86
 1183.33        2957.25           1319          81.00       327.38
 1183.36        2957.50           1322          81.00       327.38
 1183.40        2957.75           1326          80.00       323.02
 1183.43        2958.00           1329          80.00       323.02
 1183.46        2958.25           1332          77.00       309.94
 1183.49        2958.50           1336          78.00       314.30
 1183.52        2958.75           1339          68.00       270.71
 1183.55        2959.00           1342          77.00       309.94
 1183.58        2959.25           1346          82.00       331.74
 1183.61        2959.50           1349          90.00       366.61
 1183.64        2959.75           1352         105.00       432.00
 1183.67        2960.00           1356         135.00       562.78
 1183.71        2960.25           1359         164.00       689.20
 1183.74        2960.50           1362         207.00       876.66
 1183.77        2960.75           1366         266.00      1133.87
 1183.80        2961.00           1369         290.00      1238.49
 1183.83        2961.25           1372         340.00      1456.47
 1183.86        2961.50           1376         411.00      1766.00
 1183.89        2961.75           1379         508.00      2188.90
 1183.92        2962.00           1382         899.00      3893.65
 1183.95        2962.25           1386        2516.00     10945.62
 1183.98        2962.50           1389        4082.00     17778.01
 1184.01        2962.75           1392        5583.00     24329.44
 1184.04        2963.00           1396        7665.00     33421.03
 1184.08        2963.25           1399        9134.00     39838.78
 1184.11        2963.50           1402       10782.00     47041.49
 1184.14        2963.75           1406       12871.00     56176.11
 1184.17        2964.00           1409       14613.00     63797.22
 1184.20        2964.25           1412       16274.00     71067.23
 1184.23        2964.50           1416       18259.00     79759.50
 1184.26        2964.75           1419       19822.00     86607.04
 1184.29        2965.00           1422       21417.00     93597.68
 1184.32        2965.25           1426       23621.00    103262.30
 1184.36        2965.50           1429       25269.00    110492.50
 1184.39        2965.75           1432       26972.00    117967.30
 1184.42        2966.00           1436       29154.00    127549.50
 1184.45        2966.25           1439       30674.00    134227.80
 1184.48        2966.50           1442       32068.00    140354.80
 1184.51        2966.75           1446       33649.00    147306.50
 1184.54        2967.00           1449       34263.00    150007.00
 1184.57        2967.25           1452       34430.00    150741.60
 1184.60        2967.50           1456       34374.00    150495.30
 1184.63        2967.75           1459       34443.00    150798.80
 1184.67        2968.00           1462       34270.00    150037.80
 1184.70        2968.25           1466       33460.00    146475.30
 1184.73        2968.50           1469       32282.00    141295.60
 1184.76        2968.75           1472       30810.00    134825.40
 1184.79        2969.00           1476       28711.00    125603.60
 1184.82        2969.25           1479       27206.00    118994.60
 1184.85        2969.50           1482       25711.00    112432.20
 1184.88        2969.75           1486       23647.00    103376.30
 1184.92        2970.00           1489       22177.00     96929.66
 1184.95        2970.25           1492       20436.00     89297.76
 1184.98        2970.50           1496       18375.00     80267.60
 1185.01        2970.75           1499       16902.00     73816.73
 1185.04        2971.00           1502       15374.00     67127.63
 1185.07        2971.25           1506       13160.00     57440.23
 1185.10        2971.50           1509       11567.00     50473.49
 1185.13        2971.75           1513        9387.00     40944.33
 1185.16        2972.00           1516        7839.00     34181.07
 1185.19        2972.25           1519        6346.00     27660.70
 1185.23        2972.50           1523        4334.00     18877.73
 1185.26        2972.75           1526        2791.00     12145.23
 1185.29        2973.00           1529        1414.00      6139.32
 1185.32        2973.25           1533         480.00      2066.82
 1185.35        2973.50           1536         324.00      1386.72
 1185.38        2973.75           1539         272.00      1160.02
 1185.41        2974.00           1543         237.00      1007.44
 1185.44        2974.25           1546         165.00       693.56
 1185.47        2974.50           1549         131.00       545.34
 1185.50        2974.75           1553          98.00       401.49
 1185.53        2975.00           1556          87.00       353.53
 1185.57        2975.25           1559          74.00       296.86
 1185.60        2975.50           1563          71.00       283.79
 1185.63        2975.75           1566          72.00       288.15
 1185.66        2976.00           1569          71.00       283.79
 1185.69        2976.25           1573          64.00       253.27
 1185.72        2976.50           1576          78.00       314.30
 1185.75        2976.75           1579          71.00       283.79
 1185.78        2977.00           1583          75.00       301.22
 1185.81        2977.25           1586          66.00       261.99
 1185.84        2977.50           1590          68.00       270.71
 1185.87        2977.75           1593          70.00       279.43
 1185.91        2978.00           1596          70.00       279.43
 1185.94        2978.25           1600          77.00       309.94
 1185.97        2978.50           1603          70.00       279.43
 1186.00        2978.75           1606          70.00       279.43
 1186.03        2979.00           1610          71.00       283.79
 1186.06        2979.25           1613          69.00       275.07
 1186.09        2979.50           1616          68.00       270.71
 1186.12        2979.75           1620          72.00       288.15
 1186.15        2980.00           1623          77.00       309.94
 1186.18        2980.25           1626          71.00       283.79
 1186.21        2980.50           1630          74.00       296.86
 1186.24        2980.75           1633          67.00       266.35
 1186.27        2981.00           1637          63.00       248.91
 1186.30        2981.25           1640          73.00       292.50
 1186.34        2981.50           1643          63.00       248.91
 1186.37        2981.75           1647          67.00       266.35
 1186.40        2982.00           1650          72.00       288.15
 1186.43        2982.25           1653          71.00       283.79
 1186.46        2982.50           1657          72.00       288.15
 1186.49        2982.75           1660          75.00       301.22
 1186.52        2983.00           1663          63.00       248.91
 1186.55        2983.25           1667          70.00       279.43
 1186.58        2983.50           1670          61.00       240.19
 1186.61        2983.75           1673          59.00       231.48
 1186.64        2984.00           1677          73.00       292.50
HS scan finished at 19:46:52
end
