************************************************************
  HS Scan of (1) Internal mercury lamp
************************************************************
Integration time is 0.2294 seconds per sample
dh260917Manchester 53.47 2.23 2.804185pr1000
************************************************************
Dead Time -------------------------  3E-08 
Number of Cycles Used -------------  4 
Starting Wavelength (Angstroms) ---  2950 
Final Wavelength (Angstoms) -------  2984 
Wavelength Increment (Angstroms) --  .25 
Filter Wheel #1 Position ---------- (1) Ground quartz diffuser (ND=2.32)
Filter Wheel #2 Position ---------- (1) Neutral Density 0.494



************************************************************
HS scan start time = 02:57:12
Dark Count =  5.4 


Time (GMT)  Wavelength (Ang)  Step Number  Raw Counts  Counts/Second

  177.57        2950.00           1222          71.00       285.97
  177.64        2950.25           1226          80.00       325.20
  177.67        2950.50           1229          75.00       303.40
  177.70        2950.75           1232          75.00       303.40
  177.73        2951.00           1236          72.00       290.33
  177.76        2951.25           1239          67.00       268.53
  177.80        2951.50           1242          71.00       285.97
  177.83        2951.75           1246          70.00       281.61
  177.86        2952.00           1249          67.00       268.53
  177.89        2952.25           1252          78.00       316.48
  177.92        2952.50           1256          69.00       277.25
  177.95        2952.75           1259          69.00       277.25
  177.98        2953.00           1262          79.00       320.84
  178.01        2953.25           1266          75.00       303.40
  178.04        2953.50           1269          72.00       290.33
  178.07        2953.75           1272          76.00       307.76
  178.10        2954.00           1276          72.00       290.33
  178.13        2954.25           1279          71.00       285.97
  178.16        2954.50           1282          62.00       246.73
  178.20        2954.75           1286          71.00       285.97
  178.23        2955.00           1289          65.00       259.81
  178.26        2955.25           1292          77.00       312.12
  178.29        2955.50           1296          74.00       299.04
  178.32        2955.75           1299          72.00       290.33
  178.35        2956.00           1302          71.00       285.97
  178.38        2956.25           1306          70.00       281.61
  178.41        2956.50           1309          71.00       285.97
  178.44        2956.75           1312          67.00       268.53
  178.47        2957.00           1316          75.00       303.40
  178.50        2957.25           1319          76.00       307.76
  178.54        2957.50           1322          71.00       285.97
  178.57        2957.75           1326          72.00       290.33
  178.60        2958.00           1329          75.00       303.40
  178.63        2958.25           1332          66.00       264.17
  178.66        2958.50           1336          76.00       307.76
  178.69        2958.75           1339          69.00       277.25
  178.72        2959.00           1342          75.00       303.40
  178.75        2959.25           1346          75.00       303.40
  178.78        2959.50           1349          83.00       338.28
  178.81        2959.75           1352          84.00       342.64
  178.84        2960.00           1356         106.00       438.54
  178.87        2960.25           1359         144.00       604.20
  178.91        2960.50           1362         193.00       817.81
  178.94        2960.75           1366         234.00       996.54
  178.97        2961.00           1369         288.00      1231.96
  179.00        2961.25           1372         328.00      1406.34
  179.03        2961.50           1376         374.00      1606.88
  179.06        2961.75           1379         438.00      1885.90
  179.09        2962.00           1382         689.00      2980.21
  179.12        2962.25           1386        1781.00      7741.99
  179.15        2962.50           1389        3220.00     14018.97
  179.18        2962.75           1392        4747.00     20682.40
  179.21        2963.00           1396        6849.00     29859.35
  179.24        2963.25           1399        8381.00     36550.95
  179.28        2963.50           1402       10007.00     43656.10
  179.31        2963.75           1406       12088.00     52753.87
  179.34        2964.00           1409       13846.00     60443.42
  179.37        2964.25           1412       15423.00     67344.29
  179.40        2964.50           1416       17671.00     77186.37
  179.43        2964.75           1419       19182.00     83805.03
  179.46        2965.00           1422       20800.00     90895.31
  179.49        2965.25           1426       22968.00    100400.50
  179.52        2965.50           1429       24553.00    107353.00
  179.56        2965.75           1432       26274.00    114905.50
  179.59        2966.00           1436       27989.00    122434.90
  179.62        2966.25           1439       29695.00    129928.30
  179.65        2966.50           1442       31220.00    136629.50
  179.68        2966.75           1446       33071.00    144766.90
  179.71        2967.00           1449       33932.00    148553.40
  179.74        2967.25           1452       34037.00    149015.20
  179.77        2967.50           1456       34090.00    149248.30
  179.80        2967.75           1459       34048.00    149063.60
  179.83        2968.00           1462       33997.00    148839.20
  179.86        2968.25           1466       33467.00    146508.30
  179.90        2968.50           1469       32643.00    142884.90
  179.93        2968.75           1472       31316.00    137051.40
  179.96        2969.00           1476       29318.00    128272.10
  179.99        2969.25           1479       27593.00    120696.10
  180.02        2969.50           1482       26077.00    114040.80
  180.05        2969.75           1486       23954.00    104725.20
  180.08        2970.00           1489       22435.00     98063.13
  180.11        2970.25           1492       20977.00     91671.12
  180.14        2970.50           1496       18759.00     81951.90
  180.18        2970.75           1499       17194.00     75097.50
  180.21        2971.00           1502       15814.00     69055.72
  180.24        2971.25           1506       13630.00     59498.44
  180.27        2971.50           1509       12101.00     52810.72
  180.30        2971.75           1513       10039.00     43795.96
  180.33        2972.00           1516        8576.00     37402.89
  180.36        2972.25           1519        6853.00     29876.81
  180.39        2972.50           1523        4932.00     21489.88
  180.42        2972.75           1526        3344.00     14559.98
  180.46        2973.00           1529        1873.00      8143.23
  180.49        2973.25           1533         656.00      2836.34
  180.52        2973.50           1536         388.00      1667.91
  180.55        2973.75           1539         294.00      1258.11
  180.58        2974.00           1543         251.00      1070.65
  180.61        2974.25           1546         194.00       822.17
  180.64        2974.50           1549         147.00       617.27
  180.67        2974.75           1553         105.00       434.18
  180.70        2975.00           1556          90.00       368.79
  180.74        2975.25           1559          76.00       307.76
  180.77        2975.50           1563          63.00       251.09
  180.80        2975.75           1566          67.00       268.53
  180.83        2976.00           1569          68.00       272.89
  180.86        2976.25           1573          75.00       303.40
  180.89        2976.50           1576          67.00       268.53
  180.92        2976.75           1579          71.00       285.97
  180.95        2977.00           1583          59.00       233.65
  180.98        2977.25           1586          60.00       238.01
  181.02        2977.50           1590          71.00       285.97
  181.05        2977.75           1593          66.00       264.17
  181.08        2978.00           1596          68.00       272.89
  181.11        2978.25           1600          66.00       264.17
  181.14        2978.50           1603          60.00       238.01
  181.17        2978.75           1606          63.00       251.09
  181.20        2979.00           1610          68.00       272.89
  181.23        2979.25           1613          69.00       277.25
  181.26        2979.50           1616          66.00       264.17
  181.29        2979.75           1620          64.00       255.45
  181.32        2980.00           1623          66.00       264.17
  181.36        2980.25           1626          65.00       259.81
  181.39        2980.50           1630          67.00       268.53
  181.42        2980.75           1633          66.00       264.17
  181.45        2981.00           1637          65.00       259.81
  181.48        2981.25           1640          57.00       224.94
  181.51        2981.50           1643          66.00       264.17
  181.54        2981.75           1647          64.00       255.45
  181.57        2982.00           1650          74.00       299.04
  181.60        2982.25           1653          69.00       277.25
  181.63        2982.50           1657          64.00       255.45
  181.66        2982.75           1660          58.00       229.30
  181.69        2983.00           1663          67.00       268.53
  181.72        2983.25           1667          74.00       299.04
  181.75        2983.50           1670          69.00       277.25
  181.78        2983.75           1673          60.00       238.01
  181.82        2984.00           1677          69.00       277.25
HS scan finished at 03:02:02
end
************************************************************
  HS Scan of (1) Internal mercury lamp
************************************************************
Integration time is 0.2294 seconds per sample
dh260917Manchester 53.47 2.23 2.857833pr1000
************************************************************
Dead Time -------------------------  3E-08 
Number of Cycles Used -------------  4 
Starting Wavelength (Angstroms) ---  2950 
Final Wavelength (Angstoms) -------  2984 
Wavelength Increment (Angstroms) --  .25 
Filter Wheel #1 Position ---------- (1) Ground quartz diffuser (ND=2.32)
Filter Wheel #2 Position ---------- (1) Neutral Density 0.494



************************************************************
HS scan start time = 19:12:00
Dark Count =  5.1 


Time (GMT)  Wavelength (Ang)  Step Number  Raw Counts  Counts/Second

 1152.37        2950.00           1222          76.00       309.07
 1152.44        2950.25           1226          74.00       300.35
 1152.47        2950.50           1229          68.00       274.20
 1152.50        2950.75           1232          67.00       269.84
 1152.53        2951.00           1236          77.00       313.43
 1152.56        2951.25           1239          72.00       291.63
 1152.59        2951.50           1242          72.00       291.63
 1152.63        2951.75           1246          76.00       309.07
 1152.66        2952.00           1249          64.00       256.76
 1152.69        2952.25           1252          68.00       274.20
 1152.72        2952.50           1256          73.00       295.99
 1152.75        2952.75           1259          76.00       309.07
 1152.78        2953.00           1262          72.00       291.63
 1152.81        2953.25           1266          74.00       300.35
 1152.84        2953.50           1269          76.00       309.07
 1152.87        2953.75           1272          76.00       309.07
 1152.90        2954.00           1276          74.00       300.35
 1152.94        2954.25           1279          68.00       274.20
 1152.97        2954.50           1282          68.00       274.20
 1153.00        2954.75           1286          72.00       291.63
 1153.03        2955.00           1289          78.00       317.79
 1153.06        2955.25           1292          70.00       282.91
 1153.09        2955.50           1296          76.00       309.07
 1153.12        2955.75           1299          69.00       278.56
 1153.15        2956.00           1302          66.00       265.48
 1153.18        2956.25           1306          67.00       269.84
 1153.21        2956.50           1309          72.00       291.63
 1153.24        2956.75           1312          74.00       300.35
 1153.27        2957.00           1316          69.00       278.56
 1153.31        2957.25           1319          71.00       287.27
 1153.34        2957.50           1322          68.00       274.20
 1153.37        2957.75           1326          71.00       287.27
 1153.40        2958.00           1329          72.00       291.63
 1153.43        2958.25           1332          69.00       278.56
 1153.46        2958.50           1336          68.00       274.20
 1153.49        2958.75           1339          66.00       265.48
 1153.52        2959.00           1342          84.00       343.94
 1153.55        2959.25           1346          76.00       309.07
 1153.58        2959.50           1349          82.00       335.23
 1153.61        2959.75           1352         103.00       426.77
 1153.64        2960.00           1356         118.00       492.16
 1153.68        2960.25           1359         168.00       710.13
 1153.71        2960.50           1362         194.00       823.47
 1153.74        2960.75           1366         266.00      1137.35
 1153.77        2961.00           1369         296.00      1268.14
 1153.80        2961.25           1372         357.00      1534.07
 1153.83        2961.50           1376         439.00      1891.56
 1153.86        2961.75           1379         689.00      2981.52
 1153.89        2962.00           1382        1579.00      6862.35
 1153.92        2962.25           1386        3532.00     15381.55
 1153.95        2962.50           1389        5098.00     22215.76
 1153.98        2962.75           1392        6548.00     28546.23
 1154.02        2963.00           1396        8566.00     37360.51
 1154.05        2963.25           1399       10178.00     44404.80
 1154.08        2963.50           1402       11769.00     51360.25
 1154.11        2963.75           1406       13791.00     60204.11
 1154.14        2964.00           1409       15594.00     68094.06
 1154.17        2964.25           1412       17251.00     75348.43
 1154.20        2964.50           1416       19553.00     85431.84
 1154.23        2964.75           1419       21195.00     92628.01
 1154.26        2965.00           1422       22695.00     99204.58
 1154.29        2965.25           1426       24721.00    108091.50
 1154.33        2965.50           1429       26260.00    114845.30
 1154.36        2965.75           1432       27926.00    122159.60
 1154.39        2966.00           1436       29979.00    131177.40
 1154.42        2966.25           1439       31711.00    138789.00
 1154.45        2966.50           1442       32918.00    144095.40
 1154.48        2966.75           1446       34430.00    150745.10
 1154.51        2967.00           1449       34883.00    152737.90
 1154.54        2967.25           1452       34684.00    151862.50
 1154.57        2967.50           1456       34851.00    152597.10
 1154.60        2967.75           1459       34727.00    152051.60
 1154.63        2968.00           1462       34362.00    150446.00
 1154.67        2968.25           1466       33261.00    145603.70
 1154.70        2968.50           1469       31931.00    139756.10
 1154.73        2968.75           1472       30346.00    132789.90
 1154.76        2969.00           1476       28310.00    123846.00
 1154.79        2969.25           1479       26852.00    117444.00
 1154.82        2969.50           1482       25140.00    109930.00
 1154.85        2969.75           1486       23111.00    101028.90
 1154.88        2970.00           1489       21259.00     92908.56
 1154.92        2970.25           1492       19904.00     86969.87
 1154.95        2970.50           1496       17682.00     77235.87
 1154.98        2970.75           1499       16129.00     70435.96
 1155.01        2971.00           1502       14420.00     62956.20
 1155.04        2971.25           1506       12310.00     53726.02
 1155.07        2971.50           1509       10726.00     46800.19
 1155.10        2971.75           1513        8549.00     37286.24
 1155.13        2972.00           1516        7055.00     30760.29
 1155.16        2972.25           1519        5446.00     23734.86
 1155.19        2972.50           1523        3295.00     14347.50
 1155.23        2972.75           1526        1912.00      8314.63
 1155.26        2973.00           1529         773.00      3347.76
 1155.29        2973.25           1533         404.00      1738.97
 1155.32        2973.50           1536         327.00      1403.28
 1155.35        2973.75           1539         284.00      1215.82
 1155.38        2974.00           1543         242.00      1032.73
 1155.41        2974.25           1546         165.00       697.05
 1155.44        2974.50           1549         139.00       583.71
 1155.47        2974.75           1553         103.00       426.77
 1155.50        2975.00           1556          91.00       374.46
 1155.53        2975.25           1559          76.00       309.07
 1155.57        2975.50           1563          71.00       287.27
 1155.60        2975.75           1566          67.00       269.84
 1155.63        2976.00           1569          76.00       309.07
 1155.66        2976.25           1573          70.00       282.91
 1155.69        2976.50           1576          70.00       282.91
 1155.72        2976.75           1579          67.00       269.84
 1155.75        2977.00           1583          66.00       265.48
 1155.78        2977.25           1586          67.00       269.84
 1155.81        2977.50           1590          65.00       261.12
 1155.84        2977.75           1593          66.00       265.48
 1155.87        2978.00           1596          62.00       248.04
 1155.91        2978.25           1600          69.00       278.56
 1155.94        2978.50           1603          75.00       304.71
 1155.97        2978.75           1606          60.00       239.32
 1156.00        2979.00           1610          66.00       265.48
 1156.03        2979.25           1613          72.00       291.63
 1156.06        2979.50           1616          69.00       278.56
 1156.09        2979.75           1620          73.00       295.99
 1156.12        2980.00           1623          61.00       243.68
 1156.15        2980.25           1626          76.00       309.07
 1156.18        2980.50           1630          59.00       234.96
 1156.21        2980.75           1633          71.00       287.27
 1156.24        2981.00           1637          71.00       287.27
 1156.27        2981.25           1640          55.00       217.53
 1156.30        2981.50           1643          58.00       230.60
 1156.33        2981.75           1647          76.00       309.07
 1156.36        2982.00           1650          76.00       309.07
 1156.40        2982.25           1653          58.00       230.60
 1156.43        2982.50           1657          64.00       256.76
 1156.46        2982.75           1660          64.00       256.76
 1156.49        2983.00           1663          62.00       248.04
 1156.52        2983.25           1667          67.00       269.84
 1156.55        2983.50           1670          67.00       269.84
 1156.58        2983.75           1673          65.00       261.12
 1156.61        2984.00           1677          67.00       269.84
HS scan finished at 19:16:50
end
