************************************************************
  HS Scan of (1) Internal mercury lamp
************************************************************
Integration time is 0.2294 seconds per sample
dh180918Manchester 53.47 2.23 2.857833pr1000
************************************************************
Dead Time -------------------------  3E-08 
Number of Cycles Used -------------  4 
Starting Wavelength (Angstroms) ---  2950 
Final Wavelength (Angstoms) -------  2984 
Wavelength Increment (Angstroms) --  .25 
Filter Wheel #1 Position ---------- (1) Ground quartz diffuser (ND=2.32)
Filter Wheel #2 Position ---------- (1) Neutral Density 0.494



************************************************************
HS scan start time = 02:27:02
Dark Count =  8.3 


Time (GMT)  Wavelength (Ang)  Step Number  Raw Counts  Counts/Second

  147.40        2950.00           1222          53.00       194.86
  147.47        2950.25           1226          50.00       181.78
  147.50        2950.50           1229          45.00       159.98
  147.53        2950.75           1232          49.00       177.42
  147.56        2951.00           1236          46.00       164.34
  147.59        2951.25           1239          49.00       177.42
  147.62        2951.50           1242          52.00       190.50
  147.65        2951.75           1246          50.00       181.78
  147.69        2952.00           1249          49.00       177.42
  147.72        2952.25           1252          59.00       221.01
  147.75        2952.50           1256          47.00       168.70
  147.78        2952.75           1259          45.00       159.98
  147.81        2953.00           1262          54.00       199.22
  147.84        2953.25           1266          53.00       194.86
  147.87        2953.50           1269          46.00       164.34
  147.90        2953.75           1272          50.00       181.78
  147.93        2954.00           1276          46.00       164.34
  147.96        2954.25           1279          46.00       164.34
  147.99        2954.50           1282          58.00       216.65
  148.02        2954.75           1286          55.00       203.58
  148.05        2955.00           1289          53.00       194.86
  148.08        2955.25           1292          49.00       177.42
  148.11        2955.50           1296          50.00       181.78
  148.15        2955.75           1299          54.00       199.22
  148.18        2956.00           1302          51.00       186.14
  148.21        2956.25           1306          47.00       168.70
  148.24        2956.50           1309          47.00       168.70
  148.27        2956.75           1312          55.00       203.58
  148.30        2957.00           1316          49.00       177.42
  148.33        2957.25           1319          45.00       159.98
  148.36        2957.50           1322          55.00       203.58
  148.39        2957.75           1326          50.00       181.78
  148.42        2958.00           1329          46.00       164.34
  148.45        2958.25           1332          53.00       194.86
  148.48        2958.50           1336          48.00       173.06
  148.51        2958.75           1339          50.00       181.78
  148.54        2959.00           1342          52.00       190.50
  148.57        2959.25           1346          58.00       216.65
  148.60        2959.50           1349          59.00       221.01
  148.63        2959.75           1352          65.00       247.17
  148.66        2960.00           1356          90.00       356.15
  148.69        2960.25           1359         109.00       438.98
  148.72        2960.50           1362         149.00       613.35
  148.76        2960.75           1366         190.00       792.09
  148.79        2961.00           1369         237.00       996.98
  148.82        2961.25           1372         249.00      1049.29
  148.85        2961.50           1376         314.00      1332.66
  148.88        2961.75           1379         439.00      1877.61
  148.91        2962.00           1382         942.00      4070.68
  148.94        2962.25           1386        2328.00     10115.10
  148.97        2962.50           1389        3526.00     15341.41
  149.00        2962.75           1392        4839.00     21071.29
  149.03        2963.00           1396        6594.00     28733.13
  149.06        2963.25           1399        7726.00     33676.99
  149.09        2963.50           1402        8964.00     39085.48
  149.12        2963.75           1406       10620.00     46322.84
  149.15        2964.00           1409       11934.00     52067.76
  149.19        2964.25           1412       13274.00     57928.40
  149.22        2964.50           1416       14985.00     65414.65
  149.25        2964.75           1419       16193.00     70702.12
  149.28        2965.00           1422       17589.00     76814.56
  149.31        2965.25           1426       19304.00     84326.83
  149.34        2965.50           1429       20495.00     89545.81
  149.37        2965.75           1432       21815.00     95331.97
  149.40        2966.00           1436       23465.00    102567.50
  149.43        2966.25           1439       24540.00    107283.30
  149.46        2966.50           1442       25677.00    112272.50
  149.49        2966.75           1446       26944.00    117833.90
  149.53        2967.00           1449       27520.00    120362.80
  149.56        2967.25           1452       27335.00    119550.50
  149.59        2967.50           1456       27505.00    120296.90
  149.62        2967.75           1459       27490.00    120231.10
  149.65        2968.00           1462       27536.00    120433.00
  149.68        2968.25           1466       26895.00    117618.70
  149.71        2968.50           1469       25596.00    111917.00
  149.74        2968.75           1472       24425.00    106778.70
  149.77        2969.00           1476       22833.00     99795.71
  149.80        2969.25           1479       21429.00     93639.75
  149.84        2969.50           1482       20355.00     88932.24
  149.87        2969.75           1486       18610.00     81286.47
  149.90        2970.00           1489       17449.00     76201.47
  149.93        2970.25           1492       16207.00     70763.41
  149.96        2970.50           1496       14552.00     63519.80
  149.99        2970.75           1499       13245.00     57801.55
  150.02        2971.00           1502       11874.00     51805.39
  150.05        2971.25           1506       10134.00     44198.50
  150.08        2971.50           1509        8868.00     38666.01
  150.11        2971.75           1513        7264.00     31659.09
  150.14        2972.00           1516        5989.00     26091.47
  150.17        2972.25           1519        4844.00     21093.12
  150.20        2972.50           1523        3223.00     14019.41
  150.23        2972.75           1526        1983.00      8610.33
  150.27        2973.00           1529         904.00      3904.99
  150.30        2973.25           1533         340.00      1446.01
  150.33        2973.50           1536         254.00      1071.09
  150.36        2973.75           1539         225.00       944.67
  150.39        2974.00           1543         181.00       752.85
  150.42        2974.25           1546         138.00       565.40
  150.45        2974.50           1549          95.00       377.95
  150.48        2974.75           1553          65.00       247.17
  150.51        2975.00           1556          68.00       260.25
  150.54        2975.25           1559          49.00       177.42
  150.57        2975.50           1563          49.00       177.42
  150.60        2975.75           1566          52.00       190.50
  150.63        2976.00           1569          52.00       190.50
  150.66        2976.25           1573          47.00       168.70
  150.69        2976.50           1576          44.00       155.62
  150.73        2976.75           1579          58.00       216.65
  150.76        2977.00           1583          51.00       186.14
  150.79        2977.25           1586          51.00       186.14
  150.82        2977.50           1590          45.00       159.98
  150.85        2977.75           1593          42.00       146.91
  150.88        2978.00           1596          47.00       168.70
  150.91        2978.25           1600          45.00       159.98
  150.94        2978.50           1603          48.00       173.06
  150.97        2978.75           1606          46.00       164.34
  151.00        2979.00           1610          49.00       177.42
  151.03        2979.25           1613          50.00       181.78
  151.06        2979.50           1616          51.00       186.14
  151.09        2979.75           1620          45.00       159.98
  151.13        2980.00           1623          48.00       173.06
  151.16        2980.25           1626          43.00       151.26
  151.19        2980.50           1630          52.00       190.50
  151.22        2980.75           1633          55.00       203.58
  151.25        2981.00           1637          46.00       164.34
  151.28        2981.25           1640          56.00       207.94
  151.31        2981.50           1643          53.00       194.86
  151.34        2981.75           1647          45.00       159.98
  151.37        2982.00           1650          54.00       199.22
  151.40        2982.25           1653          48.00       173.06
  151.43        2982.50           1657          51.00       186.14
  151.46        2982.75           1660          50.00       181.78
  151.49        2983.00           1663          45.00       159.98
  151.53        2983.25           1667          48.00       173.06
  151.56        2983.50           1670          45.00       159.98
  151.59        2983.75           1673          44.00       155.62
  151.62        2984.00           1677          50.00       181.78
HS scan finished at 02:31:50
end
************************************************************
  HS Scan of (1) Internal mercury lamp
************************************************************
Integration time is 0.2294 seconds per sample
dh180918Manchester 53.47 2.23 2.965129pr1000
************************************************************
Dead Time -------------------------  3E-08 
Number of Cycles Used -------------  4 
Starting Wavelength (Angstroms) ---  2950 
Final Wavelength (Angstoms) -------  2984 
Wavelength Increment (Angstroms) --  .25 
Filter Wheel #1 Position ---------- (1) Ground quartz diffuser (ND=2.32)
Filter Wheel #2 Position ---------- (1) Neutral Density 0.494



************************************************************
HS scan start time = 19:12:02
Dark Count =  5.5 


Time (GMT)  Wavelength (Ang)  Step Number  Raw Counts  Counts/Second

 1152.41        2950.00           1222          56.00       220.14
 1152.48        2950.25           1226          51.00       198.34
 1152.51        2950.50           1229          50.00       193.99
 1152.54        2950.75           1232          51.00       198.34
 1152.57        2951.00           1236          54.00       211.42
 1152.60        2951.25           1239          51.00       198.34
 1152.63        2951.50           1242          48.00       185.27
 1152.66        2951.75           1246          53.00       207.06
 1152.69        2952.00           1249          57.00       224.50
 1152.72        2952.25           1252          48.00       185.27
 1152.75        2952.50           1256          49.00       189.63
 1152.79        2952.75           1259          47.00       180.91
 1152.82        2953.00           1262          57.00       224.50
 1152.85        2953.25           1266          46.00       176.55
 1152.88        2953.50           1269          58.00       228.86
 1152.91        2953.75           1272          49.00       189.63
 1152.94        2954.00           1276          50.00       193.99
 1152.97        2954.25           1279          48.00       185.27
 1153.00        2954.50           1282          54.00       211.42
 1153.03        2954.75           1286          50.00       193.99
 1153.06        2955.00           1289          49.00       189.63
 1153.10        2955.25           1292          52.00       202.70
 1153.13        2955.50           1296          55.00       215.78
 1153.16        2955.75           1299          47.00       180.91
 1153.19        2956.00           1302          50.00       193.99
 1153.22        2956.25           1306          56.00       220.14
 1153.25        2956.50           1309          54.00       211.42
 1153.28        2956.75           1312          55.00       215.78
 1153.31        2957.00           1316          54.00       211.42
 1153.34        2957.25           1319          49.00       189.63
 1153.37        2957.50           1322          51.00       198.34
 1153.41        2957.75           1326          46.00       176.55
 1153.44        2958.00           1329          51.00       198.34
 1153.47        2958.25           1332          55.00       215.78
 1153.50        2958.50           1336          49.00       189.63
 1153.53        2958.75           1339          52.00       202.70
 1153.56        2959.00           1342          46.00       176.55
 1153.59        2959.25           1346          57.00       224.50
 1153.62        2959.50           1349          53.00       207.06
 1153.65        2959.75           1352          66.00       263.73
 1153.68        2960.00           1356          94.00       385.79
 1153.71        2960.25           1359         110.00       455.54
 1153.74        2960.50           1362         148.00       621.20
 1153.78        2960.75           1366         182.00       769.42
 1153.81        2961.00           1369         224.00       952.51
 1153.84        2961.25           1372         257.00      1096.37
 1153.87        2961.50           1376         324.00      1388.46
 1153.90        2961.75           1379         439.00      1889.82
 1153.93        2962.00           1382         910.00      3943.36
 1153.96        2962.25           1386        2306.00     10031.35
 1153.99        2962.50           1389        3589.00     15628.51
 1154.02        2962.75           1392        4858.00     21166.44
 1154.05        2963.00           1396        6581.00     28688.59
 1154.09        2963.25           1399        7873.00     34331.33
 1154.12        2963.50           1402        9150.00     39910.45
 1154.15        2963.75           1406       10876.00     47454.17
 1154.18        2964.00           1409       12185.00     53177.62
 1154.21        2964.25           1412       13402.00     58500.58
 1154.24        2964.50           1416       15279.00     66713.60
 1154.27        2964.75           1419       16731.00     73069.77
 1154.30        2965.00           1422       17934.00     78337.78
 1154.33        2965.25           1426       19656.00     85881.41
 1154.36        2965.50           1429       20955.00     91574.24
 1154.40        2965.75           1432       22225.00     97141.88
 1154.43        2966.00           1436       23777.00    103948.30
 1154.46        2966.25           1439       25016.00    109384.10
 1154.49        2966.50           1442       26213.00    114637.30
 1154.52        2966.75           1446       27590.00    120682.40
 1154.55        2967.00           1449       28157.00    123172.30
 1154.58        2967.25           1452       27987.00    122425.70
 1154.61        2967.50           1456       28004.00    122500.40
 1154.65        2967.75           1459       28157.00    123172.30
 1154.68        2968.00           1462       28118.00    123001.00
 1154.71        2968.25           1466       27388.00    119795.50
 1154.74        2968.50           1469       26118.00    114220.30
 1154.77        2968.75           1472       24921.00    108967.20
 1154.80        2969.00           1476       23240.00    101593.00
 1154.83        2969.25           1479       21976.00     96050.13
 1154.86        2969.50           1482       20837.00     91057.04
 1154.89        2969.75           1486       19037.00     83169.33
 1154.92        2970.00           1489       17706.00     77339.22
 1154.95        2970.25           1492       16486.00     71997.10
 1154.98        2970.50           1496       14724.00     64284.71
 1155.02        2970.75           1499       13347.00     58259.98
 1155.05        2971.00           1502       12222.00     53339.43
 1155.08        2971.25           1506       10548.00     46020.33
 1155.11        2971.50           1509        9226.00     40242.54
 1155.14        2971.75           1513        7548.00     32911.73
 1155.17        2972.00           1516        6237.00     27186.51
 1155.20        2972.25           1519        4953.00     21581.10
 1155.23        2972.50           1523        3281.00     14284.67
 1155.26        2972.75           1526        2032.00      8836.26
 1155.29        2973.00           1529         868.00      3760.23
 1155.32        2973.25           1533         377.00      1619.52
 1155.35        2973.50           1536         268.00      1144.33
 1155.39        2973.75           1539         220.00       935.07
 1155.42        2974.00           1543         190.00       804.29
 1155.45        2974.25           1546         154.00       647.35
 1155.48        2974.50           1549         108.00       446.82
 1155.51        2974.75           1553          76.00       307.33
 1155.54        2975.00           1556          56.00       220.14
 1155.57        2975.25           1559          55.00       215.78
 1155.60        2975.50           1563          56.00       220.14
 1155.63        2975.75           1566          54.00       211.42
 1155.66        2976.00           1569          55.00       215.78
 1155.69        2976.25           1573          53.00       207.06
 1155.73        2976.50           1576          51.00       198.34
 1155.76        2976.75           1579          45.00       172.19
 1155.79        2977.00           1583          53.00       207.06
 1155.82        2977.25           1586          49.00       189.63
 1155.85        2977.50           1590          46.00       176.55
 1155.88        2977.75           1593          45.00       172.19
 1155.91        2978.00           1596          45.00       172.19
 1155.94        2978.25           1600          50.00       193.99
 1155.97        2978.50           1603          49.00       189.63
 1156.00        2978.75           1606          57.00       224.50
 1156.03        2979.00           1610          49.00       189.63
 1156.06        2979.25           1613          43.00       163.47
 1156.09        2979.50           1616          49.00       189.63
 1156.12        2979.75           1620          54.00       211.42
 1156.16        2980.00           1623          52.00       202.70
 1156.19        2980.25           1626          45.00       172.19
 1156.22        2980.50           1630          52.00       202.70
 1156.25        2980.75           1633          48.00       185.27
 1156.28        2981.00           1637          54.00       211.42
 1156.31        2981.25           1640          50.00       193.99
 1156.34        2981.50           1643          43.00       163.47
 1156.37        2981.75           1647          45.00       172.19
 1156.40        2982.00           1650          50.00       193.99
 1156.43        2982.25           1653          42.00       159.11
 1156.46        2982.50           1657          43.00       163.47
 1156.50        2982.75           1660          39.00       146.03
 1156.53        2983.00           1663          41.00       154.75
 1156.56        2983.25           1667          46.00       176.55
 1156.59        2983.50           1670          52.00       202.70
 1156.62        2983.75           1673          47.00       180.91
 1156.65        2984.00           1677          46.00       176.55
HS scan finished at 19:16:52
end
