************************************************************
  HS Scan of (1) Internal mercury lamp
************************************************************
Integration time is 0.2294 seconds per sample
dh190917Manchester 53.47 2.23 2.804185pr1000
************************************************************
Dead Time -------------------------  3E-08 
Number of Cycles Used -------------  4 
Starting Wavelength (Angstroms) ---  2950 
Final Wavelength (Angstoms) -------  2984 
Wavelength Increment (Angstroms) --  .25 
Filter Wheel #1 Position ---------- (1) Ground quartz diffuser (ND=2.32)
Filter Wheel #2 Position ---------- (1) Neutral Density 0.494



************************************************************
HS scan start time = 02:32:14
Dark Count =  5.5 


Time (GMT)  Wavelength (Ang)  Step Number  Raw Counts  Counts/Second

  152.60        2950.00           1222          75.00       302.97
  152.67        2950.25           1226          79.00       320.40
  152.70        2950.50           1229          72.00       289.89
  152.73        2950.75           1232          74.00       298.61
  152.76        2951.00           1236          71.00       285.53
  152.79        2951.25           1239          78.00       316.04
  152.82        2951.50           1242          80.00       324.76
  152.85        2951.75           1246          83.00       337.84
  152.88        2952.00           1249          64.00       255.02
  152.92        2952.25           1252          76.00       307.33
  152.95        2952.50           1256          69.00       276.81
  152.98        2952.75           1259          86.00       350.92
  153.01        2953.00           1262          74.00       298.61
  153.04        2953.25           1266          67.00       268.09
  153.07        2953.50           1269          75.00       302.97
  153.10        2953.75           1272          79.00       320.40
  153.13        2954.00           1276          73.00       294.25
  153.16        2954.25           1279          99.00       407.59
  153.19        2954.50           1282          69.00       276.81
  153.22        2954.75           1286          79.00       320.40
  153.26        2955.00           1289          71.00       285.53
  153.29        2955.25           1292          68.00       272.45
  153.32        2955.50           1296          82.00       333.48
  153.35        2955.75           1299          70.00       281.17
  153.38        2956.00           1302          73.00       294.25
  153.41        2956.25           1306          66.00       263.73
  153.44        2956.50           1309          73.00       294.25
  153.47        2956.75           1312          71.00       285.53
  153.50        2957.00           1316          68.00       272.45
  153.53        2957.25           1319          69.00       276.81
  153.57        2957.50           1322          69.00       276.81
  153.60        2957.75           1326          76.00       307.33
  153.63        2958.00           1329          73.00       294.25
  153.66        2958.25           1332          71.00       285.53
  153.69        2958.50           1336          76.00       307.33
  153.72        2958.75           1339          73.00       294.25
  153.75        2959.00           1342          74.00       298.61
  153.78        2959.25           1346          91.00       372.72
  153.81        2959.50           1349          87.00       355.28
  153.84        2959.75           1352          88.00       359.64
  153.87        2960.00           1356         130.00       542.73
  153.91        2960.25           1359         154.00       647.35
  153.94        2960.50           1362         190.00       804.29
  153.97        2960.75           1366         266.00      1135.61
  154.00        2961.00           1369         269.00      1148.69
  154.03        2961.25           1372         339.00      1453.86
  154.06        2961.50           1376         403.00      1732.87
  154.09        2961.75           1379         552.00      2382.47
  154.12        2962.00           1382        1101.00      4776.19
  154.15        2962.25           1386        2623.00     11414.11
  154.18        2962.50           1389        4151.00     18080.86
  154.22        2962.75           1392        5657.00     24654.24
  154.25        2963.00           1396        7548.00     32911.73
  154.28        2963.25           1399        9125.00     39801.20
  154.31        2963.50           1402       10784.00     47051.99
  154.34        2963.75           1406       13047.00     56947.69
  154.37        2964.00           1409       14655.00     63982.77
  154.40        2964.25           1412       16244.00     70937.65
  154.43        2964.50           1416       18361.00     80208.03
  154.46        2964.75           1419       19999.00     87384.41
  154.49        2965.00           1422       21606.00     94427.98
  154.53        2965.25           1426       23576.00    103066.70
  154.56        2965.50           1429       25150.00    109972.10
  154.59        2965.75           1432       26580.00    116248.20
  154.62        2966.00           1436       28930.00    126567.30
  154.65        2966.25           1439       30253.00    132379.50
  154.68        2966.50           1442       31727.00    138857.60
  154.71        2966.75           1446       33546.00    146855.30
  154.74        2967.00           1449       34120.00    149379.80
  154.77        2967.25           1452       34321.00    150263.90
  154.81        2967.50           1456       34174.00    149617.30
  154.84        2967.75           1459       34347.00    150378.30
  154.87        2968.00           1462       34140.00    149467.80
  154.90        2968.25           1466       33518.00    146732.10
  154.93        2968.50           1469       32169.00    140800.60
  154.96        2968.75           1472       30708.00    134378.90
  154.99        2969.00           1476       28642.00    125302.30
  155.02        2969.25           1479       27048.00    118302.70
  155.05        2969.50           1482       25612.00    111999.50
  155.08        2969.75           1486       23442.00    102478.90
  155.12        2970.00           1489       21885.00     95651.15
  155.15        2970.25           1492       20444.00     89334.57
  155.18        2970.50           1496       18333.00     80085.38
  155.21        2970.75           1499       16843.00     73560.15
  155.24        2971.00           1502       15205.00     66389.73
  155.27        2971.25           1506       13176.00     57511.96
  155.30        2971.50           1509       11530.00     50313.46
  155.33        2971.75           1513        9473.00     41321.90
  155.36        2972.00           1516        8027.00     35004.05
  155.39        2972.25           1519        6464.00     28177.69
  155.42        2972.50           1523        4521.00     19695.59
  155.46        2972.75           1526        2968.00     12919.13
  155.49        2973.00           1529        1451.00      6302.41
  155.52        2973.25           1533         524.00      2260.40
  155.55        2973.50           1536         354.00      1519.25
  155.58        2973.75           1539         291.00      1244.60
  155.61        2974.00           1543         258.00      1100.73
  155.64        2974.25           1546         202.00       856.60
  155.67        2974.50           1549         161.00       677.87
  155.70        2974.75           1553         121.00       503.50
  155.73        2975.00           1556          95.00       390.15
  155.76        2975.25           1559          73.00       294.25
  155.79        2975.50           1563          80.00       324.76
  155.82        2975.75           1566          78.00       316.04
  155.85        2976.00           1569          79.00       320.40
  155.89        2976.25           1573          70.00       281.17
  155.92        2976.50           1576          68.00       272.45
  155.95        2976.75           1579          73.00       294.25
  155.98        2977.00           1583          68.00       272.45
  156.01        2977.25           1586          67.00       268.09
  156.04        2977.50           1590          64.00       255.02
  156.07        2977.75           1593          66.00       263.73
  156.10        2978.00           1596          69.00       276.81
  156.13        2978.25           1600          69.00       276.81
  156.16        2978.50           1603          67.00       268.09
  156.19        2978.75           1606          75.00       302.97
  156.22        2979.00           1610          67.00       268.09
  156.26        2979.25           1613          62.00       246.30
  156.29        2979.50           1616          67.00       268.09
  156.32        2979.75           1620          76.00       307.33
  156.35        2980.00           1623          73.00       294.25
  156.38        2980.25           1626          66.00       263.73
  156.41        2980.50           1630          64.00       255.02
  156.44        2980.75           1633          54.00       211.42
  156.47        2981.00           1637          60.00       237.58
  156.50        2981.25           1640          64.00       255.02
  156.53        2981.50           1643          65.00       259.37
  156.56        2981.75           1647          67.00       268.09
  156.59        2982.00           1650          62.00       246.30
  156.62        2982.25           1653          66.00       263.73
  156.65        2982.50           1657          69.00       276.81
  156.68        2982.75           1660          70.00       281.17
  156.71        2983.00           1663          68.00       272.45
  156.75        2983.25           1667          63.00       250.66
  156.78        2983.50           1670          67.00       268.09
  156.81        2983.75           1673          59.00       233.22
  156.84        2984.00           1677          67.00       268.09
HS scan finished at 02:37:03
end
************************************************************
  HS Scan of (1) Internal mercury lamp
************************************************************
Integration time is 0.2294 seconds per sample
dh190917Manchester 53.47 2.23 2.804185pr1000
************************************************************
Dead Time -------------------------  3E-08 
Number of Cycles Used -------------  4 
Starting Wavelength (Angstroms) ---  2950 
Final Wavelength (Angstoms) -------  2984 
Wavelength Increment (Angstroms) --  .25 
Filter Wheel #1 Position ---------- (1) Ground quartz diffuser (ND=2.32)
Filter Wheel #2 Position ---------- (1) Neutral Density 0.494



************************************************************
HS scan start time = 19:12:04
Dark Count =  6.5 


Time (GMT)  Wavelength (Ang)  Step Number  Raw Counts  Counts/Second

 1152.43        2950.00           1222          84.00       337.84
 1152.50        2950.25           1226          77.00       307.33
 1152.53        2950.50           1229          77.00       307.33
 1152.56        2950.75           1232          72.00       285.53
 1152.59        2951.00           1236          78.00       311.69
 1152.62        2951.25           1239          80.00       320.40
 1152.65        2951.50           1242          78.00       311.69
 1152.69        2951.75           1246          70.00       276.81
 1152.72        2952.00           1249          67.00       263.73
 1152.75        2952.25           1252          74.00       294.25
 1152.78        2952.50           1256          73.00       289.89
 1152.81        2952.75           1259          72.00       285.53
 1152.84        2953.00           1262          71.00       281.17
 1152.87        2953.25           1266          73.00       289.89
 1152.90        2953.50           1269          75.00       298.61
 1152.93        2953.75           1272          76.00       302.97
 1152.96        2954.00           1276          76.00       302.97
 1152.99        2954.25           1279          72.00       285.53
 1153.03        2954.50           1282          67.00       263.73
 1153.06        2954.75           1286          77.00       307.33
 1153.09        2955.00           1289          79.00       316.04
 1153.12        2955.25           1292          67.00       263.73
 1153.15        2955.50           1296          75.00       298.61
 1153.18        2955.75           1299          75.00       298.61
 1153.21        2956.00           1302          70.00       276.81
 1153.24        2956.25           1306          77.00       307.33
 1153.27        2956.50           1309          83.00       333.48
 1153.30        2956.75           1312          76.00       302.97
 1153.33        2957.00           1316          78.00       311.69
 1153.36        2957.25           1319          73.00       289.89
 1153.39        2957.50           1322          76.00       302.97
 1153.42        2957.75           1326          81.00       324.76
 1153.46        2958.00           1329          72.00       285.53
 1153.49        2958.25           1332          68.00       268.09
 1153.52        2958.50           1336          71.00       281.17
 1153.55        2958.75           1339          76.00       302.97
 1153.58        2959.00           1342          66.00       259.37
 1153.61        2959.25           1346          81.00       324.76
 1153.64        2959.50           1349          86.00       346.56
 1153.67        2959.75           1352         109.00       446.82
 1153.70        2960.00           1356         151.00       629.92
 1153.73        2960.25           1359         171.00       717.10
 1153.77        2960.50           1362         239.00      1013.54
 1153.80        2960.75           1366         290.00      1235.88
 1153.83        2961.00           1369         314.00      1340.51
 1153.86        2961.25           1372         344.00      1471.29
 1153.89        2961.50           1376         447.00      1920.34
 1153.92        2961.75           1379         648.00      2796.66
 1153.95        2962.00           1382        1334.00      5787.84
 1153.98        2962.25           1386        3042.00     13237.60
 1154.01        2962.50           1389        4671.00     20345.90
 1154.04        2962.75           1392        6160.00     26845.94
 1154.07        2963.00           1396        8131.00     35453.99
 1154.10        2963.25           1399        9735.00     42462.52
 1154.14        2963.50           1402       11338.00     49469.62
 1154.17        2963.75           1406       13585.00     59296.76
 1154.20        2964.00           1409       15275.00     66691.71
 1154.23        2964.25           1412       16900.00     73805.35
 1154.26        2964.50           1416       18995.00     82980.96
 1154.29        2964.75           1419       20633.00     90158.53
 1154.32        2965.00           1422       22283.00     97391.81
 1154.35        2965.25           1426       24370.00    106545.30
 1154.38        2965.50           1429       25814.00    112881.60
 1154.42        2965.75           1432       27384.00    119773.50
 1154.45        2966.00           1436       29403.00    128640.70
 1154.48        2966.25           1439       30886.00    135156.80
 1154.51        2966.50           1442       32406.00    141838.10
 1154.54        2966.75           1446       33750.00    147748.00
 1154.57        2967.00           1449       34019.00    148931.20
 1154.60        2967.25           1452       34106.00    149313.80
 1154.63        2967.50           1456       34096.00    149269.80
 1154.66        2967.75           1459       34149.00    149503.00
 1154.69        2968.00           1462       33766.00    147818.40
 1154.73        2968.25           1466       32594.00    142664.70
 1154.76        2968.50           1469       31177.00    136435.70
 1154.79        2968.75           1472       29538.00    129233.70
 1154.82        2969.00           1476       27488.00    120230.20
 1154.85        2969.25           1479       26050.00    113917.40
 1154.88        2969.50           1482       24402.00    106685.70
 1154.91        2969.75           1486       22222.00     97124.35
 1154.94        2970.00           1489       20663.00     90290.01
 1154.97        2970.25           1492       19146.00     83642.49
 1155.00        2970.50           1496       17013.00     74300.13
 1155.04        2970.75           1499       15246.00     66564.79
 1155.07        2971.00           1502       13765.00     60084.23
 1155.10        2971.25           1506       11812.00     51542.15
 1155.13        2971.50           1509       10302.00     44940.67
 1155.16        2971.75           1513        8174.00     35641.84
 1155.19        2972.00           1516        6590.00     28723.52
 1155.22        2972.25           1519        5184.00     22585.05
 1155.25        2972.50           1523        3037.00     13215.79
 1155.28        2972.75           1526        1653.00      7178.97
 1155.32        2973.00           1529         699.00      3019.02
 1155.35        2973.25           1533         391.00      1676.20
 1155.38        2973.50           1536         319.00      1362.31
 1155.41        2973.75           1539         271.00      1153.05
 1155.44        2974.00           1543         205.00       865.32
 1155.47        2974.25           1546         158.00       660.43
 1155.50        2974.50           1549         118.00       486.06
 1155.53        2974.75           1553          99.00       403.23
 1155.56        2975.00           1556          73.00       289.89
 1155.59        2975.25           1559          76.00       302.97
 1155.63        2975.50           1563          81.00       324.76
 1155.66        2975.75           1566          60.00       233.22
 1155.69        2976.00           1569          69.00       272.45
 1155.72        2976.25           1573          68.00       268.09
 1155.75        2976.50           1576          69.00       272.45
 1155.78        2976.75           1579          63.00       246.30
 1155.81        2977.00           1583          70.00       276.81
 1155.84        2977.25           1586          68.00       268.09
 1155.87        2977.50           1590          66.00       259.37
 1155.90        2977.75           1593          66.00       259.37
 1155.93        2978.00           1596          68.00       268.09
 1155.96        2978.25           1600          76.00       302.97
 1155.99        2978.50           1603          67.00       263.73
 1156.03        2978.75           1606          76.00       302.97
 1156.06        2979.00           1610          72.00       285.53
 1156.09        2979.25           1613          65.00       255.02
 1156.12        2979.50           1616          69.00       272.45
 1156.15        2979.75           1620          62.00       241.94
 1156.18        2980.00           1623          65.00       255.02
 1156.21        2980.25           1626          73.00       289.89
 1156.24        2980.50           1630          66.00       259.37
 1156.27        2980.75           1633          73.00       289.89
 1156.30        2981.00           1637          68.00       268.09
 1156.33        2981.25           1640          69.00       272.45
 1156.36        2981.50           1643          63.00       246.30
 1156.40        2981.75           1647          63.00       246.30
 1156.43        2982.00           1650          68.00       268.09
 1156.46        2982.25           1653          66.00       259.37
 1156.49        2982.50           1657          65.00       255.02
 1156.52        2982.75           1660          74.00       294.25
 1156.55        2983.00           1663          73.00       289.89
 1156.58        2983.25           1667          64.00       250.66
 1156.61        2983.50           1670          72.00       285.53
 1156.64        2983.75           1673          65.00       255.02
 1156.67        2984.00           1677          69.00       272.45
HS scan finished at 19:16:53
end
