************************************************************
  HS Scan of (1) Internal mercury lamp
************************************************************
Integration time is 0.2294 seconds per sample
dh180917Manchester 53.47 2.23 2.804185pr1000
************************************************************
Dead Time -------------------------  3E-08 
Number of Cycles Used -------------  4 
Starting Wavelength (Angstroms) ---  2950 
Final Wavelength (Angstoms) -------  2984 
Wavelength Increment (Angstroms) --  .25 
Filter Wheel #1 Position ---------- (1) Ground quartz diffuser (ND=2.32)
Filter Wheel #2 Position ---------- (1) Neutral Density 0.494



************************************************************
HS scan start time = 02:28:04
Dark Count =  4.6 


Time (GMT)  Wavelength (Ang)  Step Number  Raw Counts  Counts/Second

  148.44        2950.00           1222          77.00       315.61
  148.51        2950.25           1226          75.00       306.89
  148.54        2950.50           1229          76.00       311.25
  148.57        2950.75           1232          74.00       302.53
  148.60        2951.00           1236          83.00       341.76
  148.63        2951.25           1239          71.00       289.45
  148.66        2951.50           1242          71.00       289.45
  148.69        2951.75           1246          82.00       337.41
  148.72        2952.00           1249          75.00       306.89
  148.75        2952.25           1252          77.00       315.61
  148.78        2952.50           1256          74.00       302.53
  148.82        2952.75           1259          76.00       311.25
  148.85        2953.00           1262          75.00       306.89
  148.88        2953.25           1266          80.00       328.69
  148.91        2953.50           1269          77.00       315.61
  148.94        2953.75           1272          67.00       272.02
  148.97        2954.00           1276          75.00       306.89
  149.00        2954.25           1279          81.00       333.05
  149.03        2954.50           1282          74.00       302.53
  149.06        2954.75           1286          75.00       306.89
  149.09        2955.00           1289          69.00       280.73
  149.12        2955.25           1292          74.00       302.53
  149.16        2955.50           1296          75.00       306.89
  149.19        2955.75           1299          75.00       306.89
  149.22        2956.00           1302          70.00       285.09
  149.25        2956.25           1306          71.00       289.45
  149.28        2956.50           1309          70.00       285.09
  149.31        2956.75           1312          73.00       298.17
  149.34        2957.00           1316          70.00       285.09
  149.37        2957.25           1319          71.00       289.45
  149.40        2957.50           1322          74.00       302.53
  149.43        2957.75           1326          79.00       324.33
  149.46        2958.00           1329          77.00       315.61
  149.49        2958.25           1332          79.00       324.33
  149.53        2958.50           1336          81.00       333.05
  149.56        2958.75           1339          77.00       315.61
  149.59        2959.00           1342          69.00       280.73
  149.62        2959.25           1346          76.00       311.25
  149.65        2959.50           1349          83.00       341.76
  149.68        2959.75           1352          96.00       398.44
  149.71        2960.00           1356         116.00       485.62
  149.74        2960.25           1359         146.00       616.40
  149.77        2960.50           1362         172.00       729.75
  149.80        2960.75           1366         246.00      1052.34
  149.83        2961.00           1369         281.00      1204.93
  149.86        2961.25           1372         331.00      1422.90
  149.89        2961.50           1376         412.00      1776.03
  149.93        2961.75           1379         692.00      2996.78
  149.96        2962.00           1382        1512.00      6572.35
  149.99        2962.25           1386        3392.00     14772.89
  150.02        2962.50           1389        4959.00     21611.22
  150.05        2962.75           1392        6525.00     28447.98
  150.08        2963.00           1396        8588.00     37458.81
  150.11        2963.25           1399       10171.00     44376.39
  150.14        2963.50           1402       11789.00     51449.89
  150.17        2963.75           1406       13865.00     60530.05
  150.21        2964.00           1409       15508.00     67719.84
  150.24        2964.25           1412       17224.00     75232.38
  150.27        2964.50           1416       19256.00     84132.74
  150.30        2964.75           1419       20828.00     91021.54
  150.33        2965.00           1422       22389.00     97864.94
  150.36        2965.25           1426       24390.00    106641.40
  150.39        2965.50           1429       26040.00    113881.90
  150.42        2965.75           1432       27894.00    122021.30
  150.45        2966.00           1436       30035.00    131425.60
  150.48        2966.25           1439       31470.00    137731.80
  150.52        2966.50           1442       32711.00    143187.40
  150.55        2966.75           1446       34215.00    149801.60
  150.58        2967.00           1449       34480.00    150967.30
  150.61        2967.25           1452       34488.00    151002.50
  150.64        2967.50           1456       34334.00    150325.10
  150.67        2967.75           1459       34425.00    150725.30
  150.70        2968.00           1462       34165.00    149581.70
  150.73        2968.25           1466       32858.00    143833.80
  150.76        2968.50           1469       31189.00    136496.80
  150.79        2968.75           1472       29922.00    130929.10
  150.83        2969.00           1476       27828.00    121731.50
  150.86        2969.25           1479       26165.00    114430.50
  150.89        2969.50           1482       24520.00    107211.80
  150.92        2969.75           1486       22567.00     98645.47
  150.95        2970.00           1489       20853.00     91131.11
  150.98        2970.25           1492       19472.00     85079.12
  151.01        2970.50           1496       17432.00     76143.23
  151.04        2970.75           1499       15747.00     68765.96
  151.07        2971.00           1502       14268.00     62293.29
  151.11        2971.25           1506       12220.00     53334.62
  151.14        2971.50           1509       10522.00     45910.62
  151.17        2971.75           1513        8284.00     36130.69
  151.20        2972.00           1516        6752.00     29439.24
  151.23        2972.25           1519        5157.00     22475.48
  151.26        2972.50           1523        3061.00     13328.78
  151.29        2972.75           1526        1673.00      7274.47
  151.32        2973.00           1529         751.00      3254.02
  151.35        2973.25           1533         413.00      1780.39
  151.38        2973.50           1536         346.00      1488.30
  151.41        2973.75           1539         303.00      1300.84
  151.44        2974.00           1543         249.00      1065.42
  151.47        2974.25           1546         202.00       860.53
  151.51        2974.50           1549         147.00       620.76
  151.54        2974.75           1553         114.00       476.90
  151.57        2975.00           1556          95.00       394.08
  151.60        2975.25           1559          66.00       267.66
  151.63        2975.50           1563          68.00       276.38
  151.66        2975.75           1566          64.00       258.94
  151.69        2976.00           1569          70.00       285.09
  151.72        2976.25           1573          69.00       280.73
  151.75        2976.50           1576          69.00       280.73
  151.79        2976.75           1579          72.00       293.81
  151.82        2977.00           1583          67.00       272.02
  151.85        2977.25           1586          72.00       293.81
  151.88        2977.50           1590          81.00       333.05
  151.91        2977.75           1593          61.00       245.86
  151.94        2978.00           1596          66.00       267.66
  151.97        2978.25           1600          67.00       272.02
  152.00        2978.50           1603          73.00       298.17
  152.03        2978.75           1606          60.00       241.50
  152.06        2979.00           1610          72.00       293.81
  152.09        2979.25           1613          72.00       293.81
  152.12        2979.50           1616          61.00       245.86
  152.15        2979.75           1620          74.00       302.53
  152.18        2980.00           1623          66.00       267.66
  152.21        2980.25           1626          65.00       263.30
  152.25        2980.50           1630          69.00       280.73
  152.28        2980.75           1633          62.00       250.22
  152.31        2981.00           1637          70.00       285.09
  152.34        2981.25           1640          62.00       250.22
  152.37        2981.50           1643          66.00       267.66
  152.40        2981.75           1647          71.00       289.45
  152.43        2982.00           1650          74.00       302.53
  152.46        2982.25           1653          67.00       272.02
  152.49        2982.50           1657          67.00       272.02
  152.52        2982.75           1660          62.00       250.22
  152.55        2983.00           1663          61.00       245.86
  152.58        2983.25           1667          61.00       245.86
  152.61        2983.50           1670          63.00       254.58
  152.65        2983.75           1673          62.00       250.22
  152.68        2984.00           1677          68.00       276.38
HS scan finished at 02:32:54
end
************************************************************
  HS Scan of (1) Internal mercury lamp
************************************************************
Integration time is 0.2294 seconds per sample
dh180917Manchester 53.47 2.23 2.804185pr1000
************************************************************
Dead Time -------------------------  3E-08 
Number of Cycles Used -------------  4 
Starting Wavelength (Angstroms) ---  2950 
Final Wavelength (Angstoms) -------  2984 
Wavelength Increment (Angstroms) --  .25 
Filter Wheel #1 Position ---------- (1) Ground quartz diffuser (ND=2.32)
Filter Wheel #2 Position ---------- (1) Neutral Density 0.494



************************************************************
HS scan start time = 19:11:59
Dark Count =  5.4 


Time (GMT)  Wavelength (Ang)  Step Number  Raw Counts  Counts/Second

 1152.35        2950.00           1222          70.00       281.61
 1152.42        2950.25           1226          90.00       368.79
 1152.45        2950.50           1229          74.00       299.04
 1152.48        2950.75           1232          80.00       325.20
 1152.51        2951.00           1236          74.00       299.04
 1152.54        2951.25           1239          73.00       294.68
 1152.57        2951.50           1242          74.00       299.04
 1152.60        2951.75           1246          82.00       333.92
 1152.63        2952.00           1249          77.00       312.12
 1152.66        2952.25           1252          78.00       316.48
 1152.69        2952.50           1256          69.00       277.25
 1152.73        2952.75           1259          79.00       320.84
 1152.76        2953.00           1262          69.00       277.25
 1152.79        2953.25           1266          67.00       268.53
 1152.82        2953.50           1269          78.00       316.48
 1152.85        2953.75           1272          86.00       351.36
 1152.88        2954.00           1276          76.00       307.76
 1152.91        2954.25           1279          79.00       320.84
 1152.94        2954.50           1282          74.00       299.04
 1152.97        2954.75           1286          70.00       281.61
 1153.00        2955.00           1289          75.00       303.40
 1153.03        2955.25           1292          77.00       312.12
 1153.07        2955.50           1296          71.00       285.97
 1153.10        2955.75           1299          80.00       325.20
 1153.13        2956.00           1302          70.00       281.61
 1153.16        2956.25           1306          75.00       303.40
 1153.19        2956.50           1309          71.00       285.97
 1153.22        2956.75           1312          73.00       294.68
 1153.25        2957.00           1316          75.00       303.40
 1153.28        2957.25           1319          89.00       364.43
 1153.31        2957.50           1322          68.00       272.89
 1153.34        2957.75           1326          71.00       285.97
 1153.37        2958.00           1329          72.00       290.33
 1153.40        2958.25           1332          70.00       281.61
 1153.43        2958.50           1336          73.00       294.68
 1153.47        2958.75           1339          73.00       294.68
 1153.50        2959.00           1342          67.00       268.53
 1153.53        2959.25           1346          85.00       347.00
 1153.56        2959.50           1349          87.00       355.71
 1153.59        2959.75           1352         110.00       455.98
 1153.62        2960.00           1356         153.00       643.43
 1153.65        2960.25           1359         181.00       765.49
 1153.68        2960.50           1362         213.00       904.99
 1153.71        2960.75           1366         281.00      1201.44
 1153.74        2961.00           1369         320.00      1371.46
 1153.77        2961.25           1372         364.00      1563.28
 1153.80        2961.50           1376         425.00      1829.22
 1153.83        2961.75           1379         560.00      2417.79
 1153.86        2962.00           1382        1047.00      4541.16
 1153.89        2962.25           1386        2626.00     11427.63
 1153.93        2962.50           1389        4072.00     17736.55
 1153.96        2962.75           1392        5629.00     24532.44
 1153.99        2963.00           1396        7639.00     33309.65
 1154.02        2963.25           1399        9262.00     40400.29
 1154.05        2963.50           1402       10782.00     47043.68
 1154.08        2963.75           1406       12977.00     56641.94
 1154.11        2964.00           1409       14691.00     64140.74
 1154.14        2964.25           1412       16329.00     71310.20
 1154.17        2964.50           1416       18394.00     80353.02
 1154.20        2964.75           1419       19958.00     87205.19
 1154.23        2965.00           1422       21483.00     93889.19
 1154.27        2965.25           1426       23666.00    103461.90
 1154.30        2965.50           1429       25144.00    109946.20
 1154.33        2965.75           1432       26647.00    116542.80
 1154.36        2966.00           1436       28807.00    126027.50
 1154.39        2966.25           1439       30367.00    132880.90
 1154.42        2966.50           1442       31607.00    138330.50
 1154.45        2966.75           1446       33670.00    147401.10
 1154.48        2967.00           1449       34105.00    149314.30
 1154.51        2967.25           1452       34168.00    149591.40
 1154.54        2967.50           1456       34167.00    149587.00
 1154.57        2967.75           1459       34082.00    149213.10
 1154.60        2968.00           1462       34036.00    149010.80
 1154.64        2968.25           1466       33381.00    146130.10
 1154.67        2968.50           1469       31789.00    139130.50
 1154.70        2968.75           1472       30450.00    133245.60
 1154.73        2969.00           1476       28219.00    123445.00
 1154.76        2969.25           1479       26900.00    117653.40
 1154.79        2969.50           1482       25132.00    109893.50
 1154.82        2969.75           1486       23113.00    101036.40
 1154.85        2970.00           1489       21505.00     93985.64
 1154.88        2970.25           1492       20092.00     87792.39
 1154.92        2970.50           1496       18076.00     78960.15
 1154.95        2970.75           1499       16421.00     71712.97
 1154.98        2971.00           1502       14978.00     65396.71
 1155.01        2971.25           1506       12776.00     55762.78
 1155.04        2971.50           1509       11230.00     49002.24
 1155.07        2971.75           1513        9251.00     40352.22
 1155.10        2972.00           1516        7610.00     33182.97
 1155.13        2972.25           1519        6083.00     26514.55
 1155.16        2972.50           1523        4127.00     17976.56
 1155.19        2972.75           1526        2597.00     11301.13
 1155.22        2973.00           1529        1248.00      5417.62
 1155.26        2973.25           1533         479.00      2064.64
 1155.29        2973.50           1536         336.00      1441.21
 1155.32        2973.75           1539         266.00      1136.05
 1155.35        2974.00           1543         229.00       974.75
 1155.38        2974.25           1546         177.00       748.06
 1155.41        2974.50           1549         126.00       525.73
 1155.44        2974.75           1553          97.00       399.31
 1155.47        2975.00           1556          94.00       386.23
 1155.50        2975.25           1559          78.00       316.48
 1155.53        2975.50           1563          71.00       285.97
 1155.56        2975.75           1566          77.00       312.12
 1155.59        2976.00           1569          69.00       277.25
 1155.62        2976.25           1573          70.00       281.61
 1155.65        2976.50           1576          69.00       277.25
 1155.68        2976.75           1579          67.00       268.53
 1155.72        2977.00           1583          74.00       299.04
 1155.75        2977.25           1586          62.00       246.73
 1155.78        2977.50           1590          67.00       268.53
 1155.81        2977.75           1593          70.00       281.61
 1155.84        2978.00           1596          60.00       238.01
 1155.87        2978.25           1600          77.00       312.12
 1155.90        2978.50           1603          69.00       277.25
 1155.93        2978.75           1606          65.00       259.81
 1155.96        2979.00           1610          69.00       277.25
 1155.99        2979.25           1613          62.00       246.73
 1156.02        2979.50           1616          69.00       277.25
 1156.05        2979.75           1620          70.00       281.61
 1156.08        2980.00           1623          74.00       299.04
 1156.11        2980.25           1626          69.00       277.25
 1156.15        2980.50           1630          67.00       268.53
 1156.18        2980.75           1633          68.00       272.89
 1156.21        2981.00           1637          73.00       294.68
 1156.24        2981.25           1640          72.00       290.33
 1156.27        2981.50           1643          67.00       268.53
 1156.30        2981.75           1647          65.00       259.81
 1156.33        2982.00           1650          65.00       259.81
 1156.36        2982.25           1653          64.00       255.45
 1156.39        2982.50           1657          64.00       255.45
 1156.42        2982.75           1660          60.00       238.01
 1156.46        2983.00           1663          62.00       246.73
 1156.49        2983.25           1667          62.00       246.73
 1156.52        2983.50           1670          68.00       272.89
 1156.55        2983.75           1673          68.00       272.89
 1156.58        2984.00           1677          72.00       290.33
HS scan finished at 19:16:48
end
