************************************************************
  HS Scan of (1) Internal mercury lamp
************************************************************
Integration time is 0.2294 seconds per sample
dh210917Manchester 53.47 2.23 2.857833pr1000
************************************************************
Dead Time -------------------------  3E-08 
Number of Cycles Used -------------  4 
Starting Wavelength (Angstroms) ---  2950 
Final Wavelength (Angstoms) -------  2984 
Wavelength Increment (Angstroms) --  .25 
Filter Wheel #1 Position ---------- (1) Ground quartz diffuser (ND=2.32)
Filter Wheel #2 Position ---------- (1) Neutral Density 0.494



************************************************************
HS scan start time = 02:41:13
Dark Count =  6.5 


Time (GMT)  Wavelength (Ang)  Step Number  Raw Counts  Counts/Second

  161.59        2950.00           1222          70.00       276.81
  161.66        2950.25           1226          74.00       294.25
  161.69        2950.50           1229          72.00       285.53
  161.72        2950.75           1232          76.00       302.97
  161.75        2951.00           1236          79.00       316.04
  161.78        2951.25           1239          83.00       333.48
  161.81        2951.50           1242          80.00       320.40
  161.84        2951.75           1246          68.00       268.09
  161.87        2952.00           1249          75.00       298.61
  161.90        2952.25           1252          69.00       272.45
  161.93        2952.50           1256          61.00       237.58
  161.96        2952.75           1259          73.00       289.89
  161.99        2953.00           1262          69.00       272.45
  162.02        2953.25           1266          65.00       255.02
  162.05        2953.50           1269          76.00       302.97
  162.09        2953.75           1272          76.00       302.97
  162.12        2954.00           1276          75.00       298.61
  162.15        2954.25           1279          70.00       276.81
  162.18        2954.50           1282          76.00       302.97
  162.21        2954.75           1286          73.00       289.89
  162.24        2955.00           1289          69.00       272.45
  162.27        2955.25           1292          70.00       276.81
  162.30        2955.50           1296          70.00       276.81
  162.33        2955.75           1299          75.00       298.61
  162.36        2956.00           1302          73.00       289.89
  162.39        2956.25           1306          78.00       311.69
  162.42        2956.50           1309          70.00       276.81
  162.46        2956.75           1312          79.00       316.04
  162.49        2957.00           1316          73.00       289.89
  162.52        2957.25           1319          77.00       307.33
  162.55        2957.50           1322          64.00       250.66
  162.58        2957.75           1326          74.00       294.25
  162.61        2958.00           1329          80.00       320.40
  162.64        2958.25           1332          75.00       298.61
  162.67        2958.50           1336          73.00       289.89
  162.70        2958.75           1339          78.00       311.69
  162.73        2959.00           1342          62.00       241.94
  162.76        2959.25           1346          78.00       311.69
  162.80        2959.50           1349          82.00       329.12
  162.83        2959.75           1352          93.00       377.07
  162.86        2960.00           1356         121.00       499.14
  162.89        2960.25           1359         144.00       599.40
  162.92        2960.50           1362         178.00       747.62
  162.95        2960.75           1366         232.00       983.03
  162.98        2961.00           1369         274.00      1166.13
  163.01        2961.25           1372         329.00      1405.90
  163.04        2961.50           1376         367.00      1571.57
  163.07        2961.75           1379         485.00      2086.01
  163.11        2962.00           1382         874.00      3782.03
  163.14        2962.25           1386        2250.00      9782.73
  163.17        2962.50           1389        3724.00     16213.20
  163.20        2962.75           1392        5286.00     23030.29
  163.23        2963.00           1396        7467.00     32553.57
  163.26        2963.25           1399        9006.00     39276.85
  163.29        2963.50           1402       10604.00     46260.76
  163.32        2963.75           1406       12676.00     55320.59
  163.35        2964.00           1409       14180.00     61899.94
  163.38        2964.25           1412       15887.00     69370.46
  163.41        2964.50           1416       18134.00     79209.36
  163.44        2964.75           1419       19780.00     86420.37
  163.47        2965.00           1422       21563.00     94235.09
  163.51        2965.25           1426       23864.00    104325.60
  163.54        2965.50           1429       24977.00    109208.60
  163.57        2965.75           1432       26824.00    117315.00
  163.60        2966.00           1436       28630.00    125245.20
  163.63        2966.25           1439       30118.00    131782.00
  163.66        2966.50           1442       31715.00    138800.40
  163.69        2966.75           1446       33605.00    147110.30
  163.72        2967.00           1449       34433.00    150752.20
  163.75        2967.25           1452       34497.00    151033.70
  163.79        2967.50           1456       34618.00    151566.00
  163.82        2967.75           1459       34885.00    152740.60
  163.85        2968.00           1462       34657.00    151737.60
  163.88        2968.25           1466       34053.00    149080.70
  163.91        2968.50           1469       32875.00    143900.20
  163.94        2968.75           1472       31429.00    137543.30
  163.97        2969.00           1476       29351.00    128412.20
  164.00        2969.25           1479       27970.00    122346.70
  164.03        2969.50           1482       26344.00    115207.90
  164.06        2969.75           1486       23959.00    104742.30
  164.09        2970.00           1489       22575.00     98672.21
  164.13        2970.25           1492       21075.00     92095.87
  164.16        2970.50           1496       18963.00     82840.76
  164.19        2970.75           1499       17306.00     75583.15
  164.22        2971.00           1502       15718.00     68630.70
  164.25        2971.25           1506       13541.00     59104.27
  164.28        2971.50           1509       11856.00     51734.55
  164.31        2971.75           1513        9995.00     43598.84
  164.34        2972.00           1516        8433.00     36773.33
  164.37        2972.25           1519        6784.00     29570.69
  164.40        2972.50           1523        4756.00     20716.88
  164.43        2972.75           1526        3116.00     13560.44
  164.47        2973.00           1529        1639.00      7117.91
  164.50        2973.25           1533         546.00      2351.95
  164.53        2973.50           1536         358.00      1532.33
  164.56        2973.75           1539         277.00      1179.20
  164.59        2974.00           1543         240.00      1017.90
  164.62        2974.25           1546         190.00       799.93
  164.65        2974.50           1549         141.00       586.32
  164.68        2974.75           1553         125.00       516.57
  164.71        2975.00           1556          96.00       390.15
  164.74        2975.25           1559          73.00       289.89
  164.77        2975.50           1563          75.00       298.61
  164.80        2975.75           1566          69.00       272.45
  164.84        2976.00           1569          63.00       246.30
  164.87        2976.25           1573          80.00       320.40
  164.90        2976.50           1576          76.00       302.97
  164.93        2976.75           1579          70.00       276.81
  164.96        2977.00           1583          63.00       246.30
  164.99        2977.25           1586          66.00       259.37
  165.02        2977.50           1590          80.00       320.40
  165.05        2977.75           1593          76.00       302.97
  165.08        2978.00           1596          67.00       263.73
  165.11        2978.25           1600          59.00       228.86
  165.14        2978.50           1603          69.00       272.45
  165.17        2978.75           1606          68.00       268.09
  165.20        2979.00           1610          68.00       268.09
  165.24        2979.25           1613          63.00       246.30
  165.27        2979.50           1616          70.00       276.81
  165.30        2979.75           1620          59.00       228.86
  165.33        2980.00           1623          78.00       311.69
  165.36        2980.25           1626          62.00       241.94
  165.39        2980.50           1630          63.00       246.30
  165.42        2980.75           1633          69.00       272.45
  165.45        2981.00           1637          66.00       259.37
  165.48        2981.25           1640          66.00       259.37
  165.51        2981.50           1643          61.00       237.58
  165.54        2981.75           1647          56.00       215.78
  165.57        2982.00           1650          67.00       263.73
  165.60        2982.25           1653          70.00       276.81
  165.64        2982.50           1657          73.00       289.89
  165.67        2982.75           1660          66.00       259.37
  165.70        2983.00           1663          62.00       241.94
  165.73        2983.25           1667          67.00       263.73
  165.76        2983.50           1670          59.00       228.86
  165.79        2983.75           1673          69.00       272.45
  165.82        2984.00           1677          58.00       224.50
HS scan finished at 02:46:02
end
************************************************************
  HS Scan of (1) Internal mercury lamp
************************************************************
Integration time is 0.2294 seconds per sample
dh210917Manchester 53.47 2.23 2.804185pr1000
************************************************************
Dead Time -------------------------  3E-08 
Number of Cycles Used -------------  4 
Starting Wavelength (Angstroms) ---  2950 
Final Wavelength (Angstoms) -------  2984 
Wavelength Increment (Angstroms) --  .25 
Filter Wheel #1 Position ---------- (1) Ground quartz diffuser (ND=2.32)
Filter Wheel #2 Position ---------- (1) Neutral Density 0.494



************************************************************
HS scan start time = 19:11:59
Dark Count =  7.1 


Time (GMT)  Wavelength (Ang)  Step Number  Raw Counts  Counts/Second

 1152.36        2950.00           1222          75.00       295.99
 1152.42        2950.25           1226          78.00       309.07
 1152.45        2950.50           1229          78.00       309.07
 1152.49        2950.75           1232          75.00       295.99
 1152.52        2951.00           1236          74.00       291.63
 1152.55        2951.25           1239          67.00       261.12
 1152.58        2951.50           1242          70.00       274.20
 1152.61        2951.75           1246          82.00       326.51
 1152.64        2952.00           1249          76.00       300.35
 1152.67        2952.25           1252          74.00       291.63
 1152.70        2952.50           1256          69.00       269.84
 1152.73        2952.75           1259          78.00       309.07
 1152.76        2953.00           1262          67.00       261.12
 1152.79        2953.25           1266          72.00       282.91
 1152.82        2953.50           1269          68.00       265.48
 1152.85        2953.75           1272          70.00       274.20
 1152.89        2954.00           1276          72.00       282.91
 1152.92        2954.25           1279          80.00       317.79
 1152.95        2954.50           1282          70.00       274.20
 1152.98        2954.75           1286          75.00       295.99
 1153.01        2955.00           1289          76.00       300.35
 1153.04        2955.25           1292          72.00       282.91
 1153.07        2955.50           1296          72.00       282.91
 1153.10        2955.75           1299          68.00       265.48
 1153.13        2956.00           1302          71.00       278.56
 1153.16        2956.25           1306          70.00       274.20
 1153.19        2956.50           1309          74.00       291.63
 1153.22        2956.75           1312          71.00       278.56
 1153.25        2957.00           1316          70.00       274.20
 1153.29        2957.25           1319          74.00       291.63
 1153.32        2957.50           1322          61.00       234.96
 1153.35        2957.75           1326          82.00       326.51
 1153.38        2958.00           1329          67.00       261.12
 1153.41        2958.25           1332          72.00       282.91
 1153.44        2958.50           1336          73.00       287.27
 1153.47        2958.75           1339          74.00       291.63
 1153.50        2959.00           1342          73.00       287.27
 1153.53        2959.25           1346          79.00       313.43
 1153.56        2959.50           1349          93.00       374.46
 1153.59        2959.75           1352          96.00       387.54
 1153.63        2960.00           1356         136.00       561.91
 1153.66        2960.25           1359         159.00       662.18
 1153.69        2960.50           1362         175.00       731.93
 1153.72        2960.75           1366         242.00      1024.01
 1153.75        2961.00           1369         293.00      1246.34
 1153.78        2961.25           1372         317.00      1350.97
 1153.81        2961.50           1376         436.00      1869.77
 1153.84        2961.75           1379         587.00      2528.09
 1153.87        2962.00           1382        1328.00      5759.06
 1153.90        2962.25           1386        2990.00     13008.13
 1153.93        2962.50           1389        4588.00     19981.02
 1153.96        2962.75           1392        5987.00     26087.98
 1154.00        2963.00           1396        7883.00     34368.02
 1154.03        2963.25           1399        9569.00     41734.44
 1154.06        2963.50           1402       11048.00     48199.12
 1154.09        2963.75           1406       13195.00     57588.08
 1154.12        2964.00           1409       14641.00     63914.51
 1154.15        2964.25           1412       16657.00     72738.77
 1154.18        2964.50           1416       18943.00     82750.52
 1154.21        2964.75           1419       20451.00     89358.24
 1154.24        2965.00           1422       22249.00     97240.11
 1154.27        2965.25           1426       24261.00    106064.50
 1154.31        2965.50           1429       25634.00    112089.00
 1154.34        2965.75           1432       27339.00    119573.30
 1154.37        2966.00           1436       29508.00    129099.30
 1154.40        2966.25           1439       31081.00    136011.10
 1154.43        2966.50           1442       32383.00    141734.40
 1154.46        2966.75           1446       33632.00    147226.40
 1154.49        2967.00           1449       33950.00    148625.00
 1154.52        2967.25           1452       33994.00    148818.60
 1154.55        2967.50           1456       34159.00    149544.30
 1154.59        2967.75           1459       34035.00    148998.90
 1154.62        2968.00           1462       33701.00    147529.90
 1154.65        2968.25           1466       32940.00    144183.40
 1154.68        2968.50           1469       31481.00    137769.20
 1154.71        2968.75           1472       30079.00    131608.00
 1154.74        2969.00           1476       28148.00    123125.70
 1154.77        2969.25           1479       26443.00    115639.80
 1154.80        2969.50           1482       24925.00    108977.80
 1154.83        2969.75           1486       22941.00    100274.60
 1154.86        2970.00           1489       21360.00     93342.54
 1154.89        2970.25           1492       19667.00     85922.59
 1154.93        2970.50           1496       17859.00     78002.29
 1154.96        2970.75           1499       16144.00     70492.87
 1154.99        2971.00           1502       14619.00     63818.24
 1155.02        2971.25           1506       12391.00     54071.52
 1155.05        2971.50           1509       10819.00     47198.00
 1155.08        2971.75           1513        8886.00     38749.91
 1155.11        2972.00           1516        7300.00     31821.56
 1155.14        2972.25           1519        5739.00     25005.24
 1155.17        2972.50           1523        3851.00     16764.75
 1155.21        2972.75           1526        2259.00      9819.37
 1155.24        2973.00           1529        1014.00      4389.85
 1155.27        2973.25           1533         438.00      1878.48
 1155.30        2973.50           1536         343.00      1464.32
 1155.33        2973.75           1539         301.00      1281.22
 1155.36        2974.00           1543         244.00      1032.73
 1155.39        2974.25           1546         195.00       819.11
 1155.42        2974.50           1549         155.00       644.74
 1155.45        2974.75           1553         109.00       444.21
 1155.48        2975.00           1556          84.00       335.23
 1155.51        2975.25           1559          72.00       282.91
 1155.54        2975.50           1563          69.00       269.84
 1155.57        2975.75           1566          66.00       256.76
 1155.61        2976.00           1569          68.00       265.48
 1155.64        2976.25           1573          64.00       248.04
 1155.67        2976.50           1576          72.00       282.91
 1155.70        2976.75           1579          62.00       239.32
 1155.73        2977.00           1583          70.00       274.20
 1155.76        2977.25           1586          70.00       274.20
 1155.79        2977.50           1590          68.00       265.48
 1155.82        2977.75           1593          72.00       282.91
 1155.85        2978.00           1596          72.00       282.91
 1155.88        2978.25           1600          63.00       243.68
 1155.91        2978.50           1603          70.00       274.20
 1155.94        2978.75           1606          76.00       300.35
 1155.97        2979.00           1610          74.00       291.63
 1156.01        2979.25           1613          65.00       252.40
 1156.04        2979.50           1616          64.00       248.04
 1156.07        2979.75           1620          68.00       265.48
 1156.10        2980.00           1623          69.00       269.84
 1156.13        2980.25           1626          69.00       269.84
 1156.16        2980.50           1630          65.00       252.40
 1156.19        2980.75           1633          73.00       287.27
 1156.22        2981.00           1637          63.00       243.68
 1156.25        2981.25           1640          62.00       239.32
 1156.28        2981.50           1643          69.00       269.84
 1156.32        2981.75           1647          67.00       261.12
 1156.35        2982.00           1650          66.00       256.76
 1156.38        2982.25           1653          63.00       243.68
 1156.41        2982.50           1657          63.00       243.68
 1156.44        2982.75           1660          63.00       243.68
 1156.47        2983.00           1663          71.00       278.56
 1156.50        2983.25           1667          61.00       234.96
 1156.53        2983.50           1670          56.00       213.17
 1156.56        2983.75           1673          64.00       248.04
 1156.59        2984.00           1677          66.00       256.76
HS scan finished at 19:16:48
end
