************************************************************
  HS Scan of (1) Internal mercury lamp
************************************************************
Integration time is 0.2294 seconds per sample
dh240917Manchester 53.47 2.23 2.804185pr1000
************************************************************
Dead Time -------------------------  3E-08 
Number of Cycles Used -------------  4 
Starting Wavelength (Angstroms) ---  2950 
Final Wavelength (Angstoms) -------  2984 
Wavelength Increment (Angstroms) --  .25 
Filter Wheel #1 Position ---------- (1) Ground quartz diffuser (ND=2.32)
Filter Wheel #2 Position ---------- (1) Neutral Density 0.494



************************************************************
HS scan start time = 02:50:40
Dark Count =  5.7 


Time (GMT)  Wavelength (Ang)  Step Number  Raw Counts  Counts/Second

  171.04        2950.00           1222          68.00       271.58
  171.10        2950.25           1226          71.00       284.66
  171.13        2950.50           1229          65.00       258.50
  171.16        2950.75           1232          69.00       275.94
  171.20        2951.00           1236          68.00       271.58
  171.23        2951.25           1239          75.00       302.10
  171.26        2951.50           1242          79.00       319.53
  171.29        2951.75           1246          74.00       297.74
  171.32        2952.00           1249          74.00       297.74
  171.35        2952.25           1252          66.00       262.86
  171.38        2952.50           1256          78.00       315.17
  171.41        2952.75           1259          70.00       280.30
  171.44        2953.00           1262          72.00       289.02
  171.47        2953.25           1266          72.00       289.02
  171.50        2953.50           1269          63.00       249.78
  171.53        2953.75           1272          75.00       302.10
  171.56        2954.00           1276          69.00       275.94
  171.59        2954.25           1279          71.00       284.66
  171.63        2954.50           1282          70.00       280.30
  171.66        2954.75           1286          69.00       275.94
  171.69        2955.00           1289          74.00       297.74
  171.72        2955.25           1292          75.00       302.10
  171.75        2955.50           1296          75.00       302.10
  171.78        2955.75           1299          74.00       297.74
  171.81        2956.00           1302          70.00       280.30
  171.84        2956.25           1306          73.00       293.38
  171.87        2956.50           1309          65.00       258.50
  171.90        2956.75           1312          66.00       262.86
  171.93        2957.00           1316          69.00       275.94
  171.97        2957.25           1319          68.00       271.58
  172.00        2957.50           1322          70.00       280.30
  172.03        2957.75           1326          83.00       336.97
  172.06        2958.00           1329          71.00       284.66
  172.09        2958.25           1332          69.00       275.94
  172.12        2958.50           1336          63.00       249.78
  172.15        2958.75           1339          76.00       306.45
  172.18        2959.00           1342          84.00       341.33
  172.21        2959.25           1346          69.00       275.94
  172.24        2959.50           1349          94.00       384.92
  172.27        2959.75           1352         107.00       441.59
  172.30        2960.00           1356         116.00       480.83
  172.34        2960.25           1359         150.00       629.04
  172.37        2960.50           1362         190.00       803.42
  172.40        2960.75           1366         239.00      1017.03
  172.43        2961.00           1369         274.00      1169.61
  172.46        2961.25           1372         331.00      1418.11
  172.49        2961.50           1376         382.00      1640.45
  172.52        2961.75           1379         576.00      2486.24
  172.55        2962.00           1382        1085.00      4705.55
  172.58        2962.25           1386        2845.00     12381.67
  172.61        2962.50           1389        4317.00     18804.42
  172.64        2962.75           1392        5886.00     25653.13
  172.68        2963.00           1396        7717.00     33649.03
  172.71        2963.25           1399        9303.00     40578.14
  172.74        2963.50           1402       11044.00     48187.75
  172.77        2963.75           1406       13157.00     57427.98
  172.80        2964.00           1409       14798.00     64607.67
  172.83        2964.25           1412       16428.00     71742.31
  172.86        2964.50           1416       18607.00     81284.73
  172.89        2964.75           1419       20088.00     87773.55
  172.92        2965.00           1422       21589.00     94352.58
  172.96        2965.25           1426       23689.00    103561.50
  172.99        2965.50           1429       25260.00    110453.90
  173.02        2965.75           1432       26799.00    117208.70
  173.05        2966.00           1436       29168.00    127611.90
  173.08        2966.25           1439       30501.00    133468.40
  173.11        2966.50           1442       31939.00    139788.60
  173.14        2966.75           1446       33716.00    147602.00
  173.17        2967.00           1449       34225.00    149840.80
  173.20        2967.25           1452       34232.00    149871.60
  173.24        2967.50           1456       34129.00    149418.50
  173.27        2967.75           1459       34201.00    149735.20
  173.30        2968.00           1462       34160.00    149554.90
  173.33        2968.25           1466       33219.00    145416.40
  173.36        2968.50           1469       31983.00    139982.00
  173.39        2968.75           1472       30325.00    132695.00
  173.42        2969.00           1476       28167.00    123215.30
  173.45        2969.25           1479       26609.00    116374.60
  173.48        2969.50           1482       25292.00    110594.30
  173.52        2969.75           1486       23057.00    100789.50
  173.55        2970.00           1489       21351.00     93309.22
  173.58        2970.25           1492       20042.00     87571.96
  173.61        2970.50           1496       18004.00     78643.49
  173.64        2970.75           1499       16533.00     72202.00
  173.67        2971.00           1502       14798.00     64607.67
  173.70        2971.25           1506       12742.00     55612.76
  173.73        2971.50           1509       11099.00     48428.20
  173.76        2971.75           1513        9028.00     39376.48
  173.79        2972.00           1516        7503.00     32714.31
  173.82        2972.25           1519        5866.00     25565.81
  173.86        2972.50           1523        3885.00     16919.22
  173.89        2972.75           1526        2463.00     10715.30
  173.92        2973.00           1529        1154.00      5006.42
  173.95        2973.25           1533         488.00      2102.57
  173.98        2973.50           1536         345.00      1479.14
  174.01        2973.75           1539         312.00      1335.28
  174.04        2974.00           1543         256.00      1091.14
  174.07        2974.25           1546         200.00       847.01
  174.10        2974.50           1549         152.00       637.76
  174.13        2974.75           1553         111.00       459.03
  174.17        2975.00           1556          84.00       341.33
  174.20        2975.25           1559          68.00       271.58
  174.23        2975.50           1563          71.00       284.66
  174.26        2975.75           1566          67.00       267.22
  174.29        2976.00           1569          69.00       275.94
  174.32        2976.25           1573          66.00       262.86
  174.35        2976.50           1576          64.00       254.14
  174.38        2976.75           1579          65.00       258.50
  174.41        2977.00           1583          67.00       267.22
  174.44        2977.25           1586          69.00       275.94
  174.47        2977.50           1590          71.00       284.66
  174.50        2977.75           1593          70.00       280.30
  174.53        2978.00           1596          73.00       293.38
  174.56        2978.25           1600          67.00       267.22
  174.59        2978.50           1603          64.00       254.14
  174.62        2978.75           1606          61.00       241.07
  174.65        2979.00           1610          60.00       236.71
  174.69        2979.25           1613          64.00       254.14
  174.72        2979.50           1616          67.00       267.22
  174.75        2979.75           1620          65.00       258.50
  174.78        2980.00           1623          66.00       262.86
  174.81        2980.25           1626          59.00       232.35
  174.84        2980.50           1630          67.00       267.22
  174.87        2980.75           1633          67.00       267.22
  174.90        2981.00           1637          68.00       271.58
  174.93        2981.25           1640          69.00       275.94
  174.96        2981.50           1643          70.00       280.30
  174.99        2981.75           1647          67.00       267.22
  175.03        2982.00           1650          62.00       245.42
  175.06        2982.25           1653          69.00       275.94
  175.09        2982.50           1657          64.00       254.14
  175.12        2982.75           1660          65.00       258.50
  175.15        2983.00           1663          61.00       241.07
  175.18        2983.25           1667          61.00       241.07
  175.21        2983.50           1670          69.00       275.94
  175.24        2983.75           1673          78.00       315.17
  175.27        2984.00           1677          69.00       275.94
HS scan finished at 02:55:29
end
************************************************************
  HS Scan of (1) Internal mercury lamp
************************************************************
Integration time is 0.2294 seconds per sample
dh240917Manchester 53.47 2.23 2.965129pr1000
************************************************************
Dead Time -------------------------  3E-08 
Number of Cycles Used -------------  4 
Starting Wavelength (Angstroms) ---  2950 
Final Wavelength (Angstoms) -------  2984 
Wavelength Increment (Angstroms) --  .25 
Filter Wheel #1 Position ---------- (1) Ground quartz diffuser (ND=2.32)
Filter Wheel #2 Position ---------- (1) Neutral Density 0.494



************************************************************
HS scan start time = 19:12:03
Dark Count =  7.1 


Time (GMT)  Wavelength (Ang)  Step Number  Raw Counts  Counts/Second

 1152.42        2950.00           1222          68.00       265.48
 1152.49        2950.25           1226          78.00       309.07
 1152.52        2950.50           1229          74.00       291.63
 1152.55        2950.75           1232          73.00       287.27
 1152.58        2951.00           1236          77.00       304.71
 1152.61        2951.25           1239          81.00       322.15
 1152.64        2951.50           1242          74.00       291.63
 1152.67        2951.75           1246          75.00       295.99
 1152.70        2952.00           1249          73.00       287.27
 1152.73        2952.25           1252          72.00       282.91
 1152.77        2952.50           1256          69.00       269.84
 1152.80        2952.75           1259          75.00       295.99
 1152.83        2953.00           1262          66.00       256.76
 1152.86        2953.25           1266          75.00       295.99
 1152.89        2953.50           1269          68.00       265.48
 1152.92        2953.75           1272          70.00       274.20
 1152.95        2954.00           1276          71.00       278.56
 1152.98        2954.25           1279          77.00       304.71
 1153.01        2954.50           1282          75.00       295.99
 1153.04        2954.75           1286          73.00       287.27
 1153.07        2955.00           1289          80.00       317.79
 1153.11        2955.25           1292          68.00       265.48
 1153.14        2955.50           1296          72.00       282.91
 1153.17        2955.75           1299          74.00       291.63
 1153.20        2956.00           1302          72.00       282.91
 1153.23        2956.25           1306          74.00       291.63
 1153.26        2956.50           1309          81.00       322.15
 1153.29        2956.75           1312          72.00       282.91
 1153.32        2957.00           1316          71.00       278.56
 1153.35        2957.25           1319          71.00       278.56
 1153.38        2957.50           1322          73.00       287.27
 1153.41        2957.75           1326          68.00       265.48
 1153.44        2958.00           1329          75.00       295.99
 1153.48        2958.25           1332          67.00       261.12
 1153.51        2958.50           1336          72.00       282.91
 1153.54        2958.75           1339          69.00       269.84
 1153.57        2959.00           1342          70.00       274.20
 1153.60        2959.25           1346          68.00       265.48
 1153.63        2959.50           1349          93.00       374.46
 1153.66        2959.75           1352          89.00       357.02
 1153.69        2960.00           1356         123.00       505.24
 1153.72        2960.25           1359         160.00       666.53
 1153.75        2960.50           1362         177.00       740.64
 1153.78        2960.75           1366         257.00      1089.40
 1153.81        2961.00           1369         308.00      1311.73
 1153.85        2961.25           1372         344.00      1468.68
 1153.88        2961.50           1376         438.00      1878.48
 1153.91        2961.75           1379         669.00      2885.60
 1153.94        2962.00           1382        1611.00      6993.18
 1153.97        2962.25           1386        3664.00     15948.78
 1154.00        2962.50           1389        5432.00     23665.01
 1154.03        2962.75           1392        6984.00     30441.48
 1154.06        2963.00           1396        9278.00     40462.78
 1154.09        2963.25           1399       10885.00     47486.53
 1154.12        2963.50           1402       12613.00     55042.43
 1154.15        2963.75           1406       14967.00     65341.13
 1154.18        2964.00           1409       16696.00     72909.52
 1154.22        2964.25           1412       18330.00     80065.23
 1154.25        2964.50           1416       20597.00     89998.11
 1154.28        2964.75           1419       22101.00     96591.18
 1154.31        2965.00           1422       24127.00    105476.70
 1154.34        2965.25           1426       26499.00    115885.60
 1154.37        2965.50           1429       28369.00    124096.30
 1154.40        2965.75           1432       30208.00    132174.80
 1154.43        2966.00           1436       32349.00    141584.90
 1154.46        2966.25           1439       33770.00    147833.40
 1154.49        2966.50           1442       35265.00    154409.80
 1154.52        2966.75           1446       36906.00    161631.50
 1154.55        2967.00           1449       37141.00    162665.90
 1154.59        2967.25           1452       37210.00    162969.60
 1154.62        2967.50           1456       37149.00    162701.10
 1154.65        2967.75           1459       37038.00    162212.50
 1154.68        2968.00           1462       36880.00    161517.00
 1154.71        2968.25           1466       35630.00    156015.80
 1154.74        2968.50           1469       33768.00    147824.60
 1154.77        2968.75           1472       32388.00    141756.30
 1154.80        2969.00           1476       29918.00    130900.60
 1154.83        2969.25           1479       28328.00    123916.20
 1154.86        2969.50           1482       26733.00    116912.80
 1154.89        2969.75           1486       24380.00    106586.60
 1154.93        2970.00           1489       22777.00     99555.40
 1154.96        2970.25           1492       21184.00     92571.03
 1154.99        2970.50           1496       19035.00     83153.56
 1155.02        2970.75           1499       17291.00     75514.82
 1155.05        2971.00           1502       15395.00     67214.31
 1155.08        2971.25           1506       13210.00     57653.70
 1155.11        2971.50           1509       11370.00     49606.90
 1155.14        2971.75           1513        9206.00     40148.16
 1155.17        2972.00           1516        7464.00     32537.85
 1155.21        2972.25           1519        5794.00     25245.36
 1155.24        2972.50           1523        3463.00     15071.77
 1155.27        2972.75           1526        1938.00      8419.30
 1155.30        2973.00           1529         866.00      3744.54
 1155.33        2973.25           1533         459.00      1970.04
 1155.36        2973.50           1536         367.00      1568.95
 1155.39        2973.75           1539         316.00      1346.61
 1155.42        2974.00           1543         261.00      1106.84
 1155.45        2974.25           1546         200.00       840.91
 1155.48        2974.50           1549         151.00       627.30
 1155.51        2974.75           1553         106.00       431.13
 1155.54        2975.00           1556          84.00       335.23
 1155.58        2975.25           1559          75.00       295.99
 1155.61        2975.50           1563          77.00       304.71
 1155.64        2975.75           1566          75.00       295.99
 1155.67        2976.00           1569          70.00       274.20
 1155.70        2976.25           1573          69.00       269.84
 1155.73        2976.50           1576          73.00       287.27
 1155.76        2976.75           1579          61.00       234.96
 1155.79        2977.00           1583          70.00       274.20
 1155.82        2977.25           1586          57.00       217.53
 1155.85        2977.50           1590          73.00       287.27
 1155.88        2977.75           1593          62.00       239.32
 1155.91        2978.00           1596          78.00       309.07
 1155.94        2978.25           1600          66.00       256.76
 1155.98        2978.50           1603          80.00       317.79
 1156.01        2978.75           1606          64.00       248.04
 1156.04        2979.00           1610          69.00       269.84
 1156.07        2979.25           1613          73.00       287.27
 1156.10        2979.50           1616          68.00       265.48
 1156.13        2979.75           1620          70.00       274.20
 1156.16        2980.00           1623          66.00       256.76
 1156.19        2980.25           1626          62.00       239.32
 1156.22        2980.50           1630          60.00       230.60
 1156.25        2980.75           1633          73.00       287.27
 1156.28        2981.00           1637          75.00       295.99
 1156.31        2981.25           1640          63.00       243.68
 1156.35        2981.50           1643          68.00       265.48
 1156.38        2981.75           1647          63.00       243.68
 1156.41        2982.00           1650          67.00       261.12
 1156.44        2982.25           1653          63.00       243.68
 1156.47        2982.50           1657          61.00       234.96
 1156.50        2982.75           1660          64.00       248.04
 1156.53        2983.00           1663          67.00       261.12
 1156.56        2983.25           1667          63.00       243.68
 1156.59        2983.50           1670          58.00       221.88
 1156.62        2983.75           1673          71.00       278.56
 1156.65        2984.00           1677          61.00       234.96
HS scan finished at 19:16:52
end
