************************************************************
  HS Scan of (1) Internal mercury lamp
************************************************************
Integration time is 0.2294 seconds per sample
dh200918Manchester 53.47 2.23 2.804185pr1000
************************************************************
Dead Time -------------------------  3E-08 
Number of Cycles Used -------------  4 
Starting Wavelength (Angstroms) ---  2950 
Final Wavelength (Angstoms) -------  2984 
Wavelength Increment (Angstroms) --  .25 
Filter Wheel #1 Position ---------- (1) Ground quartz diffuser (ND=2.32)
Filter Wheel #2 Position ---------- (1) Neutral Density 0.494



************************************************************
HS scan start time = 02:35:10
Dark Count =  5.8 


Time (GMT)  Wavelength (Ang)  Step Number  Raw Counts  Counts/Second

  155.54        2950.00           1222          51.00       197.04
  155.61        2950.25           1226          47.00       179.60
  155.64        2950.50           1229          47.00       179.60
  155.67        2950.75           1232          46.00       175.24
  155.70        2951.00           1236          53.00       205.76
  155.73        2951.25           1239          52.00       201.40
  155.76        2951.50           1242          46.00       175.24
  155.79        2951.75           1246          56.00       218.83
  155.82        2952.00           1249          48.00       183.96
  155.85        2952.25           1252          50.00       192.68
  155.88        2952.50           1256          46.00       175.24
  155.91        2952.75           1259          52.00       201.40
  155.94        2953.00           1262          50.00       192.68
  155.98        2953.25           1266          56.00       218.83
  156.01        2953.50           1269          53.00       205.76
  156.04        2953.75           1272          55.00       214.47
  156.07        2954.00           1276          56.00       218.83
  156.10        2954.25           1279          63.00       249.35
  156.13        2954.50           1282          51.00       197.04
  156.16        2954.75           1286          50.00       192.68
  156.19        2955.00           1289          42.00       157.80
  156.22        2955.25           1292          51.00       197.04
  156.25        2955.50           1296          48.00       183.96
  156.28        2955.75           1299          55.00       214.47
  156.31        2956.00           1302          43.00       162.16
  156.35        2956.25           1306          63.00       249.35
  156.38        2956.50           1309          50.00       192.68
  156.41        2956.75           1312          48.00       183.96
  156.44        2957.00           1316          47.00       179.60
  156.47        2957.25           1319          51.00       197.04
  156.50        2957.50           1322          54.00       210.11
  156.53        2957.75           1326          45.00       170.88
  156.56        2958.00           1329          56.00       218.83
  156.59        2958.25           1332          48.00       183.96
  156.62        2958.50           1336          52.00       201.40
  156.65        2958.75           1339          51.00       197.04
  156.68        2959.00           1342          43.00       162.16
  156.71        2959.25           1346          56.00       218.83
  156.74        2959.50           1349          62.00       244.99
  156.77        2959.75           1352          74.00       297.30
  156.80        2960.00           1356          92.00       375.77
  156.84        2960.25           1359         112.00       462.95
  156.87        2960.50           1362         140.00       585.01
  156.90        2960.75           1366         185.00       781.19
  156.93        2961.00           1369         225.00       955.56
  156.96        2961.25           1372         258.00      1099.43
  156.99        2961.50           1376         293.00      1252.01
  157.02        2961.75           1379         402.00      1727.20
  157.05        2962.00           1382         767.00      3318.55
  157.08        2962.25           1386        1986.00      8634.32
  157.11        2962.50           1389        3108.00     13528.59
  157.14        2962.75           1392        4227.00     18411.22
  157.17        2963.00           1396        6012.00     26202.81
  157.20        2963.25           1399        7222.00     31486.58
  157.23        2963.50           1402        8516.00     37139.01
  157.27        2963.75           1406       10052.00     43851.03
  157.30        2964.00           1409       11314.00     49367.75
  157.33        2964.25           1412       12635.00     55144.34
  157.36        2964.50           1416       14088.00     61500.46
  157.39        2964.75           1419       15387.00     67184.98
  157.42        2965.00           1422       16600.00     72494.90
  157.45        2965.25           1426       18327.00     80057.78
  157.48        2965.50           1429       19579.00     85542.69
  157.51        2965.75           1432       20979.00     91678.12
  157.54        2966.00           1436       22579.00     98692.83
  157.58        2966.25           1439       23870.00    104355.00
  157.61        2966.50           1442       24844.00    108628.10
  157.64        2966.75           1446       26133.00    114284.80
  157.67        2967.00           1449       26511.00    115944.00
  157.70        2967.25           1452       26706.00    116800.00
  157.73        2967.50           1456       26743.00    116962.40
  157.76        2967.75           1459       26663.00    116611.30
  157.79        2968.00           1462       26430.00    115588.50
  157.82        2968.25           1466       26184.00    114508.70
  157.85        2968.50           1469       25212.00    110242.80
  157.89        2968.75           1472       24066.00    105214.80
  157.92        2969.00           1476       22432.00     98048.22
  157.95        2969.25           1479       21240.00     92822.19
  157.98        2969.50           1482       19969.00     87251.62
  158.01        2969.75           1486       18193.00     79470.85
  158.04        2970.00           1489       17074.00     74570.30
  158.07        2970.25           1492       15903.00     69443.56
  158.10        2970.50           1496       14369.00     62729.98
  158.13        2970.75           1499       13205.00     57637.50
  158.16        2971.00           1502       11840.00     51667.65
  158.19        2971.25           1506       10248.00     44707.71
  158.23        2971.50           1509        9087.00     39633.85
  158.26        2971.75           1513        7476.00     32595.94
  158.29        2972.00           1516        6149.00     26800.97
  158.32        2972.25           1519        4785.00     20846.51
  158.35        2972.50           1523        3230.00     14060.86
  158.38        2972.75           1526        2067.00      8987.60
  158.41        2973.00           1529        1067.00      4626.62
  158.44        2973.25           1533         395.00      1696.69
  158.47        2973.50           1536         289.00      1234.57
  158.50        2973.75           1539         229.00       973.00
  158.53        2974.00           1543         215.00       911.97
  158.56        2974.25           1546         143.00       598.09
  158.60        2974.50           1549         116.00       480.39
  158.63        2974.75           1553          88.00       358.33
  158.66        2975.00           1556          53.00       205.76
  158.69        2975.25           1559          47.00       179.60
  158.72        2975.50           1563          54.00       210.11
  158.75        2975.75           1566          47.00       179.60
  158.78        2976.00           1569          50.00       192.68
  158.81        2976.25           1573          44.00       166.52
  158.84        2976.50           1576          47.00       179.60
  158.87        2976.75           1579          51.00       197.04
  158.90        2977.00           1583          43.00       162.16
  158.93        2977.25           1586          46.00       175.24
  158.96        2977.50           1590          62.00       244.99
  158.99        2977.75           1593          45.00       170.88
  159.02        2978.00           1596          48.00       183.96
  159.06        2978.25           1600          48.00       183.96
  159.09        2978.50           1603          49.00       188.32
  159.12        2978.75           1606          49.00       188.32
  159.15        2979.00           1610          44.00       166.52
  159.18        2979.25           1613          53.00       205.76
  159.21        2979.50           1616          49.00       188.32
  159.24        2979.75           1620          50.00       192.68
  159.27        2980.00           1623          52.00       201.40
  159.30        2980.25           1626          45.00       170.88
  159.33        2980.50           1630          42.00       157.80
  159.36        2980.75           1633          55.00       214.47
  159.39        2981.00           1637          44.00       166.52
  159.42        2981.25           1640          51.00       197.04
  159.45        2981.50           1643          40.00       149.09
  159.48        2981.75           1647          55.00       214.47
  159.51        2982.00           1650          40.00       149.09
  159.54        2982.25           1653          47.00       179.60
  159.57        2982.50           1657          46.00       175.24
  159.60        2982.75           1660          42.00       157.80
  159.63        2983.00           1663          40.00       149.09
  159.67        2983.25           1667          47.00       179.60
  159.70        2983.50           1670          47.00       179.60
  159.73        2983.75           1673          49.00       188.32
  159.76        2984.00           1677          48.00       183.96
HS scan finished at 02:39:59
end
************************************************************
  HS Scan of (1) Internal mercury lamp
************************************************************
Integration time is 0.2294 seconds per sample
dh200918Manchester 53.47 2.23 2.857833pr1000
************************************************************
Dead Time -------------------------  3E-08 
Number of Cycles Used -------------  4 
Starting Wavelength (Angstroms) ---  2950 
Final Wavelength (Angstoms) -------  2984 
Wavelength Increment (Angstroms) --  .25 
Filter Wheel #1 Position ---------- (1) Ground quartz diffuser (ND=2.32)
Filter Wheel #2 Position ---------- (1) Neutral Density 0.494



************************************************************
HS scan start time = 19:12:05
Dark Count =  6.6 


Time (GMT)  Wavelength (Ang)  Step Number  Raw Counts  Counts/Second

 1152.45        2950.00           1222          52.00       197.91
 1152.51        2950.25           1226          53.00       202.27
 1152.54        2950.50           1229          57.00       219.71
 1152.57        2950.75           1232          56.00       215.35
 1152.60        2951.00           1236          53.00       202.27
 1152.63        2951.25           1239          54.00       206.63
 1152.66        2951.50           1242          51.00       193.55
 1152.69        2951.75           1246          48.00       180.47
 1152.73        2952.00           1249          53.00       202.27
 1152.76        2952.25           1252          54.00       206.63
 1152.79        2952.50           1256          50.00       189.19
 1152.82        2952.75           1259          53.00       202.27
 1152.85        2953.00           1262          58.00       224.06
 1152.88        2953.25           1266          53.00       202.27
 1152.91        2953.50           1269          51.00       193.55
 1152.94        2953.75           1272          53.00       202.27
 1152.97        2954.00           1276          50.00       189.19
 1153.00        2954.25           1279          54.00       206.63
 1153.03        2954.50           1282          52.00       197.91
 1153.06        2954.75           1286          54.00       206.63
 1153.09        2955.00           1289          55.00       210.99
 1153.12        2955.25           1292          49.00       184.83
 1153.15        2955.50           1296          47.00       176.11
 1153.18        2955.75           1299          67.00       263.30
 1153.21        2956.00           1302          51.00       193.55
 1153.25        2956.25           1306          49.00       184.83
 1153.28        2956.50           1309          61.00       237.14
 1153.31        2956.75           1312          52.00       197.91
 1153.34        2957.00           1316          55.00       210.99
 1153.37        2957.25           1319          46.00       171.75
 1153.40        2957.50           1322          50.00       189.19
 1153.43        2957.75           1326          48.00       180.47
 1153.46        2958.00           1329          50.00       189.19
 1153.49        2958.25           1332          45.00       167.39
 1153.52        2958.50           1336          52.00       197.91
 1153.55        2958.75           1339          55.00       210.99
 1153.58        2959.00           1342          48.00       180.47
 1153.61        2959.25           1346          49.00       184.83
 1153.64        2959.50           1349          60.00       232.78
 1153.67        2959.75           1352          73.00       289.45
 1153.70        2960.00           1356          94.00       381.00
 1153.74        2960.25           1359         125.00       516.14
 1153.77        2960.50           1362         155.00       646.92
 1153.80        2960.75           1366         188.00       790.78
 1153.83        2961.00           1369         229.00       969.51
 1153.86        2961.25           1372         278.00      1183.13
 1153.89        2961.50           1376         327.00      1396.75
 1153.92        2961.75           1379         433.00      1858.87
 1153.95        2962.00           1382         813.00      3515.63
 1153.98        2962.25           1386        2164.00      9407.19
 1154.01        2962.50           1389        3372.00     14676.90
 1154.04        2962.75           1392        4608.00     20070.49
 1154.07        2963.00           1396        6252.00     27247.20
 1154.11        2963.25           1399        7396.00     32243.03
 1154.14        2963.50           1402        8697.00     37926.31
 1154.17        2963.75           1406       10542.00     45989.31
 1154.20        2964.00           1409       11692.00     51017.00
 1154.23        2964.25           1412       12834.00     56011.23
 1154.26        2964.50           1416       14615.00     63802.92
 1154.29        2964.75           1419       15848.00     69199.31
 1154.32        2965.00           1422       17151.00     74903.96
 1154.35        2965.25           1426       18851.00     82349.68
 1154.38        2965.50           1429       20185.00     88194.68
 1154.41        2965.75           1432       21352.00     93309.66
 1154.45        2966.00           1436       22911.00    100145.20
 1154.48        2966.25           1439       24097.00    105347.20
 1154.51        2966.50           1442       25218.00    110265.60
 1154.54        2966.75           1446       26537.00    116054.60
 1154.57        2967.00           1449       27055.00    118328.60
 1154.60        2967.25           1452       27318.00    119483.30
 1154.63        2967.50           1456       27193.00    118934.50
 1154.66        2967.75           1459       27322.00    119500.90
 1154.69        2968.00           1462       27154.00    118763.30
 1154.72        2968.25           1466       26560.00    116155.60
 1154.75        2968.50           1469       25473.00    111384.70
 1154.78        2968.75           1472       24325.00    106347.50
 1154.81        2969.00           1476       22754.00     99456.72
 1154.85        2969.25           1479       21409.00     93559.54
 1154.88        2969.50           1482       20221.00     88352.44
 1154.91        2969.75           1486       18637.00     81412.20
 1154.94        2970.00           1489       17177.00     75017.81
 1154.97        2970.25           1492       16117.00     70376.85
 1155.00        2970.50           1496       14427.00     62980.26
 1155.03        2970.75           1499       13230.00     57743.37
 1155.06        2971.00           1502       11868.00     51786.59
 1155.09        2971.25           1506       10127.00     44175.33
 1155.12        2971.50           1509        8849.00     38590.42
 1155.15        2971.75           1513        7340.00     31998.45
 1155.18        2972.00           1516        6087.00     26526.77
 1155.21        2972.25           1519        4900.00     21344.96
 1155.25        2972.50           1523        3187.00     13869.76
 1155.28        2972.75           1526        2027.00      8809.65
 1155.31        2973.00           1529        1039.00      4501.04
 1155.34        2973.25           1533         391.00      1675.76
 1155.37        2973.50           1536         283.00      1204.93
 1155.40        2973.75           1539         232.00       982.59
 1155.43        2974.00           1543         175.00       734.11
 1155.46        2974.25           1546         145.00       603.32
 1155.49        2974.50           1549          98.00       398.44
 1155.52        2974.75           1553          67.00       263.30
 1155.55        2975.00           1556          54.00       206.63
 1155.58        2975.25           1559          63.00       245.86
 1155.61        2975.50           1563          52.00       197.91
 1155.65        2975.75           1566          52.00       197.91
 1155.68        2976.00           1569          51.00       193.55
 1155.71        2976.25           1573          42.00       154.32
 1155.74        2976.50           1576          45.00       167.39
 1155.77        2976.75           1579          47.00       176.11
 1155.80        2977.00           1583          50.00       189.19
 1155.83        2977.25           1586          52.00       197.91
 1155.86        2977.50           1590          46.00       171.75
 1155.89        2977.75           1593          53.00       202.27
 1155.92        2978.00           1596          57.00       219.71
 1155.95        2978.25           1600          46.00       171.75
 1155.98        2978.50           1603          52.00       197.91
 1156.01        2978.75           1606          50.00       189.19
 1156.04        2979.00           1610          50.00       189.19
 1156.07        2979.25           1613          49.00       184.83
 1156.11        2979.50           1616          44.00       163.03
 1156.14        2979.75           1620          44.00       163.03
 1156.17        2980.00           1623          56.00       215.35
 1156.20        2980.25           1626          57.00       219.71
 1156.23        2980.50           1630          42.00       154.32
 1156.26        2980.75           1633          46.00       171.75
 1156.29        2981.00           1637          47.00       176.11
 1156.32        2981.25           1640          42.00       154.32
 1156.35        2981.50           1643          45.00       167.39
 1156.38        2981.75           1647          46.00       171.75
 1156.42        2982.00           1650          52.00       197.91
 1156.45        2982.25           1653          47.00       176.11
 1156.48        2982.50           1657          47.00       176.11
 1156.51        2982.75           1660          49.00       184.83
 1156.54        2983.00           1663          42.00       154.32
 1156.57        2983.25           1667          43.00       158.68
 1156.60        2983.50           1670          49.00       184.83
 1156.63        2983.75           1673          50.00       189.19
 1156.66        2984.00           1677          50.00       189.19
HS scan finished at 19:16:53
end
