************************************************************
  HS Scan of (1) Internal mercury lamp
************************************************************
Integration time is 0.2294 seconds per sample
dh210918Manchester 53.47 2.23 2.804185pr1000
************************************************************
Dead Time -------------------------  3E-08 
Number of Cycles Used -------------  4 
Starting Wavelength (Angstroms) ---  2950 
Final Wavelength (Angstoms) -------  2984 
Wavelength Increment (Angstroms) --  .25 
Filter Wheel #1 Position ---------- (1) Ground quartz diffuser (ND=2.32)
Filter Wheel #2 Position ---------- (1) Neutral Density 0.494



************************************************************
HS scan start time = 02:39:04
Dark Count =  7.9 


Time (GMT)  Wavelength (Ang)  Step Number  Raw Counts  Counts/Second

  159.44        2950.00           1222          51.00       187.88
  159.51        2950.25           1226          52.00       192.24
  159.54        2950.50           1229          49.00       179.16
  159.57        2950.75           1232          53.00       196.60
  159.60        2951.00           1236          47.00       170.45
  159.63        2951.25           1239          46.00       166.09
  159.66        2951.50           1242          56.00       209.68
  159.69        2951.75           1246          54.00       200.96
  159.72        2952.00           1249          58.00       218.40
  159.76        2952.25           1252          50.00       183.52
  159.79        2952.50           1256          50.00       183.52
  159.82        2952.75           1259          52.00       192.24
  159.85        2953.00           1262          56.00       209.68
  159.88        2953.25           1266          48.00       174.80
  159.91        2953.50           1269          49.00       179.16
  159.94        2953.75           1272          58.00       218.40
  159.97        2954.00           1276          54.00       200.96
  160.00        2954.25           1279          56.00       209.68
  160.03        2954.50           1282          57.00       214.04
  160.06        2954.75           1286          47.00       170.45
  160.09        2955.00           1289          49.00       179.16
  160.12        2955.25           1292          51.00       187.88
  160.15        2955.50           1296          54.00       200.96
  160.18        2955.75           1299          50.00       183.52
  160.21        2956.00           1302          45.00       161.73
  160.24        2956.25           1306          52.00       192.24
  160.27        2956.50           1309          49.00       179.16
  160.30        2956.75           1312          44.00       157.37
  160.33        2957.00           1316          45.00       161.73
  160.37        2957.25           1319          44.00       157.37
  160.40        2957.50           1322          48.00       174.80
  160.43        2957.75           1326          54.00       200.96
  160.46        2958.00           1329          59.00       222.76
  160.49        2958.25           1332          47.00       170.45
  160.52        2958.50           1336          50.00       183.52
  160.55        2958.75           1339          50.00       183.52
  160.58        2959.00           1342          53.00       196.60
  160.61        2959.25           1346          51.00       187.88
  160.64        2959.50           1349          57.00       214.04
  160.67        2959.75           1352          57.00       214.04
  160.70        2960.00           1356          83.00       327.38
  160.74        2960.25           1359         106.00       427.64
  160.77        2960.50           1362         132.00       540.99
  160.80        2960.75           1366         169.00       702.28
  160.83        2961.00           1369         197.00       824.34
  160.86        2961.25           1372         238.00      1003.08
  160.89        2961.50           1376         257.00      1085.91
  160.92        2961.75           1379         356.00      1517.51
  160.95        2962.00           1382         567.00      2437.41
  160.98        2962.25           1386        1661.00      7207.75
  161.01        2962.50           1389        2886.00     12550.93
  161.04        2962.75           1392        4009.00     17450.72
  161.07        2963.00           1396        5577.00     24294.51
  161.10        2963.25           1399        6755.00     29437.93
  161.13        2963.50           1402        8062.00     35146.46
  161.16        2963.75           1406        9718.00     42382.10
  161.19        2964.00           1409       10951.00     47771.56
  161.23        2964.25           1412       12255.00     53473.25
  161.26        2964.50           1416       14016.00     61176.26
  161.29        2964.75           1419       15075.00     65810.27
  161.32        2965.00           1422       16380.00     71522.53
  161.35        2965.25           1426       18124.00     79159.43
  161.38        2965.50           1429       19282.00     84232.21
  161.41        2965.75           1432       20451.00     89354.72
  161.44        2966.00           1436       22025.00     96254.44
  161.47        2966.25           1439       23349.00    102060.50
  161.50        2966.50           1442       24299.00    106227.70
  161.53        2966.75           1446       25579.00    111844.10
  161.57        2967.00           1449       26498.00    115877.70
  161.60        2967.25           1452       26548.00    116097.20
  161.63        2967.50           1456       26553.00    116119.20
  161.66        2967.75           1459       26703.00    116777.60
  161.69        2968.00           1462       26474.00    115772.40
  161.72        2968.25           1466       26015.00    113757.70
  161.75        2968.50           1469       25358.00    110874.30
  161.78        2968.75           1472       24082.00    105275.70
  161.81        2969.00           1476       22468.00     98196.87
  161.85        2969.25           1479       21329.00     93203.14
  161.88        2969.50           1482       20042.00     87562.33
  161.91        2969.75           1486       18557.00     81056.06
  161.94        2970.00           1489       17398.00     75979.88
  161.97        2970.25           1492       16192.00     70699.49
  162.00        2970.50           1496       14688.00     64116.67
  162.03        2970.75           1499       13470.00     58787.55
  162.06        2971.00           1502       12108.00     52830.40
  162.09        2971.25           1506       10461.00     45629.55
  162.13        2971.50           1509        9099.00     39677.10
  162.16        2971.75           1513        7507.00     32722.17
  162.19        2972.00           1516        6274.00     27337.59
  162.22        2972.25           1519        5066.00     22063.86
  162.25        2972.50           1523        3560.00     15491.51
  162.28        2972.75           1526        2421.00     10522.50
  162.31        2973.00           1529        1286.00      5572.42
  162.34        2973.25           1533         450.00      1927.31
  162.37        2973.50           1536         295.00      1251.57
  162.40        2973.75           1539         239.00      1007.44
  162.43        2974.00           1543         205.00       859.22
  162.47        2974.25           1546         159.00       658.69
  162.50        2974.50           1549         128.00       523.55
  162.53        2974.75           1553          92.00       366.61
  162.56        2975.00           1556          71.00       275.07
  162.59        2975.25           1559          63.00       240.19
  162.62        2975.50           1563          51.00       187.88
  162.65        2975.75           1566          50.00       183.52
  162.68        2976.00           1569          46.00       166.09
  162.71        2976.25           1573          44.00       157.37
  162.74        2976.50           1576          53.00       196.60
  162.77        2976.75           1579          47.00       170.45
  162.80        2977.00           1583          49.00       179.16
  162.83        2977.25           1586          44.00       157.37
  162.86        2977.50           1590          51.00       187.88
  162.89        2977.75           1593          51.00       187.88
  162.93        2978.00           1596          54.00       200.96
  162.96        2978.25           1600          46.00       166.09
  162.99        2978.50           1603          45.00       161.73
  163.02        2978.75           1606          53.00       196.60
  163.05        2979.00           1610          50.00       183.52
  163.08        2979.25           1613          54.00       200.96
  163.11        2979.50           1616          47.00       170.45
  163.14        2979.75           1620          49.00       179.16
  163.17        2980.00           1623          43.00       153.01
  163.20        2980.25           1626          47.00       170.45
  163.23        2980.50           1630          46.00       166.09
  163.26        2980.75           1633          53.00       196.60
  163.29        2981.00           1637          47.00       170.45
  163.32        2981.25           1640          45.00       161.73
  163.35        2981.50           1643          48.00       174.80
  163.38        2981.75           1647          44.00       157.37
  163.41        2982.00           1650          45.00       161.73
  163.44        2982.25           1653          48.00       174.80
  163.47        2982.50           1657          47.00       170.45
  163.50        2982.75           1660          48.00       174.80
  163.54        2983.00           1663          37.00       126.85
  163.57        2983.25           1667          43.00       153.01
  163.60        2983.50           1670          46.00       166.09
  163.63        2983.75           1673          53.00       196.60
  163.66        2984.00           1677          45.00       161.73
HS scan finished at 02:43:52
end
************************************************************
  HS Scan of (1) Internal mercury lamp
************************************************************
Integration time is 0.2294 seconds per sample
dh210918Manchester 53.47 2.23 2.804185pr1000
************************************************************
Dead Time -------------------------  3E-08 
Number of Cycles Used -------------  4 
Starting Wavelength (Angstroms) ---  2950 
Final Wavelength (Angstoms) -------  2984 
Wavelength Increment (Angstroms) --  .25 
Filter Wheel #1 Position ---------- (1) Ground quartz diffuser (ND=2.32)
Filter Wheel #2 Position ---------- (1) Neutral Density 0.494



************************************************************
HS scan start time = 19:12:01
Dark Count =  6.5 


Time (GMT)  Wavelength (Ang)  Step Number  Raw Counts  Counts/Second

 1152.39        2950.00           1222          54.00       207.06
 1152.45        2950.25           1226          52.00       198.34
 1152.49        2950.50           1229          62.00       241.94
 1152.52        2950.75           1232          48.00       180.91
 1152.55        2951.00           1236          58.00       224.50
 1152.58        2951.25           1239          50.00       189.63
 1152.61        2951.50           1242          55.00       211.42
 1152.64        2951.75           1246          47.00       176.55
 1152.67        2952.00           1249          48.00       180.91
 1152.70        2952.25           1252          53.00       202.70
 1152.73        2952.50           1256          45.00       167.83
 1152.76        2952.75           1259          48.00       180.91
 1152.79        2953.00           1262          51.00       193.99
 1152.82        2953.25           1266          48.00       180.91
 1152.85        2953.50           1269          47.00       176.55
 1152.88        2953.75           1272          53.00       202.70
 1152.91        2954.00           1276          45.00       167.83
 1152.94        2954.25           1279          46.00       172.19
 1152.97        2954.50           1282          50.00       189.63
 1153.01        2954.75           1286          47.00       176.55
 1153.04        2955.00           1289          60.00       233.22
 1153.07        2955.25           1292          55.00       211.42
 1153.10        2955.50           1296          53.00       202.70
 1153.13        2955.75           1299          51.00       193.99
 1153.16        2956.00           1302          46.00       172.19
 1153.19        2956.25           1306          46.00       172.19
 1153.22        2956.50           1309          51.00       193.99
 1153.25        2956.75           1312          50.00       189.63
 1153.28        2957.00           1316          47.00       176.55
 1153.31        2957.25           1319          54.00       207.06
 1153.34        2957.50           1322          44.00       163.47
 1153.37        2957.75           1326          47.00       176.55
 1153.40        2958.00           1329          50.00       189.63
 1153.43        2958.25           1332          52.00       198.34
 1153.46        2958.50           1336          53.00       202.70
 1153.49        2958.75           1339          51.00       193.99
 1153.53        2959.00           1342          47.00       176.55
 1153.56        2959.25           1346          50.00       189.63
 1153.59        2959.50           1349          57.00       220.14
 1153.62        2959.75           1352          65.00       255.02
 1153.65        2960.00           1356          92.00       372.72
 1153.68        2960.25           1359          99.00       403.23
 1153.71        2960.50           1362         143.00       595.04
 1153.74        2960.75           1366         187.00       786.85
 1153.77        2961.00           1369         218.00       922.00
 1153.80        2961.25           1372         242.00      1026.62
 1153.83        2961.50           1376         328.00      1401.54
 1153.86        2961.75           1379         465.00      1998.81
 1153.89        2962.00           1382        1085.00      4702.06
 1153.92        2962.25           1386        2394.00     10410.84
 1153.95        2962.50           1389        3503.00     15248.91
 1153.99        2962.75           1392        4713.00     20529.21
 1154.02        2963.00           1396        6236.00     27177.77
 1154.05        2963.25           1399        7286.00     31763.03
 1154.08        2963.50           1402        8497.00     37052.93
 1154.11        2963.75           1406       10298.00     44923.19
 1154.14        2964.00           1409       11373.00     49622.64
 1154.17        2964.25           1412       12733.00     55569.90
 1154.20        2964.50           1416       14313.00     62481.88
 1154.23        2964.75           1419       15547.00     67882.22
 1154.26        2965.00           1422       16808.00     73402.53
 1154.29        2965.25           1426       18547.00     81018.40
 1154.33        2965.50           1429       19824.00     86613.16
 1154.36        2965.75           1432       20940.00     91504.12
 1154.39        2966.00           1436       22597.00     98768.69
 1154.42        2966.25           1439       23816.00    104115.00
 1154.45        2966.50           1442       24758.00    108247.70
 1154.48        2966.75           1446       25940.00    113434.60
 1154.51        2967.00           1449       26371.00    115326.40
 1154.54        2967.25           1452       26347.00    115221.00
 1154.57        2967.50           1456       26362.00    115286.90
 1154.60        2967.75           1459       26397.00    115440.50
 1154.64        2968.00           1462       26320.00    115102.50
 1154.67        2968.25           1466       25552.00    111731.80
 1154.70        2968.50           1469       24507.00    107146.40
 1154.73        2968.75           1472       23524.00    102834.20
 1154.76        2969.00           1476       21863.00     95550.32
 1154.79        2969.25           1479       20787.00     90833.49
 1154.82        2969.50           1482       19446.00     84956.88
 1154.85        2969.75           1486       17933.00     78329.01
 1154.88        2970.00           1489       16886.00     73744.06
 1154.92        2970.25           1492       15684.00     68481.88
 1154.95        2970.50           1496       13922.00     60771.11
 1154.98        2970.75           1499       12830.00     55994.16
 1155.01        2971.00           1502       11490.00     50134.20
 1155.04        2971.25           1506        9863.00     43021.93
 1155.07        2971.50           1509        8547.00     37271.38
 1155.10        2971.75           1513        6994.00     30487.77
 1155.13        2972.00           1516        5746.00     25038.42
 1155.16        2972.25           1519        4592.00     20001.10
 1155.19        2972.50           1523        3037.00     13215.79
 1155.22        2972.75           1526        1915.00      8321.61
 1155.25        2973.00           1529         949.00      4109.05
 1155.28        2973.25           1533         384.00      1645.68
 1155.32        2973.50           1536         285.00      1214.08
 1155.35        2973.75           1539         239.00      1013.54
 1155.38        2974.00           1543         199.00       839.17
 1155.41        2974.25           1546         163.00       682.23
 1155.44        2974.50           1549         116.00       477.34
 1155.47        2974.75           1553          98.00       398.87
 1155.50        2975.00           1556          68.00       268.09
 1155.53        2975.25           1559          58.00       224.50
 1155.56        2975.50           1563          52.00       198.34
 1155.59        2975.75           1566          52.00       198.34
 1155.62        2976.00           1569          47.00       176.55
 1155.66        2976.25           1573          50.00       189.63
 1155.69        2976.50           1576          45.00       167.83
 1155.72        2976.75           1579          45.00       167.83
 1155.75        2977.00           1583          46.00       172.19
 1155.78        2977.25           1586          48.00       180.91
 1155.81        2977.50           1590          44.00       163.47
 1155.84        2977.75           1593          42.00       154.75
 1155.87        2978.00           1596          47.00       176.55
 1155.90        2978.25           1600          45.00       167.83
 1155.93        2978.50           1603          55.00       211.42
 1155.96        2978.75           1606          52.00       198.34
 1155.99        2979.00           1610          51.00       193.99
 1156.02        2979.25           1613          49.00       185.27
 1156.05        2979.50           1616          42.00       154.75
 1156.08        2979.75           1620          46.00       172.19
 1156.11        2980.00           1623          48.00       180.91
 1156.14        2980.25           1626          44.00       163.47
 1156.17        2980.50           1630          44.00       163.47
 1156.20        2980.75           1633          41.00       150.39
 1156.24        2981.00           1637          49.00       185.27
 1156.27        2981.25           1640          47.00       176.55
 1156.30        2981.50           1643          50.00       189.63
 1156.33        2981.75           1647          48.00       180.91
 1156.36        2982.00           1650          53.00       202.70
 1156.39        2982.25           1653          43.00       159.11
 1156.42        2982.50           1657          43.00       159.11
 1156.45        2982.75           1660          44.00       163.47
 1156.48        2983.00           1663          48.00       180.91
 1156.51        2983.25           1667          42.00       154.75
 1156.54        2983.50           1670          47.00       176.55
 1156.57        2983.75           1673          43.00       159.11
 1156.60        2984.00           1677          48.00       180.91
HS scan finished at 19:16:49
end
