************************************************************
  HS Scan of (1) Internal mercury lamp
************************************************************
Integration time is 0.2294 seconds per sample
dh200917Manchester 53.47 2.23 2.804185pr1000
************************************************************
Dead Time -------------------------  3E-08 
Number of Cycles Used -------------  4 
Starting Wavelength (Angstroms) ---  2950 
Final Wavelength (Angstoms) -------  2984 
Wavelength Increment (Angstroms) --  .25 
Filter Wheel #1 Position ---------- (1) Ground quartz diffuser (ND=2.32)
Filter Wheel #2 Position ---------- (1) Neutral Density 0.494



************************************************************
HS scan start time = 02:36:09
Dark Count =  7.3 


Time (GMT)  Wavelength (Ang)  Step Number  Raw Counts  Counts/Second

  156.52        2950.00           1222          74.00       290.76
  156.58        2950.25           1226          78.00       308.20
  156.61        2950.50           1229          70.00       273.32
  156.64        2950.75           1232          75.00       295.12
  156.68        2951.00           1236          81.00       321.28
  156.71        2951.25           1239         120.00       491.29
  156.74        2951.50           1242          77.00       303.84
  156.77        2951.75           1246          72.00       282.04
  156.80        2952.00           1249          76.00       299.48
  156.83        2952.25           1252          76.00       299.48
  156.86        2952.50           1256          82.00       325.64
  156.89        2952.75           1259          70.00       273.32
  156.92        2953.00           1262          71.00       277.68
  156.95        2953.25           1266          75.00       295.12
  156.98        2953.50           1269          68.00       264.61
  157.02        2953.75           1272          71.00       277.68
  157.05        2954.00           1276          76.00       299.48
  157.08        2954.25           1279          77.00       303.84
  157.11        2954.50           1282          72.00       282.04
  157.14        2954.75           1286          67.00       260.25
  157.17        2955.00           1289          78.00       308.20
  157.20        2955.25           1292          78.00       308.20
  157.23        2955.50           1296          78.00       308.20
  157.26        2955.75           1299          79.00       312.56
  157.29        2956.00           1302          75.00       295.12
  157.32        2956.25           1306          78.00       308.20
  157.35        2956.50           1309          68.00       264.61
  157.38        2956.75           1312          78.00       308.20
  157.42        2957.00           1316          67.00       260.25
  157.45        2957.25           1319          80.00       316.92
  157.48        2957.50           1322          71.00       277.68
  157.51        2957.75           1326          75.00       295.12
  157.54        2958.00           1329          68.00       264.61
  157.57        2958.25           1332          73.00       286.40
  157.60        2958.50           1336          73.00       286.40
  157.63        2958.75           1339          66.00       255.89
  157.66        2959.00           1342          78.00       308.20
  157.69        2959.25           1346          74.00       290.76
  157.73        2959.50           1349          77.00       303.84
  157.76        2959.75           1352          95.00       382.31
  157.79        2960.00           1356         110.00       447.70
  157.82        2960.25           1359         142.00       587.19
  157.85        2960.50           1362         170.00       709.26
  157.88        2960.75           1366         247.00      1044.93
  157.91        2961.00           1369         284.00      1206.23
  157.94        2961.25           1372         304.00      1293.42
  157.97        2961.50           1376         372.00      1589.88
  158.00        2961.75           1379         488.00      2095.60
  158.04        2962.00           1382         818.00      3534.38
  158.07        2962.25           1386        2255.00      9801.05
  158.10        2962.50           1389        3695.00     16083.17
  158.13        2962.75           1392        5161.00     22481.16
  158.16        2963.00           1396        7190.00     31340.27
  158.19        2963.25           1399        8630.00     37630.52
  158.22        2963.50           1402       10174.00     44377.70
  158.25        2963.75           1406       12448.00     54319.92
  158.28        2964.00           1409       13975.00     60999.50
  158.31        2964.25           1412       15736.00     68705.99
  158.34        2964.50           1416       17902.00     78189.74
  158.37        2964.75           1419       19703.00     86079.46
  158.40        2965.00           1422       21265.00     92925.22
  158.43        2965.25           1426       23248.00    101620.20
  158.47        2965.50           1429       24922.00    108963.70
  158.50        2965.75           1432       26536.00    116047.20
  158.53        2966.00           1436       28657.00    125360.30
  158.56        2966.25           1439       29993.00    131229.20
  158.59        2966.50           1442       31762.00    139003.50
  158.62        2966.75           1446       33617.00    147159.60
  158.65        2967.00           1449       34417.00    150678.30
  158.68        2967.25           1452       34381.00    150519.90
  158.71        2967.50           1456       34234.00    149873.30
  158.74        2967.75           1459       34325.00    150273.60
  158.77        2968.00           1462       34276.00    150058.10
  158.80        2968.25           1466       33731.00    147661.00
  158.84        2968.50           1469       32698.00    143118.40
  158.87        2968.75           1472       31262.00    136805.80
  158.90        2969.00           1476       29434.00    128773.30
  158.93        2969.25           1479       27783.00    121522.00
  158.96        2969.50           1482       26331.00    115147.30
  158.99        2969.75           1486       24241.00    105975.90
  159.02        2970.00           1489       22579.00     98686.24
  159.05        2970.25           1492       20763.00     90724.80
  159.08        2970.50           1496       18933.00     82705.81
  159.11        2970.75           1499       17284.00     75483.30
  159.14        2971.00           1502       15571.00     67983.76
  159.18        2971.25           1506       13399.00     58479.58
  159.21        2971.50           1509       11795.00     51464.32
  159.24        2971.75           1513        9779.00     42651.32
  159.27        2972.00           1516        8235.00     35904.83
  159.30        2972.25           1519        6729.00     29327.02
  159.33        2972.50           1523        4761.00     20735.22
  159.36        2972.75           1526        3285.00     14294.27
  159.39        2973.00           1529        1948.00      8462.04
  159.43        2973.25           1533         657.00      2832.41
  159.46        2973.50           1536         382.00      1633.47
  159.49        2973.75           1539         311.00      1323.94
  159.52        2974.00           1543         246.00      1040.57
  159.55        2974.25           1546         193.00       809.52
  159.58        2974.50           1549         167.00       696.18
  159.61        2974.75           1553         123.00       504.37
  159.64        2975.00           1556          90.00       360.51
  159.67        2975.25           1559          74.00       290.76
  159.70        2975.50           1563          72.00       282.04
  159.73        2975.75           1566          75.00       295.12
  159.77        2976.00           1569          74.00       290.76
  159.80        2976.25           1573          70.00       273.32
  159.83        2976.50           1576          68.00       264.61
  159.86        2976.75           1579          69.00       268.96
  159.89        2977.00           1583          68.00       264.61
  159.92        2977.25           1586          68.00       264.61
  159.95        2977.50           1590          62.00       238.45
  159.98        2977.75           1593          71.00       277.68
  160.01        2978.00           1596          71.00       277.68
  160.04        2978.25           1600          66.00       255.89
  160.07        2978.50           1603          62.00       238.45
  160.11        2978.75           1606          66.00       255.89
  160.14        2979.00           1610          68.00       264.61
  160.17        2979.25           1613          66.00       255.89
  160.20        2979.50           1616          66.00       255.89
  160.23        2979.75           1620          68.00       264.61
  160.26        2980.00           1623          63.00       242.81
  160.29        2980.25           1626          74.00       290.76
  160.32        2980.50           1630          63.00       242.81
  160.35        2980.75           1633          69.00       268.96
  160.38        2981.00           1637          69.00       268.96
  160.41        2981.25           1640          60.00       229.73
  160.45        2981.50           1643          65.00       251.53
  160.48        2981.75           1647          64.00       247.17
  160.51        2982.00           1650          58.00       221.01
  160.54        2982.25           1653          70.00       273.32
  160.57        2982.50           1657          65.00       251.53
  160.60        2982.75           1660          70.00       273.32
  160.63        2983.00           1663          79.00       312.56
  160.66        2983.25           1667          68.00       264.61
  160.69        2983.50           1670          59.00       225.37
  160.72        2983.75           1673          58.00       221.01
  160.75        2984.00           1677          71.00       277.68
HS scan finished at 02:40:58
end
************************************************************
  HS Scan of (1) Internal mercury lamp
************************************************************
Integration time is 0.2294 seconds per sample
dh200917Manchester 53.47 2.23 2.911481pr1000
************************************************************
Dead Time -------------------------  3E-08 
Number of Cycles Used -------------  4 
Starting Wavelength (Angstroms) ---  2950 
Final Wavelength (Angstoms) -------  2984 
Wavelength Increment (Angstroms) --  .25 
Filter Wheel #1 Position ---------- (1) Ground quartz diffuser (ND=2.32)
Filter Wheel #2 Position ---------- (1) Neutral Density 0.494



************************************************************
HS scan start time = 19:11:58
Dark Count =  6.7 


Time (GMT)  Wavelength (Ang)  Step Number  Raw Counts  Counts/Second

 1152.33        2950.00           1222          66.00       258.50
 1152.40        2950.25           1226          71.00       280.30
 1152.43        2950.50           1229          68.00       267.22
 1152.46        2950.75           1232          76.00       302.10
 1152.49        2951.00           1236          69.00       271.58
 1152.52        2951.25           1239          69.00       271.58
 1152.56        2951.50           1242          70.00       275.94
 1152.59        2951.75           1246          66.00       258.50
 1152.62        2952.00           1249          84.00       336.97
 1152.65        2952.25           1252          71.00       280.30
 1152.68        2952.50           1256          76.00       302.10
 1152.71        2952.75           1259          79.00       315.17
 1152.74        2953.00           1262          66.00       258.50
 1152.77        2953.25           1266          72.00       284.66
 1152.80        2953.50           1269          73.00       289.02
 1152.83        2953.75           1272          79.00       315.17
 1152.86        2954.00           1276          81.00       323.89
 1152.89        2954.25           1279          72.00       284.66
 1152.93        2954.50           1282          74.00       293.38
 1152.96        2954.75           1286          81.00       323.89
 1152.99        2955.00           1289          75.00       297.74
 1153.02        2955.25           1292          66.00       258.50
 1153.05        2955.50           1296          68.00       267.22
 1153.08        2955.75           1299          71.00       280.30
 1153.11        2956.00           1302          68.00       267.22
 1153.14        2956.25           1306          75.00       297.74
 1153.17        2956.50           1309          76.00       302.10
 1153.20        2956.75           1312          70.00       275.94
 1153.24        2957.00           1316          76.00       302.10
 1153.27        2957.25           1319          68.00       267.22
 1153.30        2957.50           1322          79.00       315.17
 1153.33        2957.75           1326          72.00       284.66
 1153.36        2958.00           1329          70.00       275.94
 1153.39        2958.25           1332          66.00       258.50
 1153.42        2958.50           1336          69.00       271.58
 1153.45        2958.75           1339          77.00       306.45
 1153.48        2959.00           1342          67.00       262.86
 1153.51        2959.25           1346          86.00       345.69
 1153.54        2959.50           1349          85.00       341.33
 1153.57        2959.75           1352          99.00       402.36
 1153.61        2960.00           1356         141.00       585.45
 1153.64        2960.25           1359         186.00       781.62
 1153.67        2960.50           1362         200.00       842.65
 1153.70        2960.75           1366         247.00      1047.55
 1153.73        2961.00           1369         291.00      1239.37
 1153.76        2961.25           1372         334.00      1426.83
 1153.79        2961.50           1376         437.00      1875.87
 1153.82        2961.75           1379         658.00      2839.39
 1153.85        2962.00           1382        1412.00      6127.11
 1153.88        2962.25           1386        3338.00     14528.13
 1153.91        2962.50           1389        4876.00     21239.77
 1153.95        2962.75           1392        6449.00     28106.95
 1153.98        2963.00           1396        8580.00     37414.68
 1154.01        2963.25           1399       10243.00     44681.91
 1154.04        2963.50           1402       12056.00     52608.25
 1154.07        2963.75           1406       14187.00     61929.69
 1154.10        2964.00           1409       15685.00     68485.38
 1154.13        2964.25           1412       17614.00     76931.06
 1154.16        2964.50           1416       19848.00     86717.47
 1154.19        2964.75           1419       21535.00     94111.46
 1154.23        2965.00           1422       23010.00    100579.00
 1154.26        2965.25           1426       25312.00    110677.70
 1154.29        2965.50           1429       26731.00    116905.80
 1154.32        2965.75           1432       28071.00    122789.30
 1154.35        2966.00           1436       30540.00    133635.40
 1154.38        2966.25           1439       32069.00    140355.70
 1154.41        2966.50           1442       33522.00    146744.40
 1154.44        2966.75           1446       35012.00    153298.40
 1154.47        2967.00           1449       35410.00    155049.50
 1154.51        2967.25           1452       35449.00    155221.10
 1154.54        2967.50           1456       35321.00    154657.90
 1154.57        2967.75           1459       35401.00    155009.90
 1154.60        2968.00           1462       35244.00    154319.20
 1154.63        2968.25           1466       34291.00    150126.70
 1154.66        2968.50           1469       32556.00    142496.70
 1154.69        2968.75           1472       31224.00    136641.40
 1154.72        2969.00           1476       29114.00    127370.30
 1154.75        2969.25           1479       27452.00    120071.20
 1154.78        2969.50           1482       25664.00    112222.40
 1154.81        2969.75           1486       23456.00    102535.10
 1154.85        2970.00           1489       21701.00     94839.21
 1154.88        2970.25           1492       20112.00     87874.33
 1154.91        2970.50           1496       18080.00     78971.98
 1154.94        2970.75           1499       16390.00     71571.56
 1154.97        2971.00           1502       14811.00     64660.18
 1155.00        2971.25           1506       12667.00     55280.35
 1155.03        2971.50           1509       10955.00     47794.29
 1155.06        2971.75           1513        8775.00     38266.66
 1155.09        2972.00           1516        7276.00     31718.49
 1155.12        2972.25           1519        5528.00     24085.84
 1155.16        2972.50           1523        3492.00     15200.04
 1155.19        2972.75           1526        1949.00      8469.02
 1155.22        2973.00           1529         836.00      3615.47
 1155.25        2973.25           1533         438.00      1880.23
 1155.28        2973.50           1536         353.00      1509.66
 1155.31        2973.75           1539         317.00      1352.71
 1155.34        2974.00           1543         267.00      1134.74
 1155.37        2974.25           1546         197.00       829.58
 1155.40        2974.50           1549         158.00       659.56
 1155.43        2974.75           1553         100.00       406.72
 1155.46        2975.00           1556          93.00       376.20
 1155.50        2975.25           1559          80.00       319.53
 1155.53        2975.50           1563          68.00       267.22
 1155.56        2975.75           1566          68.00       267.22
 1155.59        2976.00           1569          62.00       241.07
 1155.62        2976.25           1573          69.00       271.58
 1155.65        2976.50           1576          68.00       267.22
 1155.68        2976.75           1579          65.00       254.14
 1155.71        2977.00           1583          69.00       271.58
 1155.74        2977.25           1586          71.00       280.30
 1155.77        2977.50           1590          66.00       258.50
 1155.80        2977.75           1593          76.00       302.10
 1155.83        2978.00           1596          69.00       271.58
 1155.86        2978.25           1600          72.00       284.66
 1155.89        2978.50           1603          62.00       241.07
 1155.92        2978.75           1606          70.00       275.94
 1155.96        2979.00           1610          61.00       236.71
 1155.99        2979.25           1613          66.00       258.50
 1156.02        2979.50           1616          68.00       267.22
 1156.05        2979.75           1620          66.00       258.50
 1156.08        2980.00           1623          73.00       289.02
 1156.11        2980.25           1626          64.00       249.78
 1156.14        2980.50           1630          68.00       267.22
 1156.17        2980.75           1633          71.00       280.30
 1156.20        2981.00           1637          70.00       275.94
 1156.23        2981.25           1640          68.00       267.22
 1156.26        2981.50           1643          65.00       254.14
 1156.29        2981.75           1647          65.00       254.14
 1156.32        2982.00           1650          66.00       258.50
 1156.36        2982.25           1653          71.00       280.30
 1156.39        2982.50           1657          72.00       284.66
 1156.42        2982.75           1660          78.00       310.81
 1156.45        2983.00           1663          71.00       280.30
 1156.48        2983.25           1667          68.00       267.22
 1156.51        2983.50           1670          64.00       249.78
 1156.54        2983.75           1673          68.00       267.22
 1156.57        2984.00           1677          66.00       258.50
HS scan finished at 19:16:47
end
