************************************************************
  HS Scan of (1) Internal mercury lamp
************************************************************
Integration time is 0.2294 seconds per sample
dh240918Manchester 53.47 2.23 2.804185pr1000
************************************************************
Dead Time -------------------------  3E-08 
Number of Cycles Used -------------  4 
Starting Wavelength (Angstroms) ---  2950 
Final Wavelength (Angstoms) -------  2984 
Wavelength Increment (Angstroms) --  .25 
Filter Wheel #1 Position ---------- (1) Ground quartz diffuser (ND=2.32)
Filter Wheel #2 Position ---------- (1) Neutral Density 0.494



************************************************************
HS scan start time = 02:49:53
Dark Count =  7.6 


Time (GMT)  Wavelength (Ang)  Step Number  Raw Counts  Counts/Second

  170.25        2950.00           1222          45.00       163.03
  170.32        2950.25           1226          53.00       197.91
  170.35        2950.50           1229          50.00       184.83
  170.38        2950.75           1232          50.00       184.83
  170.41        2951.00           1236          47.00       171.75
  170.44        2951.25           1239          57.00       215.35
  170.47        2951.50           1242          60.00       228.42
  170.50        2951.75           1246          53.00       197.91
  170.53        2952.00           1249          44.00       158.68
  170.56        2952.25           1252          47.00       171.75
  170.59        2952.50           1256          52.00       193.55
  170.62        2952.75           1259          47.00       171.75
  170.65        2953.00           1262          54.00       202.27
  170.68        2953.25           1266          43.00       154.32
  170.72        2953.50           1269          55.00       206.63
  170.75        2953.75           1272          49.00       180.47
  170.78        2954.00           1276          50.00       184.83
  170.81        2954.25           1279          57.00       215.35
  170.84        2954.50           1282          56.00       210.99
  170.87        2954.75           1286          47.00       171.75
  170.90        2955.00           1289          55.00       206.63
  170.93        2955.25           1292          55.00       206.63
  170.96        2955.50           1296          52.00       193.55
  170.99        2955.75           1299          48.00       176.11
  171.02        2956.00           1302          50.00       184.83
  171.05        2956.25           1306          51.00       189.19
  171.09        2956.50           1309          56.00       210.99
  171.12        2956.75           1312          49.00       180.47
  171.15        2957.00           1316          42.00       149.96
  171.18        2957.25           1319          49.00       180.47
  171.21        2957.50           1322          56.00       210.99
  171.24        2957.75           1326          59.00       224.06
  171.27        2958.00           1329          50.00       184.83
  171.30        2958.25           1332          54.00       202.27
  171.33        2958.50           1336          50.00       184.83
  171.36        2958.75           1339          53.00       197.91
  171.39        2959.00           1342          47.00       171.75
  171.42        2959.25           1346          53.00       197.91
  171.45        2959.50           1349          62.00       237.14
  171.48        2959.75           1352          64.00       245.86
  171.51        2960.00           1356          81.00       319.97
  171.55        2960.25           1359          93.00       372.28
  171.58        2960.50           1362         121.00       494.34
  171.61        2960.75           1366         168.00       699.23
  171.64        2961.00           1369         226.00       952.08
  171.67        2961.25           1372         230.00       969.51
  171.70        2961.50           1376         282.00      1196.21
  171.73        2961.75           1379         383.00      1636.52
  171.76        2962.00           1382         808.00      3489.47
  171.79        2962.25           1386        2094.00      9097.51
  171.82        2962.50           1389        3358.00     14611.46
  171.85        2962.75           1392        4406.00     19184.53
  171.89        2963.00           1396        5963.00     25981.01
  171.92        2963.25           1399        7161.00     31212.30
  171.95        2963.50           1402        8322.00     36283.59
  171.98        2963.75           1406       10126.00     44166.59
  172.01        2964.00           1409       11205.00     48883.33
  172.04        2964.25           1412       12465.00     54392.96
  172.07        2964.50           1416       14150.00     61763.87
  172.10        2964.75           1419       15175.00     66249.25
  172.13        2965.00           1422       16667.00     72780.36
  172.16        2965.25           1426       18303.00     79944.78
  172.19        2965.50           1429       19356.00     84557.74
  172.23        2965.75           1432       20588.00     89956.48
  172.26        2966.00           1436       22148.00     96795.06
  172.29        2966.25           1439       23250.00    101627.60
  172.32        2966.50           1442       24343.00    106422.10
  172.35        2966.75           1446       25586.00    111876.20
  172.38        2967.00           1449       25923.00    113355.20
  172.41        2967.25           1452       26210.00    114614.90
  172.44        2967.50           1456       26205.00    114592.90
  172.47        2967.75           1459       26123.00    114233.00
  172.50        2968.00           1462       26022.00    113789.70
  172.54        2968.25           1466       25416.00    111130.10
  172.57        2968.50           1469       24322.00    106329.90
  172.60        2968.75           1472       23284.00    101776.70
  172.63        2969.00           1476       21656.00     94637.97
  172.66        2969.25           1479       20430.00     89264.01
  172.69        2969.50           1482       19246.00     84075.80
  172.72        2969.75           1486       17696.00     77286.23
  172.75        2970.00           1489       16426.00     71725.23
  172.78        2970.25           1492       15260.00     66621.26
  172.81        2970.50           1496       13769.00     60096.92
  172.84        2970.75           1499       12638.00     55149.59
  172.87        2971.00           1502       11259.00     49119.41
  172.90        2971.25           1506        9540.00     41605.52
  172.93        2971.50           1509        8425.00     36733.57
  172.97        2971.75           1513        6756.00     29443.61
  173.00        2972.00           1516        5654.00     24631.97
  173.03        2972.25           1519        4434.00     19306.73
  173.06        2972.50           1523        2836.00     12334.12
  173.09        2972.75           1526        1772.00      7693.14
  173.12        2973.00           1529         890.00      3847.00
  173.15        2973.25           1533         373.00      1592.93
  173.18        2973.50           1536         271.00      1148.25
  173.21        2973.75           1539         244.00      1030.55
  173.24        2974.00           1543         193.00       808.21
  173.27        2974.25           1546         159.00       660.00
  173.30        2974.50           1549         126.00       516.14
  173.33        2974.75           1553          95.00       381.00
  173.36        2975.00           1556          67.00       258.94
  173.40        2975.25           1559          57.00       215.35
  173.43        2975.50           1563          55.00       206.63
  173.46        2975.75           1566          47.00       171.75
  173.49        2976.00           1569          55.00       206.63
  173.52        2976.25           1573          52.00       193.55
  173.55        2976.50           1576          48.00       176.11
  173.58        2976.75           1579          44.00       158.68
  173.61        2977.00           1583          44.00       158.68
  173.64        2977.25           1586          42.00       149.96
  173.67        2977.50           1590          51.00       189.19
  173.70        2977.75           1593          46.00       167.39
  173.73        2978.00           1596          46.00       167.39
  173.76        2978.25           1600          50.00       184.83
  173.79        2978.50           1603          50.00       184.83
  173.83        2978.75           1606          48.00       176.11
  173.86        2979.00           1610          51.00       189.19
  173.89        2979.25           1613          43.00       154.32
  173.92        2979.50           1616          48.00       176.11
  173.95        2979.75           1620          43.00       154.32
  173.98        2980.00           1623          43.00       154.32
  174.01        2980.25           1626          45.00       163.03
  174.04        2980.50           1630          47.00       171.75
  174.07        2980.75           1633          43.00       154.32
  174.10        2981.00           1637          45.00       163.03
  174.13        2981.25           1640          50.00       184.83
  174.16        2981.50           1643          46.00       167.39
  174.20        2981.75           1647          43.00       154.32
  174.23        2982.00           1650          43.00       154.32
  174.26        2982.25           1653          47.00       171.75
  174.29        2982.50           1657          44.00       158.68
  174.32        2982.75           1660          50.00       184.83
  174.35        2983.00           1663          38.00       132.52
  174.38        2983.25           1667          47.00       171.75
  174.41        2983.50           1670          45.00       163.03
  174.44        2983.75           1673          53.00       197.91
  174.47        2984.00           1677          44.00       158.68
HS scan finished at 02:54:41
end
************************************************************
  HS Scan of (1) Internal mercury lamp
************************************************************
Integration time is 0.2294 seconds per sample
dh240918Manchester 53.47 2.23 2.804185pr1000
************************************************************
Dead Time -------------------------  3E-08 
Number of Cycles Used -------------  4 
Starting Wavelength (Angstroms) ---  2950 
Final Wavelength (Angstoms) -------  2984 
Wavelength Increment (Angstroms) --  .25 
Filter Wheel #1 Position ---------- (1) Ground quartz diffuser (ND=2.32)
Filter Wheel #2 Position ---------- (1) Neutral Density 0.494



************************************************************
HS scan start time = 19:12:03
Dark Count =  7.5 


Time (GMT)  Wavelength (Ang)  Step Number  Raw Counts  Counts/Second

 1152.42        2950.00           1222          55.00       207.06
 1152.48        2950.25           1226          55.00       207.06
 1152.51        2950.50           1229          55.00       207.06
 1152.54        2950.75           1232          58.00       220.14
 1152.57        2951.00           1236          57.00       215.78
 1152.60        2951.25           1239          47.00       172.19
 1152.64        2951.50           1242          55.00       207.06
 1152.67        2951.75           1246          48.00       176.55
 1152.70        2952.00           1249          53.00       198.34
 1152.73        2952.25           1252          49.00       180.91
 1152.76        2952.50           1256          55.00       207.06
 1152.79        2952.75           1259          50.00       185.27
 1152.82        2953.00           1262          53.00       198.34
 1152.85        2953.25           1266          52.00       193.99
 1152.88        2953.50           1269          59.00       224.50
 1152.91        2953.75           1272          50.00       185.27
 1152.94        2954.00           1276          51.00       189.63
 1152.97        2954.25           1279          50.00       185.27
 1153.00        2954.50           1282          51.00       189.63
 1153.03        2954.75           1286          45.00       163.47
 1153.06        2955.00           1289          55.00       207.06
 1153.10        2955.25           1292          54.00       202.70
 1153.13        2955.50           1296          54.00       202.70
 1153.16        2955.75           1299          50.00       185.27
 1153.19        2956.00           1302          53.00       198.34
 1153.22        2956.25           1306          46.00       167.83
 1153.25        2956.50           1309          50.00       185.27
 1153.28        2956.75           1312          48.00       176.55
 1153.31        2957.00           1316          50.00       185.27
 1153.34        2957.25           1319          49.00       180.91
 1153.37        2957.50           1322          57.00       215.78
 1153.40        2957.75           1326          50.00       185.27
 1153.43        2958.00           1329          53.00       198.34
 1153.47        2958.25           1332          43.00       154.75
 1153.50        2958.50           1336          54.00       202.70
 1153.53        2958.75           1339          53.00       198.34
 1153.56        2959.00           1342          45.00       163.47
 1153.59        2959.25           1346          53.00       198.34
 1153.62        2959.50           1349          50.00       185.27
 1153.65        2959.75           1352          66.00       255.02
 1153.68        2960.00           1356          96.00       385.79
 1153.71        2960.25           1359          95.00       381.43
 1153.74        2960.50           1362         141.00       581.96
 1153.77        2960.75           1366         182.00       760.70
 1153.80        2961.00           1369         200.00       839.17
 1153.84        2961.25           1372         250.00      1057.14
 1153.87        2961.50           1376         300.00      1275.11
 1153.90        2961.75           1379         426.00      1824.42
 1153.93        2962.00           1382         960.00      4152.65
 1153.96        2962.25           1386        2380.00     10345.41
 1153.99        2962.50           1389        3509.00     15270.73
 1154.02        2962.75           1392        4662.00     20302.25
 1154.05        2963.00           1396        6205.00     27038.05
 1154.08        2963.25           1399        7417.00     32330.82
 1154.11        2963.50           1402        8695.00     37913.63
 1154.14        2963.75           1406       10238.00     44656.57
 1154.17        2964.00           1409       11532.00     50313.46
 1154.20        2964.25           1412       12913.00     56352.82
 1154.24        2964.50           1416       14753.00     64402.87
 1154.27        2964.75           1419       15951.00     69646.24
 1154.30        2965.00           1422       17293.00     75521.83
 1154.33        2965.25           1426       18900.00     82560.38
 1154.36        2965.50           1429       20003.00     87393.18
 1154.39        2965.75           1432       21346.00     93279.41
 1154.42        2966.00           1436       22976.00    100426.30
 1154.45        2966.25           1439       24035.00    105071.30
 1154.48        2966.50           1442       25259.00    110441.60
 1154.52        2966.75           1446       26377.00    115348.40
 1154.55        2967.00           1449       26495.00    115866.30
 1154.58        2967.25           1452       26718.00    116845.20
 1154.61        2967.50           1456       26698.00    116757.40
 1154.64        2967.75           1459       26806.00    117231.50
 1154.67        2968.00           1462       26542.00    116072.60
 1154.70        2968.25           1466       25764.00    112657.80
 1154.73        2968.50           1469       24827.00    108546.00
 1154.76        2968.75           1472       23920.00    104566.80
 1154.80        2969.00           1476       22229.00     97150.65
 1154.83        2969.25           1479       21060.00     92025.72
 1154.86        2969.50           1482       19814.00     86564.97
 1154.89        2969.75           1486       18165.00     79340.77
 1154.92        2970.00           1489       16971.00     74111.85
 1154.95        2970.25           1492       15712.00     68600.06
 1154.98        2970.50           1496       14052.00     61335.52
 1155.01        2970.75           1499       12865.00     56142.87
 1155.05        2971.00           1502       11541.00     50352.82
 1155.08        2971.25           1506        9932.00     43319.12
 1155.11        2971.50           1509        8621.00     37590.32
 1155.14        2971.75           1513        7055.00     30749.80
 1155.17        2972.00           1516        5896.00     25688.93
 1155.20        2972.25           1519        4703.00     20481.20
 1155.23        2972.50           1523        3149.00     13700.05
 1155.26        2972.75           1526        1962.00      8522.23
 1155.29        2973.00           1529         978.00      4231.14
 1155.32        2973.25           1533         381.00      1628.24
 1155.36        2973.50           1536         283.00      1201.00
 1155.39        2973.75           1539         235.00       991.75
 1155.42        2974.00           1543         195.00       817.37
 1155.45        2974.25           1546         153.00       634.28
 1155.48        2974.50           1549         119.00       486.06
 1155.51        2974.75           1553          90.00       359.64
 1155.54        2975.00           1556          69.00       268.09
 1155.57        2975.25           1559          52.00       193.99
 1155.60        2975.50           1563          51.00       189.63
 1155.63        2975.75           1566          53.00       198.34
 1155.67        2976.00           1569          53.00       198.34
 1155.70        2976.25           1573          43.00       154.75
 1155.73        2976.50           1576          45.00       163.47
 1155.76        2976.75           1579          53.00       198.34
 1155.79        2977.00           1583          55.00       207.06
 1155.82        2977.25           1586          46.00       167.83
 1155.85        2977.50           1590          43.00       154.75
 1155.88        2977.75           1593          46.00       167.83
 1155.91        2978.00           1596          55.00       207.06
 1155.94        2978.25           1600          50.00       185.27
 1155.97        2978.50           1603          46.00       167.83
 1156.00        2978.75           1606          57.00       215.78
 1156.04        2979.00           1610          47.00       172.19
 1156.07        2979.25           1613          43.00       154.75
 1156.10        2979.50           1616          45.00       163.47
 1156.13        2979.75           1620          48.00       176.55
 1156.16        2980.00           1623          56.00       211.42
 1156.19        2980.25           1626          51.00       189.63
 1156.22        2980.50           1630          47.00       172.19
 1156.25        2980.75           1633          41.00       146.03
 1156.28        2981.00           1637          45.00       163.47
 1156.31        2981.25           1640          47.00       172.19
 1156.35        2981.50           1643          48.00       176.55
 1156.38        2981.75           1647          43.00       154.75
 1156.41        2982.00           1650          49.00       180.91
 1156.44        2982.25           1653          49.00       180.91
 1156.47        2982.50           1657          45.00       163.47
 1156.50        2982.75           1660          44.00       159.11
 1156.53        2983.00           1663          43.00       154.75
 1156.56        2983.25           1667          43.00       154.75
 1156.59        2983.50           1670          45.00       163.47
 1156.62        2983.75           1673          51.00       189.63
 1156.65        2984.00           1677          47.00       172.19
HS scan finished at 19:16:52
end
