************************************************************
  HS Scan of (1) Internal mercury lamp
************************************************************
Integration time is 0.2294 seconds per sample
dh230918Manchester 53.47 2.23 2.804185pr1000
************************************************************
Dead Time -------------------------  3E-08 
Number of Cycles Used -------------  4 
Starting Wavelength (Angstroms) ---  2950 
Final Wavelength (Angstoms) -------  2984 
Wavelength Increment (Angstroms) --  .25 
Filter Wheel #1 Position ---------- (1) Ground quartz diffuser (ND=2.32)
Filter Wheel #2 Position ---------- (1) Neutral Density 0.494



************************************************************
HS scan start time = 02:46:19
Dark Count =  4.8 


Time (GMT)  Wavelength (Ang)  Step Number  Raw Counts  Counts/Second

  166.68        2950.00           1222          50.00       197.04
  166.75        2950.25           1226          54.00       214.47
  166.78        2950.50           1229          53.00       210.11
  166.81        2950.75           1232          49.00       192.68
  166.84        2951.00           1236          43.00       166.52
  166.87        2951.25           1239          61.00       244.99
  166.90        2951.50           1242          58.00       231.91
  166.93        2951.75           1246          43.00       166.52
  166.96        2952.00           1249          61.00       244.99
  166.99        2952.25           1252          50.00       197.04
  167.03        2952.50           1256          55.00       218.83
  167.06        2952.75           1259          44.00       170.88
  167.09        2953.00           1262          52.00       205.76
  167.12        2953.25           1266          51.00       201.40
  167.15        2953.50           1269          53.00       210.11
  167.18        2953.75           1272          47.00       183.96
  167.21        2954.00           1276          55.00       218.83
  167.24        2954.25           1279          56.00       223.19
  167.27        2954.50           1282          47.00       183.96
  167.30        2954.75           1286          47.00       183.96
  167.33        2955.00           1289          51.00       201.40
  167.36        2955.25           1292          51.00       201.40
  167.39        2955.50           1296          56.00       223.19
  167.42        2955.75           1299          46.00       179.60
  167.46        2956.00           1302          43.00       166.52
  167.49        2956.25           1306          54.00       214.47
  167.52        2956.50           1309          50.00       197.04
  167.55        2956.75           1312          55.00       218.83
  167.58        2957.00           1316          46.00       179.60
  167.61        2957.25           1319          48.00       188.32
  167.64        2957.50           1322          53.00       210.11
  167.67        2957.75           1326          49.00       192.68
  167.70        2958.00           1329          48.00       188.32
  167.73        2958.25           1332          52.00       205.76
  167.76        2958.50           1336          57.00       227.55
  167.79        2958.75           1339          60.00       240.63
  167.82        2959.00           1342          54.00       214.47
  167.85        2959.25           1346          59.00       236.27
  167.89        2959.50           1349          59.00       236.27
  167.92        2959.75           1352          72.00       292.94
  167.95        2960.00           1356          91.00       375.77
  167.98        2960.25           1359         133.00       558.86
  168.01        2960.50           1362         139.00       585.01
  168.04        2960.75           1366         195.00       829.14
  168.07        2961.00           1369         208.00       885.81
  168.10        2961.25           1372         246.00      1051.47
  168.13        2961.50           1376         309.00      1326.12
  168.16        2961.75           1379         348.00      1496.14
  168.19        2962.00           1382         590.00      2551.20
  168.22        2962.25           1386        1653.00      7186.38
  168.25        2962.50           1389        2876.00     12520.83
  168.28        2962.75           1392        4135.00     18014.09
  168.32        2963.00           1396        5700.00     24845.02
  168.35        2963.25           1399        6746.00     29412.17
  168.38        2963.50           1402        8039.00     35059.52
  168.41        2963.75           1406        9715.00     42382.54
  168.44        2964.00           1409       11015.00     48064.90
  168.47        2964.25           1412       12084.00     52739.01
  168.50        2964.50           1416       13945.00     60879.19
  168.53        2964.75           1419       15084.00     65863.23
  168.56        2965.00           1422       16327.00     71304.06
  168.59        2965.25           1426       18034.00     78778.81
  168.63        2965.50           1429       19336.00     84482.38
  168.66        2965.75           1432       20496.00     89565.53
  168.69        2966.00           1436       22193.00     97004.65
  168.72        2966.25           1439       23237.00    101582.90
  168.75        2966.50           1442       24248.00    106017.60
  168.78        2966.75           1446       25590.00    111906.00
  168.81        2967.00           1449       26290.00    114978.30
  168.84        2967.25           1452       26464.00    115742.10
  168.87        2967.50           1456       26425.00    115570.90
  168.91        2967.75           1459       26288.00    114969.50
  168.94        2968.00           1462       26475.00    115790.40
  168.97        2968.25           1466       25814.00    112889.10
  169.00        2968.50           1469       25044.00    109510.00
  169.03        2968.75           1472       23788.00    103999.60
  169.06        2969.00           1476       22221.00     97127.41
  169.09        2969.25           1479       21118.00     92291.80
  169.12        2969.50           1482       19985.00     87326.12
  169.15        2969.75           1486       18307.00     79974.56
  169.18        2970.00           1489       17208.00     75161.43
  169.21        2970.25           1492       16075.00     70200.88
  169.25        2970.50           1496       14433.00     63014.40
  169.28        2970.75           1499       13318.00     58136.18
  169.31        2971.00           1502       11998.00     52362.93
  169.34        2971.25           1506       10222.00     44598.43
  169.37        2971.50           1509        8895.00     38799.28
  169.40        2971.75           1513        7330.00     31962.63
  169.43        2972.00           1516        6168.00     26888.29
  169.46        2972.25           1519        4871.00     21226.24
  169.49        2972.50           1523        3482.00     15164.70
  169.52        2972.75           1526        2358.00     10261.22
  169.55        2973.00           1529        1224.00      5315.58
  169.58        2973.25           1533         429.00      1849.27
  169.62        2973.50           1536         258.00      1103.79
  169.65        2973.75           1539         215.00       916.33
  169.68        2974.00           1543         178.00       755.03
  169.71        2974.25           1546         130.00       545.78
  169.74        2974.50           1549         106.00       441.16
  169.77        2974.75           1553          73.00       297.30
  169.80        2975.00           1556          60.00       240.63
  169.83        2975.25           1559          63.00       253.71
  169.86        2975.50           1563          54.00       214.47
  169.89        2975.75           1566          53.00       210.11
  169.93        2976.00           1569          46.00       179.60
  169.96        2976.25           1573          48.00       188.32
  169.99        2976.50           1576          47.00       183.96
  170.02        2976.75           1579          46.00       179.60
  170.05        2977.00           1583          52.00       205.76
  170.08        2977.25           1586          49.00       192.68
  170.11        2977.50           1590          46.00       179.60
  170.14        2977.75           1593          46.00       179.60
  170.17        2978.00           1596          43.00       166.52
  170.20        2978.25           1600          44.00       170.88
  170.23        2978.50           1603          52.00       205.76
  170.26        2978.75           1606          50.00       197.04
  170.30        2979.00           1610          45.00       175.24
  170.33        2979.25           1613          50.00       197.04
  170.36        2979.50           1616          50.00       197.04
  170.39        2979.75           1620          48.00       188.32
  170.42        2980.00           1623          45.00       175.24
  170.45        2980.25           1626          56.00       223.19
  170.48        2980.50           1630          46.00       179.60
  170.51        2980.75           1633          47.00       183.96
  170.54        2981.00           1637          44.00       170.88
  170.57        2981.25           1640          47.00       183.96
  170.60        2981.50           1643          40.00       153.44
  170.63        2981.75           1647          47.00       183.96
  170.66        2982.00           1650          49.00       192.68
  170.69        2982.25           1653          59.00       236.27
  170.72        2982.50           1657          43.00       166.52
  170.75        2982.75           1660          55.00       218.83
  170.78        2983.00           1663          48.00       188.32
  170.81        2983.25           1667          40.00       153.44
  170.85        2983.50           1670          45.00       175.24
  170.88        2983.75           1673          41.00       157.80
  170.91        2984.00           1677          37.00       140.37
HS scan finished at 02:51:07
end
************************************************************
  HS Scan of (1) Internal mercury lamp
************************************************************
Integration time is 0.2294 seconds per sample
dh230918Manchester 53.47 2.23 2.804185pr1000
************************************************************
Dead Time -------------------------  3E-08 
Number of Cycles Used -------------  4 
Starting Wavelength (Angstroms) ---  2950 
Final Wavelength (Angstoms) -------  2984 
Wavelength Increment (Angstroms) --  .25 
Filter Wheel #1 Position ---------- (1) Ground quartz diffuser (ND=2.32)
Filter Wheel #2 Position ---------- (1) Neutral Density 0.494



************************************************************
HS scan start time = 19:12:04
Dark Count =  8 


Time (GMT)  Wavelength (Ang)  Step Number  Raw Counts  Counts/Second

 1152.43        2950.00           1222          49.00       178.73
 1152.50        2950.25           1226          51.00       187.45
 1152.53        2950.50           1229          49.00       178.73
 1152.56        2950.75           1232          47.00       170.01
 1152.59        2951.00           1236          55.00       204.88
 1152.62        2951.25           1239          55.00       204.88
 1152.65        2951.50           1242          51.00       187.45
 1152.68        2951.75           1246          46.00       165.65
 1152.71        2952.00           1249          52.00       191.81
 1152.74        2952.25           1252          49.00       178.73
 1152.77        2952.50           1256          54.00       200.52
 1152.80        2952.75           1259          52.00       191.81
 1152.83        2953.00           1262          51.00       187.45
 1152.87        2953.25           1266          47.00       170.01
 1152.90        2953.50           1269          52.00       191.81
 1152.93        2953.75           1272          52.00       191.81
 1152.96        2954.00           1276          44.00       156.93
 1152.99        2954.25           1279          47.00       170.01
 1153.02        2954.50           1282          52.00       191.81
 1153.05        2954.75           1286          48.00       174.37
 1153.08        2955.00           1289          47.00       170.01
 1153.11        2955.25           1292          53.00       196.17
 1153.14        2955.50           1296          46.00       165.65
 1153.17        2955.75           1299          46.00       165.65
 1153.20        2956.00           1302          45.00       161.29
 1153.23        2956.25           1306          54.00       200.52
 1153.26        2956.50           1309          57.00       213.60
 1153.29        2956.75           1312          56.00       209.24
 1153.32        2957.00           1316          56.00       209.24
 1153.36        2957.25           1319          56.00       209.24
 1153.39        2957.50           1322          51.00       187.45
 1153.42        2957.75           1326          46.00       165.65
 1153.45        2958.00           1329          53.00       196.17
 1153.48        2958.25           1332          53.00       196.17
 1153.51        2958.50           1336          58.00       217.96
 1153.54        2958.75           1339          49.00       178.73
 1153.57        2959.00           1342          55.00       204.88
 1153.60        2959.25           1346          55.00       204.88
 1153.63        2959.50           1349          55.00       204.88
 1153.66        2959.75           1352          64.00       244.12
 1153.69        2960.00           1356          92.00       366.18
 1153.72        2960.25           1359         118.00       479.52
 1153.75        2960.50           1362         140.00       575.42
 1153.78        2960.75           1366         177.00       736.72
 1153.82        2961.00           1369         216.00       906.74
 1153.85        2961.25           1372         247.00      1041.88
 1153.88        2961.50           1376         312.00      1325.25
 1153.91        2961.75           1379         461.00      1974.83
 1153.94        2962.00           1382        1021.00      4416.45
 1153.97        2962.25           1386        2413.00     10487.17
 1154.00        2962.50           1389        3529.00     15355.81
 1154.03        2962.75           1392        4688.00     20413.55
 1154.06        2963.00           1396        6237.00     27175.59
 1154.09        2963.25           1399        7327.00     31935.55
 1154.12        2963.50           1402        8607.00     37526.97
 1154.15        2963.75           1406       10271.00     44798.62
 1154.19        2964.00           1409       11408.00     49769.12
 1154.22        2964.25           1412       12727.00     55537.10
 1154.25        2964.50           1416       14364.00     62698.47
 1154.28        2964.75           1419       15482.00     67591.15
 1154.31        2965.00           1422       16751.00     73146.40
 1154.34        2965.25           1426       18536.00     80963.63
 1154.37        2965.50           1429       19828.00     86624.12
 1154.40        2965.75           1432       20947.00     91528.22
 1154.43        2966.00           1436       22445.00     98095.59
 1154.46        2966.25           1439       23534.00    102871.50
 1154.49        2966.50           1442       24718.00    108065.60
 1154.53        2966.75           1446       25783.00    112739.00
 1154.56        2967.00           1449       26154.00    114367.30
 1154.59        2967.25           1452       26175.00    114459.50
 1154.62        2967.50           1456       26244.00    114762.40
 1154.65        2967.75           1459       26143.00    114319.00
 1154.68        2968.00           1462       25944.00    113445.60
 1154.71        2968.25           1466       25157.00    109991.80
 1154.74        2968.50           1469       24240.00    105968.40
 1154.78        2968.75           1472       23073.00    100849.60
 1154.81        2969.00           1476       21504.00     93969.86
 1154.84        2969.25           1479       20485.00     89503.31
 1154.87        2969.50           1482       19196.00     83854.97
 1154.90        2969.75           1486       17618.00     76942.88
 1154.93        2970.00           1489       16478.00     71951.13
 1154.96        2970.25           1492       15213.00     66413.80
 1154.99        2970.50           1496       13640.00     59530.81
 1155.02        2970.75           1499       12442.00     54290.62
 1155.05        2971.00           1502       11233.00     49003.99
 1155.09        2971.25           1506        9602.00     41874.72
 1155.12        2971.50           1509        8335.00     36338.64
 1155.15        2971.75           1513        6702.00     29206.05
 1155.18        2972.00           1516        5485.00     23892.45
 1155.21        2972.25           1519        4465.00     19440.28
 1155.24        2972.50           1523        2869.00     12476.33
 1155.27        2972.75           1526        1718.00      7455.90
 1155.30        2973.00           1529         804.00      3470.28
 1155.33        2973.25           1533         329.00      1399.36
 1155.36        2973.50           1536         245.00      1033.16
 1155.40        2973.75           1539         203.00       850.07
 1155.43        2974.00           1543         169.00       701.85
 1155.46        2974.25           1546         119.00       483.88
 1155.49        2974.50           1549          90.00       357.46
 1155.52        2974.75           1553          70.00       270.27
 1155.55        2975.00           1556          57.00       213.60
 1155.58        2975.25           1559          47.00       170.01
 1155.61        2975.50           1563          48.00       174.37
 1155.64        2975.75           1566          49.00       178.73
 1155.67        2976.00           1569          49.00       178.73
 1155.70        2976.25           1573          44.00       156.93
 1155.73        2976.50           1576          44.00       156.93
 1155.76        2976.75           1579          58.00       217.96
 1155.79        2977.00           1583          46.00       165.65
 1155.82        2977.25           1586          55.00       204.88
 1155.86        2977.50           1590          50.00       183.09
 1155.89        2977.75           1593          42.00       148.21
 1155.92        2978.00           1596          51.00       187.45
 1155.95        2978.25           1600          51.00       187.45
 1155.98        2978.50           1603          49.00       178.73
 1156.01        2978.75           1606          46.00       165.65
 1156.04        2979.00           1610          44.00       156.93
 1156.07        2979.25           1613          45.00       161.29
 1156.10        2979.50           1616          46.00       165.65
 1156.14        2979.75           1620          44.00       156.93
 1156.17        2980.00           1623          48.00       174.37
 1156.20        2980.25           1626          48.00       174.37
 1156.23        2980.50           1630          46.00       165.65
 1156.26        2980.75           1633          39.00       135.14
 1156.29        2981.00           1637          44.00       156.93
 1156.32        2981.25           1640          46.00       165.65
 1156.35        2981.50           1643          53.00       196.17
 1156.38        2981.75           1647          50.00       183.09
 1156.41        2982.00           1650          47.00       170.01
 1156.44        2982.25           1653          49.00       178.73
 1156.47        2982.50           1657          41.00       143.85
 1156.50        2982.75           1660          42.00       148.21
 1156.53        2983.00           1663          48.00       174.37
 1156.56        2983.25           1667          44.00       156.93
 1156.60        2983.50           1670          54.00       200.52
 1156.63        2983.75           1673          44.00       156.93
 1156.66        2984.00           1677          44.00       156.93
HS scan finished at 19:16:52
end
