************************************************************
  HS Scan of (1) Internal mercury lamp
************************************************************
Integration time is 0.2294 seconds per sample
dh170917Manchester 53.47 2.23 2.804185pr1000
************************************************************
Dead Time -------------------------  3E-08 
Number of Cycles Used -------------  4 
Starting Wavelength (Angstroms) ---  2950 
Final Wavelength (Angstoms) -------  2984 
Wavelength Increment (Angstroms) --  .25 
Filter Wheel #1 Position ---------- (1) Ground quartz diffuser (ND=2.32)
Filter Wheel #2 Position ---------- (1) Neutral Density 0.494



************************************************************
HS scan start time = 02:23:46
Dark Count =  6.6 


Time (GMT)  Wavelength (Ang)  Step Number  Raw Counts  Counts/Second

  144.13        2950.00           1222          83.00       333.05
  144.20        2950.25           1226          79.00       315.61
  144.23        2950.50           1229          83.00       333.05
  144.26        2950.75           1232          82.00       328.69
  144.29        2951.00           1236          83.00       333.05
  144.32        2951.25           1239          74.00       293.81
  144.35        2951.50           1242          75.00       298.17
  144.38        2951.75           1246          71.00       280.73
  144.41        2952.00           1249          75.00       298.17
  144.44        2952.25           1252          73.00       289.45
  144.47        2952.50           1256          76.00       302.53
  144.50        2952.75           1259          76.00       302.53
  144.54        2953.00           1262          76.00       302.53
  144.57        2953.25           1266          70.00       276.38
  144.60        2953.50           1269          74.00       293.81
  144.63        2953.75           1272          77.00       306.89
  144.66        2954.00           1276          70.00       276.38
  144.69        2954.25           1279          74.00       293.81
  144.72        2954.50           1282          75.00       298.17
  144.75        2954.75           1286          75.00       298.17
  144.78        2955.00           1289          66.00       258.94
  144.81        2955.25           1292          73.00       289.45
  144.84        2955.50           1296          79.00       315.61
  144.87        2955.75           1299          74.00       293.81
  144.90        2956.00           1302          82.00       328.69
  144.93        2956.25           1306          78.00       311.25
  144.96        2956.50           1309          78.00       311.25
  144.99        2956.75           1312          80.00       319.97
  145.02        2957.00           1316          73.00       289.45
  145.05        2957.25           1319          77.00       306.89
  145.09        2957.50           1322          78.00       311.25
  145.12        2957.75           1326          74.00       293.81
  145.15        2958.00           1329          82.00       328.69
  145.18        2958.25           1332          72.00       285.09
  145.21        2958.50           1336          70.00       276.38
  145.24        2958.75           1339          71.00       280.73
  145.27        2959.00           1342          70.00       276.38
  145.30        2959.25           1346          80.00       319.97
  145.33        2959.50           1349          81.00       324.33
  145.36        2959.75           1352          97.00       394.08
  145.39        2960.00           1356         116.00       476.90
  145.42        2960.25           1359         147.00       612.04
  145.45        2960.50           1362         175.00       734.11
  145.48        2960.75           1366         240.00      1017.47
  145.51        2961.00           1369         280.00      1191.85
  145.55        2961.25           1372         309.00      1318.27
  145.58        2961.50           1376         410.00      1758.59
  145.61        2961.75           1379         610.00      2630.55
  145.64        2962.00           1382        1316.00      5708.91
  145.67        2962.25           1386        3003.00     13067.02
  145.70        2962.50           1389        4422.00     19258.73
  145.73        2962.75           1392        5940.00     25884.96
  145.76        2963.00           1396        8064.00     35160.87
  145.79        2963.25           1399        9626.00     41985.73
  145.82        2963.50           1402       11340.00     49477.92
  145.85        2963.75           1406       13632.00     59501.94
  145.88        2964.00           1409       15422.00     67334.66
  145.91        2964.25           1412       16957.00     74054.49
  145.94        2964.50           1416       19012.00     83055.00
  145.97        2964.75           1419       20382.00     89058.02
  146.01        2965.00           1422       21956.00     95957.62
  146.04        2965.25           1426       24369.00    106540.50
  146.07        2965.50           1429       25871.00    113131.40
  146.10        2965.75           1432       27528.00    120405.40
  146.13        2966.00           1436       29696.00    129927.40
  146.16        2966.25           1439       31240.00    136712.10
  146.19        2966.50           1442       32719.00    143213.80
  146.22        2966.75           1446       34098.00    149278.20
  146.25        2967.00           1449       34319.00    150250.30
  146.28        2967.25           1452       34300.00    150166.70
  146.31        2967.50           1456       34477.00    150945.30
  146.35        2967.75           1459       34308.00    150201.90
  146.38        2968.00           1462       34105.00    149309.00
  146.41        2968.25           1466       32901.00    144014.10
  146.44        2968.50           1469       31551.00    138079.10
  146.47        2968.75           1472       30344.00    132774.60
  146.50        2969.00           1476       28105.00    122939.10
  146.53        2969.25           1479       26470.00    115760.50
  146.56        2969.50           1482       24833.00    108576.30
  146.59        2969.75           1486       22702.00     99228.69
  146.63        2970.00           1489       21299.00     93077.32
  146.66        2970.25           1492       19550.00     85412.12
  146.69        2970.50           1496       17536.00     76589.91
  146.72        2970.75           1499       15921.00     69518.86
  146.75        2971.00           1502       14351.00     62647.72
  146.78        2971.25           1506       12305.00     53697.60
  146.81        2971.50           1509       10945.00     47751.01
  146.84        2971.75           1513        8928.00     38935.61
  146.87        2972.00           1516        7356.00     32068.33
  146.90        2972.25           1519        5808.00     25308.66
  146.93        2972.50           1523        3680.00     16020.78
  146.97        2972.75           1526        2126.00      9241.45
  147.00        2973.00           1529        1001.00      4335.35
  147.03        2973.25           1533         451.00      1937.34
  147.06        2973.50           1536         345.00      1475.22
  147.09        2973.75           1539         297.00      1265.96
  147.12        2974.00           1543         232.00       982.59
  147.15        2974.25           1546         186.00       782.06
  147.18        2974.50           1549         153.00       638.20
  147.21        2974.75           1553         104.00       424.59
  147.24        2975.00           1556          91.00       367.92
  147.27        2975.25           1559          85.00       341.76
  147.30        2975.50           1563          81.00       324.33
  147.33        2975.75           1566          78.00       311.25
  147.36        2976.00           1569          77.00       306.89
  147.39        2976.25           1573          64.00       250.22
  147.43        2976.50           1576          73.00       289.45
  147.46        2976.75           1579          69.00       272.02
  147.49        2977.00           1583          68.00       267.66
  147.52        2977.25           1586          69.00       272.02
  147.55        2977.50           1590          69.00       272.02
  147.58        2977.75           1593          64.00       250.22
  147.61        2978.00           1596          67.00       263.30
  147.64        2978.25           1600          62.00       241.50
  147.67        2978.50           1603          73.00       289.45
  147.70        2978.75           1606          73.00       289.45
  147.73        2979.00           1610          73.00       289.45
  147.76        2979.25           1613          75.00       298.17
  147.79        2979.50           1616          65.00       254.58
  147.82        2979.75           1620          73.00       289.45
  147.85        2980.00           1623          71.00       280.73
  147.89        2980.25           1626          63.00       245.86
  147.92        2980.50           1630          66.00       258.94
  147.95        2980.75           1633          69.00       272.02
  147.98        2981.00           1637          67.00       263.30
  148.01        2981.25           1640          71.00       280.73
  148.04        2981.50           1643          67.00       263.30
  148.07        2981.75           1647          73.00       289.45
  148.10        2982.00           1650          63.00       245.86
  148.13        2982.25           1653          63.00       245.86
  148.16        2982.50           1657          69.00       272.02
  148.19        2982.75           1660          58.00       224.06
  148.22        2983.00           1663          73.00       289.45
  148.26        2983.25           1667          65.00       254.58
  148.29        2983.50           1670          64.00       250.22
  148.32        2983.75           1673          66.00       258.94
  148.35        2984.00           1677          57.00       219.71
HS scan finished at 02:28:34
end
************************************************************
  HS Scan of (1) Internal mercury lamp
************************************************************
Integration time is 0.2294 seconds per sample
dh170917Manchester 53.47 2.23 2.804185pr1000
************************************************************
Dead Time -------------------------  3E-08 
Number of Cycles Used -------------  4 
Starting Wavelength (Angstroms) ---  2950 
Final Wavelength (Angstoms) -------  2984 
Wavelength Increment (Angstroms) --  .25 
Filter Wheel #1 Position ---------- (1) Ground quartz diffuser (ND=2.32)
Filter Wheel #2 Position ---------- (1) Neutral Density 0.494



************************************************************
HS scan start time = 19:12:01
Dark Count =  4.6 


Time (GMT)  Wavelength (Ang)  Step Number  Raw Counts  Counts/Second

 1152.38        2950.00           1222          76.00       311.25
 1152.45        2950.25           1226          82.00       337.41
 1152.48        2950.50           1229          76.00       311.25
 1152.51        2950.75           1232          75.00       306.89
 1152.54        2951.00           1236          81.00       333.05
 1152.57        2951.25           1239          78.00       319.97
 1152.60        2951.50           1242          83.00       341.76
 1152.63        2951.75           1246          71.00       289.45
 1152.66        2952.00           1249          75.00       306.89
 1152.69        2952.25           1252          82.00       337.41
 1152.72        2952.50           1256          70.00       285.09
 1152.75        2952.75           1259          74.00       302.53
 1152.78        2953.00           1262          75.00       306.89
 1152.81        2953.25           1266          77.00       315.61
 1152.84        2953.50           1269          82.00       337.41
 1152.88        2953.75           1272          73.00       298.17
 1152.91        2954.00           1276          63.00       254.58
 1152.94        2954.25           1279          78.00       319.97
 1152.97        2954.50           1282          71.00       289.45
 1153.00        2954.75           1286          83.00       341.76
 1153.03        2955.00           1289          65.00       263.30
 1153.06        2955.25           1292          78.00       319.97
 1153.09        2955.50           1296          72.00       293.81
 1153.12        2955.75           1299          80.00       328.69
 1153.15        2956.00           1302          80.00       328.69
 1153.18        2956.25           1306          71.00       289.45
 1153.21        2956.50           1309          69.00       280.73
 1153.24        2956.75           1312          77.00       315.61
 1153.27        2957.00           1316          75.00       306.89
 1153.30        2957.25           1319          72.00       293.81
 1153.34        2957.50           1322          73.00       298.17
 1153.37        2957.75           1326          71.00       289.45
 1153.40        2958.00           1329          74.00       302.53
 1153.43        2958.25           1332          86.00       354.84
 1153.46        2958.50           1336          72.00       293.81
 1153.49        2958.75           1339          73.00       298.17
 1153.52        2959.00           1342          79.00       324.33
 1153.55        2959.25           1346          77.00       315.61
 1153.58        2959.50           1349          78.00       319.97
 1153.61        2959.75           1352          91.00       376.64
 1153.64        2960.00           1356         119.00       498.70
 1153.67        2960.25           1359         150.00       633.84
 1153.70        2960.50           1362         185.00       786.42
 1153.74        2960.75           1366         233.00       995.67
 1153.77        2961.00           1369         281.00      1204.93
 1153.80        2961.25           1372         340.00      1462.14
 1153.83        2961.50           1376         365.00      1571.13
 1153.86        2961.75           1379         495.00      2137.89
 1153.89        2962.00           1382         929.00      4030.13
 1153.92        2962.25           1386        2487.00     10824.79
 1153.95        2962.50           1389        4059.00     17683.31
 1153.98        2962.75           1392        5574.00     24295.82
 1154.01        2963.00           1396        7723.00     33680.05
 1154.04        2963.25           1399        9100.00     39695.90
 1154.08        2963.50           1402       10708.00     46723.69
 1154.11        2963.75           1406       12769.00     55735.67
 1154.14        2964.00           1409       14521.00     63400.33
 1154.17        2964.25           1412       16215.00     70814.63
 1154.20        2964.50           1416       18209.00     79546.19
 1154.23        2964.75           1419       19841.00     86695.99
 1154.26        2965.00           1422       21468.00     93826.94
 1154.29        2965.25           1426       23397.00    102285.50
 1154.32        2965.50           1429       25127.00    109875.10
 1154.35        2965.75           1432       26781.00    117134.50
 1154.39        2966.00           1436       28958.00    126694.20
 1154.42        2966.25           1439       30468.00    133328.20
 1154.45        2966.50           1442       31692.00    138707.70
 1154.48        2966.75           1446       33582.00    147017.50
 1154.51        2967.00           1449       34161.00    149564.10
 1154.54        2967.25           1452       34235.00    149889.60
 1154.57        2967.50           1456       34154.00    149533.30
 1154.60        2967.75           1459       34242.00    149920.40
 1154.63        2968.00           1462       33982.00    148776.80
 1154.66        2968.25           1466       33507.00    146687.70
 1154.70        2968.50           1469       32062.00    140334.10
 1154.73        2968.75           1472       30806.00    134813.60
 1154.76        2969.00           1476       28671.00    125433.60
 1154.79        2969.25           1479       26967.00    117951.10
 1154.82        2969.50           1482       25457.00    111323.20
 1154.85        2969.75           1486       23212.00    101474.10
 1154.88        2970.00           1489       21890.00     95677.02
 1154.91        2970.25           1492       20339.00     88878.34
 1154.94        2970.50           1496       18355.00     80185.70
 1154.97        2970.75           1499       16868.00     73673.56
 1155.00        2971.00           1502       15153.00     66166.09
 1155.03        2971.25           1506       13060.00     57008.49
 1155.07        2971.50           1509       11398.00     49740.26
 1155.10        2971.75           1513        9275.00     40460.59
 1155.13        2972.00           1516        7676.00     33474.75
 1155.16        2972.25           1519        6355.00     27705.67
 1155.19        2972.50           1523        4315.00     18800.49
 1155.22        2972.75           1526        2758.00     12006.94
 1155.25        2973.00           1529        1396.00      6066.49
 1155.28        2973.25           1533         530.00      2290.48
 1155.31        2973.50           1536         365.00      1571.13
 1155.34        2973.75           1539         297.00      1274.68
 1155.37        2974.00           1543         251.00      1074.14
 1155.41        2974.25           1546         175.00       742.82
 1155.44        2974.50           1549         138.00       581.53
 1155.47        2974.75           1553         118.00       494.34
 1155.50        2975.00           1556          86.00       354.84
 1155.53        2975.25           1559          82.00       337.41
 1155.56        2975.50           1563          77.00       315.61
 1155.59        2975.75           1566          74.00       302.53
 1155.62        2976.00           1569          62.00       250.22
 1155.65        2976.25           1573          75.00       306.89
 1155.68        2976.50           1576          76.00       311.25
 1155.71        2976.75           1579          72.00       293.81
 1155.74        2977.00           1583          75.00       306.89
 1155.77        2977.25           1586          66.00       267.66
 1155.80        2977.50           1590          68.00       276.38
 1155.83        2977.75           1593          84.00       346.12
 1155.86        2978.00           1596          78.00       319.97
 1155.90        2978.25           1600          70.00       285.09
 1155.93        2978.50           1603          74.00       302.53
 1155.96        2978.75           1606          66.00       267.66
 1155.99        2979.00           1610          67.00       272.02
 1156.02        2979.25           1613          73.00       298.17
 1156.05        2979.50           1616          63.00       254.58
 1156.08        2979.75           1620          71.00       289.45
 1156.11        2980.00           1623          69.00       280.73
 1156.14        2980.25           1626          62.00       250.22
 1156.17        2980.50           1630          67.00       272.02
 1156.20        2980.75           1633          76.00       311.25
 1156.24        2981.00           1637          75.00       306.89
 1156.27        2981.25           1640          68.00       276.38
 1156.30        2981.50           1643          63.00       254.58
 1156.33        2981.75           1647          71.00       289.45
 1156.36        2982.00           1650          92.00       381.00
 1156.39        2982.25           1653          70.00       285.09
 1156.42        2982.50           1657          59.00       237.14
 1156.45        2982.75           1660          62.00       250.22
 1156.48        2983.00           1663          67.00       272.02
 1156.51        2983.25           1667          76.00       311.25
 1156.54        2983.50           1670          76.00       311.25
 1156.57        2983.75           1673          62.00       250.22
 1156.60        2984.00           1677          72.00       293.81
HS scan finished at 19:16:49
end
