************************************************************
  HS Scan of (1) Internal mercury lamp
************************************************************
Integration time is 0.2294 seconds per sample
dh190918Manchester 53.47 2.23 2.804185pr1000
************************************************************
Dead Time -------------------------  3E-08 
Number of Cycles Used -------------  4 
Starting Wavelength (Angstroms) ---  2950 
Final Wavelength (Angstoms) -------  2984 
Wavelength Increment (Angstroms) --  .25 
Filter Wheel #1 Position ---------- (1) Ground quartz diffuser (ND=2.32)
Filter Wheel #2 Position ---------- (1) Neutral Density 0.494



************************************************************
HS scan start time = 02:31:12
Dark Count =  6.6 


Time (GMT)  Wavelength (Ang)  Step Number  Raw Counts  Counts/Second

  151.57        2950.00           1222          53.00       202.27
  151.64        2950.25           1226          52.00       197.91
  151.67        2950.50           1229          52.00       197.91
  151.70        2950.75           1232          55.00       210.99
  151.73        2951.00           1236          50.00       189.19
  151.76        2951.25           1239          46.00       171.75
  151.79        2951.50           1242          49.00       184.83
  151.82        2951.75           1246          47.00       176.11
  151.85        2952.00           1249          55.00       210.99
  151.88        2952.25           1252          49.00       184.83
  151.92        2952.50           1256          53.00       202.27
  151.95        2952.75           1259          61.00       237.14
  151.98        2953.00           1262          57.00       219.71
  152.01        2953.25           1266          40.00       145.60
  152.04        2953.50           1269          54.00       206.63
  152.07        2953.75           1272          52.00       197.91
  152.10        2954.00           1276          51.00       193.55
  152.13        2954.25           1279          51.00       193.55
  152.16        2954.50           1282          51.00       193.55
  152.19        2954.75           1286          51.00       193.55
  152.22        2955.00           1289          55.00       210.99
  152.25        2955.25           1292          47.00       176.11
  152.28        2955.50           1296          49.00       184.83
  152.32        2955.75           1299          49.00       184.83
  152.35        2956.00           1302          47.00       176.11
  152.38        2956.25           1306          54.00       206.63
  152.41        2956.50           1309          51.00       193.55
  152.44        2956.75           1312          54.00       206.63
  152.47        2957.00           1316          45.00       167.39
  152.50        2957.25           1319          42.00       154.32
  152.53        2957.50           1322          51.00       193.55
  152.56        2957.75           1326          53.00       202.27
  152.59        2958.00           1329          51.00       193.55
  152.62        2958.25           1332          47.00       176.11
  152.65        2958.50           1336          52.00       197.91
  152.68        2958.75           1339          52.00       197.91
  152.72        2959.00           1342          58.00       224.06
  152.75        2959.25           1346          59.00       228.42
  152.78        2959.50           1349          57.00       219.71
  152.81        2959.75           1352          61.00       237.14
  152.84        2960.00           1356          82.00       328.69
  152.87        2960.25           1359         107.00       437.67
  152.90        2960.50           1362         120.00       494.34
  152.93        2960.75           1366         177.00       742.82
  152.96        2961.00           1369         233.00       986.95
  152.99        2961.25           1372         237.00      1004.39
  153.02        2961.50           1376         287.00      1222.36
  153.05        2961.75           1379         370.00      1584.21
  153.08        2962.00           1382         624.00      2691.59
  153.11        2962.25           1386        1711.00      7431.47
  153.15        2962.50           1389        2898.00     12608.95
  153.18        2962.75           1392        4141.00     18032.42
  153.21        2963.00           1396        5700.00     24837.16
  153.24        2963.25           1399        6992.00     30478.60
  153.27        2963.50           1402        8208.00     35789.94
  153.30        2963.75           1406        9914.00     43244.39
  153.33        2964.00           1409       11066.00     48280.00
  153.36        2964.25           1412       12448.00     54322.99
  153.39        2964.50           1416       14030.00     61243.20
  153.42        2964.75           1419       15432.00     67378.43
  153.45        2965.00           1422       16701.00     72933.60
  153.48        2965.25           1426       18283.00     79861.56
  153.51        2965.50           1429       19504.00     85210.58
  153.54        2965.75           1432       20771.00     90762.93
  153.57        2966.00           1436       22591.00     98741.94
  153.60        2966.25           1439       23763.00    103882.10
  153.64        2966.50           1442       24831.00    108567.50
  153.67        2966.75           1446       26095.00    114114.50
  153.70        2967.00           1449       26521.00    115984.40
  153.73        2967.25           1452       26772.00    117086.20
  153.76        2967.50           1456       26666.00    116620.90
  153.79        2967.75           1459       26684.00    116699.90
  153.82        2968.00           1462       26580.00    116243.40
  153.85        2968.25           1466       26007.00    113728.30
  153.88        2968.50           1469       25299.00    110621.10
  153.92        2968.75           1472       23998.00    104913.00
  153.95        2969.00           1476       22264.00     97308.06
  153.98        2969.25           1479       21070.00     92073.51
  154.01        2969.50           1482       19970.00     87252.51
  154.04        2969.75           1486       18202.00     79506.76
  154.07        2970.00           1489       17120.00     74768.22
  154.10        2970.25           1492       15897.00     69413.80
  154.13        2970.50           1496       14334.00     62573.33
  154.16        2970.75           1499       13117.00     57249.08
  154.19        2971.00           1502       11815.00     51554.83
  154.23        2971.25           1506       10218.00     44573.08
  154.26        2971.50           1509        8898.00     38804.52
  154.29        2971.75           1513        7330.00     31954.77
  154.32        2972.00           1516        6079.00     26491.84
  154.35        2972.25           1519        4694.00     20445.84
  154.38        2972.50           1523        3193.00     13895.94
  154.41        2972.75           1526        2034.00      8840.18
  154.44        2973.00           1529         977.00      4230.70
  154.47        2973.25           1533         398.00      1706.28
  154.50        2973.50           1536         289.00      1231.08
  154.53        2973.75           1539         240.00      1017.47
  154.56        2974.00           1543         202.00       851.81
  154.59        2974.25           1546         151.00       629.48
  154.62        2974.50           1549         121.00       498.70
  154.65        2974.75           1553          87.00       350.48
  154.69        2975.00           1556          72.00       285.09
  154.72        2975.25           1559          63.00       245.86
  154.75        2975.50           1563          49.00       184.83
  154.78        2975.75           1566          52.00       197.91
  154.81        2976.00           1569          43.00       158.68
  154.84        2976.25           1573          50.00       189.19
  154.87        2976.50           1576          55.00       210.99
  154.90        2976.75           1579          57.00       219.71
  154.93        2977.00           1583          44.00       163.03
  154.96        2977.25           1586          46.00       171.75
  154.99        2977.50           1590          50.00       189.19
  155.02        2977.75           1593          45.00       167.39
  155.05        2978.00           1596          47.00       176.11
  155.08        2978.25           1600          42.00       154.32
  155.11        2978.50           1603          54.00       206.63
  155.14        2978.75           1606          44.00       163.03
  155.17        2979.00           1610          46.00       171.75
  155.21        2979.25           1613          52.00       197.91
  155.24        2979.50           1616          47.00       176.11
  155.27        2979.75           1620          42.00       154.32
  155.30        2980.00           1623          46.00       171.75
  155.33        2980.25           1626          49.00       184.83
  155.36        2980.50           1630          47.00       176.11
  155.39        2980.75           1633          42.00       154.32
  155.42        2981.00           1637          49.00       184.83
  155.45        2981.25           1640          44.00       163.03
  155.48        2981.50           1643          51.00       193.55
  155.51        2981.75           1647          44.00       163.03
  155.54        2982.00           1650          50.00       189.19
  155.57        2982.25           1653          46.00       171.75
  155.60        2982.50           1657          47.00       176.11
  155.64        2982.75           1660          49.00       184.83
  155.67        2983.00           1663          44.00       163.03
  155.70        2983.25           1667          44.00       163.03
  155.73        2983.50           1670          45.00       167.39
  155.76        2983.75           1673          53.00       202.27
  155.79        2984.00           1677          46.00       171.75
HS scan finished at 02:36:00
end
************************************************************
  HS Scan of (1) Internal mercury lamp
************************************************************
Integration time is 0.2294 seconds per sample
dh190918Manchester 53.47 2.23 2.804185pr1000
************************************************************
Dead Time -------------------------  3E-08 
Number of Cycles Used -------------  4 
Starting Wavelength (Angstroms) ---  2950 
Final Wavelength (Angstoms) -------  2984 
Wavelength Increment (Angstroms) --  .25 
Filter Wheel #1 Position ---------- (1) Ground quartz diffuser (ND=2.32)
Filter Wheel #2 Position ---------- (1) Neutral Density 0.494



************************************************************
HS scan start time = 19:12:01
Dark Count =  6.8 


Time (GMT)  Wavelength (Ang)  Step Number  Raw Counts  Counts/Second

 1152.39        2950.00           1222          52.00       197.04
 1152.46        2950.25           1226          47.00       175.24
 1152.49        2950.50           1229          53.00       201.40
 1152.52        2950.75           1232          60.00       231.91
 1152.55        2951.00           1236          52.00       197.04
 1152.58        2951.25           1239          52.00       197.04
 1152.62        2951.50           1242          49.00       183.96
 1152.65        2951.75           1246          54.00       205.76
 1152.68        2952.00           1249          48.00       179.60
 1152.71        2952.25           1252          52.00       197.04
 1152.74        2952.50           1256          52.00       197.04
 1152.77        2952.75           1259          47.00       175.24
 1152.80        2953.00           1262          51.00       192.68
 1152.83        2953.25           1266          53.00       201.40
 1152.86        2953.50           1269          58.00       223.19
 1152.89        2953.75           1272          53.00       201.40
 1152.92        2954.00           1276          54.00       205.76
 1152.95        2954.25           1279          51.00       192.68
 1152.98        2954.50           1282          49.00       183.96
 1153.01        2954.75           1286          46.00       170.88
 1153.04        2955.00           1289          52.00       197.04
 1153.07        2955.25           1292          48.00       179.60
 1153.10        2955.50           1296          47.00       175.24
 1153.13        2955.75           1299          51.00       192.68
 1153.17        2956.00           1302          53.00       201.40
 1153.20        2956.25           1306          56.00       214.47
 1153.23        2956.50           1309          51.00       192.68
 1153.26        2956.75           1312          50.00       188.32
 1153.29        2957.00           1316          56.00       214.47
 1153.32        2957.25           1319          49.00       183.96
 1153.35        2957.50           1322          51.00       192.68
 1153.38        2957.75           1326          58.00       223.19
 1153.41        2958.00           1329          43.00       157.80
 1153.44        2958.25           1332          49.00       183.96
 1153.47        2958.50           1336          50.00       188.32
 1153.50        2958.75           1339          53.00       201.40
 1153.53        2959.00           1342          53.00       201.40
 1153.56        2959.25           1346          48.00       179.60
 1153.59        2959.50           1349          61.00       236.27
 1153.62        2959.75           1352          72.00       284.22
 1153.66        2960.00           1356          90.00       362.69
 1153.69        2960.25           1359         119.00       489.11
 1153.72        2960.50           1362         159.00       663.48
 1153.75        2960.75           1366         177.00       741.95
 1153.78        2961.00           1369         217.00       916.33
 1153.81        2961.25           1372         239.00      1012.24
 1153.84        2961.50           1376         330.00      1408.95
 1153.87        2961.75           1379         456.00      1958.27
 1153.90        2962.00           1382         933.00      4037.98
 1153.93        2962.25           1386        2342.00     10182.71
 1153.96        2962.50           1389        3518.00     15313.05
 1153.99        2962.75           1392        4650.00     20252.93
 1154.02        2963.00           1396        6132.00     26722.38
 1154.05        2963.25           1399        7370.00     32128.60
 1154.09        2963.50           1402        8501.00     37069.10
 1154.12        2963.75           1406       10241.00     44672.74
 1154.15        2964.00           1409       11574.00     50500.17
 1154.18        2964.25           1412       12834.00     56010.34
 1154.21        2964.50           1416       14494.00     63272.57
 1154.24        2964.75           1419       15676.00     68445.55
 1154.27        2965.00           1422       16881.00     73720.84
 1154.30        2965.25           1426       18444.00     80565.90
 1154.33        2965.50           1429       19700.00     86068.50
 1154.36        2965.75           1432       20948.00     91537.87
 1154.39        2966.00           1436       22600.00     98780.52
 1154.43        2966.25           1439       23696.00    103587.30
 1154.46        2966.50           1442       24823.00    108531.50
 1154.49        2966.75           1446       26069.00    113999.50
 1154.52        2967.00           1449       26581.00    116246.90
 1154.55        2967.25           1452       26483.00    115816.70
 1154.58        2967.50           1456       26605.00    116352.20
 1154.61        2967.75           1459       26618.00    116409.30
 1154.64        2968.00           1462       26486.00    115829.90
 1154.67        2968.25           1466       25673.00    112261.50
 1154.70        2968.50           1469       24708.00    108027.00
 1154.74        2968.75           1472       23685.00    103539.10
 1154.77        2969.00           1476       22017.00     96224.19
 1154.80        2969.25           1479       20816.00     90959.29
 1154.83        2969.50           1482       19467.00     85047.57
 1154.86        2969.75           1486       17848.00     77955.41
 1154.89        2970.00           1489       16733.00     73072.83
 1154.92        2970.25           1492       15756.00     68795.72
 1154.95        2970.50           1496       13874.00     60559.80
 1154.98        2970.75           1499       12705.00     55446.12
 1155.01        2971.00           1502       11566.00     50465.19
 1155.05        2971.25           1506        9956.00     43427.08
 1155.08        2971.50           1509        8619.00     37584.64
 1155.11        2971.75           1513        6925.00     30185.13
 1155.14        2972.00           1516        5810.00     25316.52
 1155.17        2972.25           1519        4523.00     19698.65
 1155.20        2972.50           1523        2997.00     13039.97
 1155.23        2972.75           1526        1781.00      7735.88
 1155.26        2973.00           1529         764.00      3301.11
 1155.29        2973.25           1533         317.00      1352.28
 1155.32        2973.50           1536         251.00      1064.55
 1155.35        2973.75           1539         209.00       881.45
 1155.38        2974.00           1543         170.00       711.44
 1155.41        2974.25           1546         133.00       550.14
 1155.44        2974.50           1549         103.00       419.36
 1155.47        2974.75           1553          82.00       327.81
 1155.50        2975.00           1556          58.00       223.19
 1155.53        2975.25           1559          53.00       201.40
 1155.57        2975.50           1563          49.00       183.96
 1155.60        2975.75           1566          44.00       162.16
 1155.63        2976.00           1569          46.00       170.88
 1155.66        2976.25           1573          57.00       218.83
 1155.69        2976.50           1576          55.00       210.11
 1155.72        2976.75           1579          51.00       192.68
 1155.75        2977.00           1583          52.00       197.04
 1155.78        2977.25           1586          49.00       183.96
 1155.81        2977.50           1590          48.00       179.60
 1155.84        2977.75           1593          50.00       188.32
 1155.87        2978.00           1596          47.00       175.24
 1155.90        2978.25           1600          49.00       183.96
 1155.93        2978.50           1603          46.00       170.88
 1155.96        2978.75           1606          43.00       157.80
 1155.99        2979.00           1610          49.00       183.96
 1156.02        2979.25           1613          45.00       166.52
 1156.05        2979.50           1616          44.00       162.16
 1156.08        2979.75           1620          47.00       175.24
 1156.12        2980.00           1623          48.00       179.60
 1156.15        2980.25           1626          44.00       162.16
 1156.18        2980.50           1630          51.00       192.68
 1156.21        2980.75           1633          48.00       179.60
 1156.24        2981.00           1637          41.00       149.09
 1156.27        2981.25           1640          53.00       201.40
 1156.30        2981.50           1643          47.00       175.24
 1156.33        2981.75           1647          42.00       153.44
 1156.36        2982.00           1650          44.00       162.16
 1156.39        2982.25           1653          46.00       170.88
 1156.42        2982.50           1657          38.00       136.01
 1156.45        2982.75           1660          49.00       183.96
 1156.48        2983.00           1663          44.00       162.16
 1156.51        2983.25           1667          45.00       166.52
 1156.54        2983.50           1670          49.00       183.96
 1156.57        2983.75           1673          47.00       175.24
 1156.60        2984.00           1677          44.00       162.16
HS scan finished at 19:16:49
end
