************************************************************
  HS Scan of (1) Internal mercury lamp
************************************************************
Integration time is 0.2294 seconds per sample
dh250917Manchester 53.47 2.23 2.857833pr1000
************************************************************
Dead Time -------------------------  3E-08 
Number of Cycles Used -------------  4 
Starting Wavelength (Angstroms) ---  2950 
Final Wavelength (Angstoms) -------  2984 
Wavelength Increment (Angstroms) --  .25 
Filter Wheel #1 Position ---------- (1) Ground quartz diffuser (ND=2.32)
Filter Wheel #2 Position ---------- (1) Neutral Density 0.494



************************************************************
HS scan start time = 02:54:01
Dark Count =  5 


Time (GMT)  Wavelength (Ang)  Step Number  Raw Counts  Counts/Second

  174.38        2950.00           1222          75.00       305.15
  174.45        2950.25           1226          71.00       287.71
  174.48        2950.50           1229          73.00       296.43
  174.51        2950.75           1232          79.00       322.58
  174.54        2951.00           1236          68.00       274.63
  174.57        2951.25           1239          67.00       270.27
  174.60        2951.50           1242          75.00       305.15
  174.63        2951.75           1246          66.00       265.91
  174.66        2952.00           1249          72.00       292.07
  174.69        2952.25           1252          72.00       292.07
  174.72        2952.50           1256          69.00       278.99
  174.75        2952.75           1259          81.00       331.30
  174.78        2953.00           1262          86.00       353.10
  174.82        2953.25           1266          81.00       331.30
  174.85        2953.50           1269          76.00       309.51
  174.88        2953.75           1272          76.00       309.51
  174.91        2954.00           1276          77.00       313.87
  174.94        2954.25           1279          72.00       292.07
  174.97        2954.50           1282          76.00       309.51
  175.00        2954.75           1286          74.00       300.79
  175.03        2955.00           1289          65.00       261.55
  175.06        2955.25           1292          71.00       287.71
  175.09        2955.50           1296          66.00       265.91
  175.12        2955.75           1299          79.00       322.58
  175.15        2956.00           1302          69.00       278.99
  175.18        2956.25           1306          75.00       305.15
  175.21        2956.50           1309          65.00       261.55
  175.25        2956.75           1312          70.00       283.35
  175.28        2957.00           1316          73.00       296.43
  175.31        2957.25           1319          77.00       313.87
  175.34        2957.50           1322          68.00       274.63
  175.37        2957.75           1326          67.00       270.27
  175.40        2958.00           1329          69.00       278.99
  175.43        2958.25           1332          69.00       278.99
  175.46        2958.50           1336          69.00       278.99
  175.49        2958.75           1339          69.00       278.99
  175.52        2959.00           1342          71.00       287.71
  175.55        2959.25           1346          71.00       287.71
  175.59        2959.50           1349          81.00       331.30
  175.62        2959.75           1352          86.00       353.10
  175.65        2960.00           1356         121.00       505.67
  175.68        2960.25           1359         145.00       610.30
  175.71        2960.50           1362         189.00       802.11
  175.74        2960.75           1366         236.00      1007.01
  175.77        2961.00           1369         284.00      1216.26
  175.80        2961.25           1372         343.00      1473.47
  175.83        2961.50           1376         399.00      1717.61
  175.86        2961.75           1379         543.00      2345.41
  175.89        2962.00           1382        1100.00      4774.01
  175.93        2962.25           1386        2843.00     12376.00
  175.96        2962.50           1389        4462.00     19440.28
  175.99        2962.75           1392        5986.00     26092.78
  176.02        2963.00           1396        8239.00     35932.35
  176.05        2963.25           1399        9687.00     42259.30
  176.08        2963.50           1402       11419.00     49830.33
  176.11        2963.75           1406       13534.00     59080.21
  176.14        2964.00           1409       15093.00     65901.75
  176.17        2964.25           1412       17047.00     74455.57
  176.21        2964.50           1416       19190.00     83841.83
  176.24        2964.75           1419       20879.00     91243.32
  176.27        2965.00           1422       22641.00     98968.21
  176.30        2965.25           1426       24747.00    108206.00
  176.33        2965.50           1429       26384.00    115390.00
  176.36        2965.75           1432       28232.00    123503.80
  176.39        2966.00           1436       30149.00    131924.80
  176.42        2966.25           1439       31453.00    137655.40
  176.45        2966.50           1442       33121.00    144988.50
  176.48        2966.75           1446       34686.00    151871.70
  176.51        2967.00           1449       35276.00    154467.40
  176.55        2967.25           1452       35308.00    154608.20
  176.58        2967.50           1456       35256.00    154379.40
  176.61        2967.75           1459       35392.00    154977.80
  176.64        2968.00           1462       35219.00    154216.60
  176.67        2968.25           1466       34262.00    150006.60
  176.70        2968.50           1469       33012.00    144509.20
  176.73        2968.75           1472       31423.00    137523.50
  176.76        2969.00           1476       29249.00    127970.80
  176.79        2969.25           1479       27496.00    120271.90
  176.82        2969.50           1482       26032.00    113845.00
  176.86        2969.75           1486       23935.00    104643.60
  176.89        2970.00           1489       22335.00     97626.39
  176.92        2970.25           1492       20728.00     90581.49
  176.95        2970.50           1496       18630.00     81388.54
  176.98        2970.75           1499       16852.00     73601.75
  177.01        2971.00           1502       15259.00     66628.25
  177.04        2971.25           1506       13144.00     57374.17
  177.07        2971.50           1509       11330.00     49441.20
  177.10        2971.75           1513        9255.00     40371.45
  177.14        2972.00           1516        7605.00     33162.88
  177.17        2972.25           1519        6034.00     26302.35
  177.20        2972.50           1523        4025.00     17533.20
  177.23        2972.75           1526        2489.00     10831.77
  177.26        2973.00           1529        1156.00      5018.19
  177.29        2973.25           1533         491.00      2118.70
  177.32        2973.50           1536         382.00      1643.50
  177.35        2973.75           1539         291.00      1246.78
  177.38        2974.00           1543         248.00      1059.32
  177.42        2974.25           1546         199.00       845.71
  177.45        2974.50           1549         168.00       710.56
  177.48        2974.75           1553         111.00       462.08
  177.51        2975.00           1556          94.00       387.97
  177.54        2975.25           1559          82.00       335.66
  177.57        2975.50           1563          72.00       292.07
  177.60        2975.75           1566          69.00       278.99
  177.63        2976.00           1569          70.00       283.35
  177.66        2976.25           1573          69.00       278.99
  177.69        2976.50           1576          75.00       305.15
  177.72        2976.75           1579          80.00       326.94
  177.75        2977.00           1583          72.00       292.07
  177.79        2977.25           1586          66.00       265.91
  177.82        2977.50           1590          68.00       274.63
  177.85        2977.75           1593          70.00       283.35
  177.88        2978.00           1596          69.00       278.99
  177.91        2978.25           1600          63.00       252.84
  177.94        2978.50           1603          64.00       257.19
  177.97        2978.75           1606          60.00       239.76
  178.00        2979.00           1610          64.00       257.19
  178.03        2979.25           1613          70.00       283.35
  178.06        2979.50           1616          68.00       274.63
  178.09        2979.75           1620          62.00       248.48
  178.13        2980.00           1623          64.00       257.19
  178.16        2980.25           1626          63.00       252.84
  178.19        2980.50           1630          66.00       265.91
  178.22        2980.75           1633          61.00       244.12
  178.25        2981.00           1637          76.00       309.51
  178.28        2981.25           1640          67.00       270.27
  178.31        2981.50           1643          70.00       283.35
  178.34        2981.75           1647          68.00       274.63
  178.37        2982.00           1650          74.00       300.79
  178.40        2982.25           1653          65.00       261.55
  178.43        2982.50           1657          65.00       261.55
  178.46        2982.75           1660          63.00       252.84
  178.49        2983.00           1663          59.00       235.40
  178.52        2983.25           1667          59.00       235.40
  178.55        2983.50           1670          65.00       261.55
  178.59        2983.75           1673          65.00       261.55
  178.62        2984.00           1677          60.00       239.76
HS scan finished at 02:58:50
end
************************************************************
  HS Scan of (1) Internal mercury lamp
************************************************************
Integration time is 0.2294 seconds per sample
dh250917Manchester 53.47 2.23 2.911481pr1000
************************************************************
Dead Time -------------------------  3E-08 
Number of Cycles Used -------------  4 
Starting Wavelength (Angstroms) ---  2950 
Final Wavelength (Angstoms) -------  2984 
Wavelength Increment (Angstroms) --  .25 
Filter Wheel #1 Position ---------- (1) Ground quartz diffuser (ND=2.32)
Filter Wheel #2 Position ---------- (1) Neutral Density 0.494



************************************************************
HS scan start time = 19:12:03
Dark Count =  4.1 


Time (GMT)  Wavelength (Ang)  Step Number  Raw Counts  Counts/Second

 1152.42        2950.00           1222          69.00       282.91
 1152.49        2950.25           1226          71.00       291.63
 1152.52        2950.50           1229          76.00       313.43
 1152.55        2950.75           1232          77.00       317.79
 1152.58        2951.00           1236          73.00       300.35
 1152.61        2951.25           1239          79.00       326.51
 1152.64        2951.50           1242          74.00       304.71
 1152.67        2951.75           1246          73.00       300.35
 1152.70        2952.00           1249          73.00       300.35
 1152.73        2952.25           1252          76.00       313.43
 1152.76        2952.50           1256          73.00       300.35
 1152.80        2952.75           1259          69.00       282.91
 1152.83        2953.00           1262          74.00       304.71
 1152.86        2953.25           1266          74.00       304.71
 1152.89        2953.50           1269          80.00       330.87
 1152.92        2953.75           1272          81.00       335.23
 1152.95        2954.00           1276          70.00       287.27
 1152.98        2954.25           1279          68.00       278.56
 1153.01        2954.50           1282          69.00       282.91
 1153.04        2954.75           1286          67.00       274.20
 1153.07        2955.00           1289          71.00       291.63
 1153.10        2955.25           1292          72.00       295.99
 1153.13        2955.50           1296          80.00       330.87
 1153.17        2955.75           1299          65.00       265.48
 1153.20        2956.00           1302          76.00       313.43
 1153.23        2956.25           1306          69.00       282.91
 1153.26        2956.50           1309          72.00       295.99
 1153.29        2956.75           1312          67.00       274.20
 1153.32        2957.00           1316          71.00       291.63
 1153.35        2957.25           1319          78.00       322.15
 1153.38        2957.50           1322          82.00       339.59
 1153.41        2957.75           1326          73.00       300.35
 1153.44        2958.00           1329          68.00       278.56
 1153.48        2958.25           1332          76.00       313.43
 1153.51        2958.50           1336          72.00       295.99
 1153.54        2958.75           1339          79.00       326.51
 1153.57        2959.00           1342          72.00       295.99
 1153.60        2959.25           1346          69.00       282.91
 1153.63        2959.50           1349          77.00       317.79
 1153.66        2959.75           1352          93.00       387.54
 1153.69        2960.00           1356         136.00       574.99
 1153.72        2960.25           1359         164.00       697.05
 1153.75        2960.50           1362         205.00       875.79
 1153.78        2960.75           1366         265.00      1137.35
 1153.81        2961.00           1369         308.00      1324.81
 1153.84        2961.25           1372         344.00      1481.76
 1153.88        2961.50           1376         419.00      1808.73
 1153.91        2961.75           1379         586.00      2536.81
 1153.94        2962.00           1382        1254.00      5449.45
 1153.97        2962.25           1386        3032.00     13204.45
 1154.00        2962.50           1389        4634.00     20194.88
 1154.03        2962.75           1392        6287.00     27410.94
 1154.06        2963.00           1396        8483.00     37002.26
 1154.09        2963.25           1399       10110.00     44111.96
 1154.12        2963.50           1402       11846.00     51701.32
 1154.15        2963.75           1406       14035.00     61276.01
 1154.18        2964.00           1409       15747.00     68768.15
 1154.22        2964.25           1412       17285.00     75501.69
 1154.25        2964.50           1416       19537.00     85366.12
 1154.28        2964.75           1419       21016.00     91847.77
 1154.31        2965.00           1422       22817.00     99743.97
 1154.34        2965.25           1426       25151.00    109982.60
 1154.37        2965.50           1429       26683.00    116706.50
 1154.40        2965.75           1432       28416.00    124315.90
 1154.43        2966.00           1436       30536.00    133629.20
 1154.46        2966.25           1439       32293.00    141351.90
 1154.50        2966.50           1442       33858.00    148233.60
 1154.53        2966.75           1446       35389.00    154968.60
 1154.56        2967.00           1449       35697.00    156323.80
 1154.59        2967.25           1452       35754.00    156574.60
 1154.62        2967.50           1456       35737.00    156499.80
 1154.65        2967.75           1459       35811.00    156825.40
 1154.68        2968.00           1462       35631.00    156033.40
 1154.71        2968.25           1466       34502.00    151066.30
 1154.74        2968.50           1469       33002.00    144469.20
 1154.78        2968.75           1472       31340.00    137162.60
 1154.81        2969.00           1476       29221.00    127851.70
 1154.84        2969.25           1479       27570.00    120600.80
 1154.87        2969.50           1482       25829.00    112958.00
 1154.90        2969.75           1486       23662.00    103450.00
 1154.93        2970.00           1489       22135.00     96753.41
 1154.96        2970.25           1492       20404.00     89165.40
 1154.99        2970.50           1496       18479.00     80731.03
 1155.02        2970.75           1499       16687.00     72883.25
 1155.05        2971.00           1502       15294.00     66785.38
 1155.09        2971.25           1506       13122.00     57281.88
 1155.12        2971.50           1509       11221.00     48968.58
 1155.15        2971.75           1513        9140.00     39872.86
 1155.18        2972.00           1516        7330.00     31965.69
 1155.21        2972.25           1519        5813.00     25341.40
 1155.24        2972.50           1523        3650.00     15900.78
 1155.27        2972.75           1526        2006.00      8728.96
 1155.30        2973.00           1529         911.00      3953.83
 1155.34        2973.25           1533         425.00      1834.89
 1155.37        2973.50           1536         355.00      1529.71
 1155.40        2973.75           1539         295.00      1268.14
 1155.43        2974.00           1543         256.00      1098.12
 1155.46        2974.25           1546         176.00       749.36
 1155.49        2974.50           1549         144.00       609.86
 1155.52        2974.75           1553         100.00       418.05
 1155.55        2975.00           1556          94.00       391.90
 1155.58        2975.25           1559          86.00       357.02
 1155.61        2975.50           1563          65.00       265.48
 1155.64        2975.75           1566          65.00       265.48
 1155.67        2976.00           1569          72.00       295.99
 1155.70        2976.25           1573          73.00       300.35
 1155.74        2976.50           1576          67.00       274.20
 1155.77        2976.75           1579          74.00       304.71
 1155.80        2977.00           1583          60.00       243.68
 1155.83        2977.25           1586          61.00       248.04
 1155.86        2977.50           1590          72.00       295.99
 1155.89        2977.75           1593          73.00       300.35
 1155.92        2978.00           1596          62.00       252.40
 1155.95        2978.25           1600          69.00       282.91
 1155.98        2978.50           1603          69.00       282.91
 1156.01        2978.75           1606          64.00       261.12
 1156.04        2979.00           1610          65.00       265.48
 1156.07        2979.25           1613          69.00       282.91
 1156.10        2979.50           1616          70.00       287.27
 1156.13        2979.75           1620          67.00       274.20
 1156.17        2980.00           1623          68.00       278.56
 1156.20        2980.25           1626          63.00       256.76
 1156.23        2980.50           1630          59.00       239.32
 1156.26        2980.75           1633          68.00       278.56
 1156.29        2981.00           1637          70.00       287.27
 1156.32        2981.25           1640          71.00       291.63
 1156.35        2981.50           1643          66.00       269.84
 1156.38        2981.75           1647          68.00       278.56
 1156.41        2982.00           1650          66.00       269.84
 1156.44        2982.25           1653          64.00       261.12
 1156.47        2982.50           1657          69.00       282.91
 1156.50        2982.75           1660          65.00       265.48
 1156.53        2983.00           1663          57.00       230.60
 1156.56        2983.25           1667          67.00       274.20
 1156.59        2983.50           1670          64.00       261.12
 1156.63        2983.75           1673          57.00       230.60
 1156.66        2984.00           1677          61.00       248.04
HS scan finished at 19:16:52
end
