************************************************************
  HS Scan of (1) Internal mercury lamp
************************************************************
Integration time is 0.2294 seconds per sample
dh220917Manchester 53.47 2.23 2.804185pr1000
************************************************************
Dead Time -------------------------  3E-08 
Number of Cycles Used -------------  4 
Starting Wavelength (Angstroms) ---  2950 
Final Wavelength (Angstoms) -------  2984 
Wavelength Increment (Angstroms) --  .25 
Filter Wheel #1 Position ---------- (1) Ground quartz diffuser (ND=2.32)
Filter Wheel #2 Position ---------- (1) Neutral Density 0.494



************************************************************
HS scan start time = 02:43:37
Dark Count =  6.8 


Time (GMT)  Wavelength (Ang)  Step Number  Raw Counts  Counts/Second

  163.99        2950.00           1222          80.00       319.10
  164.06        2950.25           1226          73.00       288.58
  164.09        2950.50           1229          81.00       323.46
  164.12        2950.75           1232          80.00       319.10
  164.15        2951.00           1236          67.00       262.43
  164.18        2951.25           1239          69.00       271.14
  164.22        2951.50           1242          72.00       284.22
  164.25        2951.75           1246          75.00       297.30
  164.28        2952.00           1249          69.00       271.14
  164.31        2952.25           1252          72.00       284.22
  164.34        2952.50           1256          70.00       275.50
  164.37        2952.75           1259          70.00       275.50
  164.40        2953.00           1262          76.00       301.66
  164.43        2953.25           1266          76.00       301.66
  164.46        2953.50           1269          68.00       266.79
  164.49        2953.75           1272          69.00       271.14
  164.52        2954.00           1276          73.00       288.58
  164.55        2954.25           1279          64.00       249.35
  164.59        2954.50           1282          79.00       314.74
  164.62        2954.75           1286          72.00       284.22
  164.65        2955.00           1289          69.00       271.14
  164.68        2955.25           1292          77.00       306.02
  164.71        2955.50           1296          71.00       279.86
  164.74        2955.75           1299          77.00       306.02
  164.77        2956.00           1302          75.00       297.30
  164.80        2956.25           1306          84.00       336.53
  164.83        2956.50           1309          71.00       279.86
  164.86        2956.75           1312          68.00       266.79
  164.90        2957.00           1316          78.00       310.38
  164.93        2957.25           1319          65.00       253.71
  164.96        2957.50           1322          70.00       275.50
  164.99        2957.75           1326          73.00       288.58
  165.02        2958.00           1329          79.00       314.74
  165.05        2958.25           1332          70.00       275.50
  165.08        2958.50           1336          77.00       306.02
  165.11        2958.75           1339          77.00       306.02
  165.14        2959.00           1342          66.00       258.07
  165.17        2959.25           1346          83.00       332.17
  165.20        2959.50           1349          89.00       358.33
  165.23        2959.75           1352         100.00       406.28
  165.27        2960.00           1356         120.00       493.47
  165.30        2960.25           1359         140.00       580.66
  165.33        2960.50           1362         169.00       707.08
  165.36        2960.75           1366         236.00       999.16
  165.39        2961.00           1369         290.00      1234.57
  165.42        2961.25           1372         308.00      1313.04
  165.45        2961.50           1376         365.00      1561.54
  165.48        2961.75           1379         443.00      1901.59
  165.51        2962.00           1382         777.00      3357.79
  165.54        2962.25           1386        1952.00      8481.67
  165.58        2962.50           1389        3521.00     15326.14
  165.61        2962.75           1392        5048.00     21990.09
  165.64        2963.00           1396        7074.00     30835.84
  165.67        2963.25           1399        8621.00     37593.38
  165.70        2963.50           1402       10125.00     44165.72
  165.73        2963.75           1406       12337.00     53836.67
  165.76        2964.00           1409       13894.00     60647.30
  165.79        2964.25           1412       15528.00     67797.74
  165.82        2964.50           1416       17680.00     77219.65
  165.86        2964.75           1419       19271.00     84188.83
  165.89        2965.00           1422       20792.00     90854.09
  165.92        2965.25           1426       23100.00    100973.20
  165.95        2965.50           1429       24639.00    107724.20
  165.98        2965.75           1432       26132.00    114276.00
  166.01        2966.00           1436       28169.00    123219.30
  166.04        2966.25           1439       29536.00    129223.60
  166.07        2966.50           1442       30852.00    135006.00
  166.10        2966.75           1446       32906.00    144035.20
  166.13        2967.00           1449       33790.00    147922.60
  166.17        2967.25           1452       34200.00    149726.00
  166.20        2967.50           1456       34431.00    150742.10
  166.23        2967.75           1459       34376.00    150500.10
  166.26        2968.00           1462       34093.00    149255.30
  166.29        2968.25           1466       33675.00    147416.90
  166.32        2968.50           1469       32739.00    143300.90
  166.35        2968.75           1472       31208.00    136570.60
  166.38        2969.00           1476       29310.00    128230.80
  166.41        2969.25           1479       27867.00    121893.10
  166.44        2969.50           1482       26307.00    115044.20
  166.47        2969.75           1486       24214.00    105859.60
  166.51        2970.00           1489       22780.00     99569.86
  166.54        2970.25           1492       21091.00     92164.68
  166.57        2970.50           1496       18980.00     82913.91
  166.60        2970.75           1499       17227.00     75235.88
  166.63        2971.00           1502       15822.00     69084.62
  166.66        2971.25           1506       13630.00     59492.32
  166.69        2971.50           1509       12060.00     52625.30
  166.72        2971.75           1513       10003.00     43632.50
  166.75        2972.00           1516        8468.00     36924.93
  166.79        2972.25           1519        6795.00     29617.42
  166.82        2972.50           1523        4848.00     21117.12
  166.85        2972.75           1526        3218.00     14004.14
  166.88        2973.00           1529        1751.00      7605.05
  166.91        2973.25           1533         582.00      2507.60
  166.94        2973.50           1536         383.00      1640.01
  166.97        2973.75           1539         308.00      1313.04
  167.00        2974.00           1543         250.00      1060.19
  167.03        2974.25           1546         193.00       811.70
  167.06        2974.50           1549         153.00       637.33
  167.09        2974.75           1553          98.00       397.56
  167.13        2975.00           1556          82.00       327.81
  167.16        2975.25           1559          75.00       297.30
  167.19        2975.50           1563          69.00       271.14
  167.22        2975.75           1566          68.00       266.79
  167.25        2976.00           1569          74.00       292.94
  167.28        2976.25           1573          73.00       288.58
  167.31        2976.50           1576          76.00       301.66
  167.34        2976.75           1579          64.00       249.35
  167.37        2977.00           1583          75.00       297.30
  167.40        2977.25           1586          63.00       244.99
  167.43        2977.50           1590          69.00       271.14
  167.46        2977.75           1593          60.00       231.91
  167.49        2978.00           1596          63.00       244.99
  167.52        2978.25           1600          62.00       240.63
  167.55        2978.50           1603          64.00       249.35
  167.58        2978.75           1606          77.00       306.02
  167.62        2979.00           1610          70.00       275.50
  167.65        2979.25           1613          71.00       279.86
  167.68        2979.50           1616          64.00       249.35
  167.71        2979.75           1620          71.00       279.86
  167.74        2980.00           1623          69.00       271.14
  167.77        2980.25           1626          59.00       227.55
  167.80        2980.50           1630          61.00       236.27
  167.83        2980.75           1633          71.00       279.86
  167.86        2981.00           1637          61.00       236.27
  167.89        2981.25           1640          72.00       284.22
  167.92        2981.50           1643          72.00       284.22
  167.96        2981.75           1647          60.00       231.91
  167.99        2982.00           1650          61.00       236.27
  168.02        2982.25           1653          71.00       279.86
  168.05        2982.50           1657          65.00       253.71
  168.08        2982.75           1660          65.00       253.71
  168.11        2983.00           1663          65.00       253.71
  168.14        2983.25           1667          63.00       244.99
  168.17        2983.50           1670          62.00       240.63
  168.20        2983.75           1673          77.00       306.02
  168.23        2984.00           1677          66.00       258.07
HS scan finished at 02:48:27
end
************************************************************
  HS Scan of (1) Internal mercury lamp
************************************************************
Integration time is 0.2294 seconds per sample
dh220917Manchester 53.47 2.23 2.804185pr1000
************************************************************
Dead Time -------------------------  3E-08 
Number of Cycles Used -------------  4 
Starting Wavelength (Angstroms) ---  2950 
Final Wavelength (Angstoms) -------  2984 
Wavelength Increment (Angstroms) --  .25 
Filter Wheel #1 Position ---------- (1) Ground quartz diffuser (ND=2.32)
Filter Wheel #2 Position ---------- (1) Neutral Density 0.494



************************************************************
HS scan start time = 19:12:01
Dark Count =  5.3 


Time (GMT)  Wavelength (Ang)  Step Number  Raw Counts  Counts/Second

 1152.38        2950.00           1222          79.00       321.28
 1152.45        2950.25           1226          69.00       277.68
 1152.48        2950.50           1229          68.00       273.32
 1152.51        2950.75           1232          77.00       312.56
 1152.54        2951.00           1236          76.00       308.20
 1152.57        2951.25           1239          74.00       299.48
 1152.60        2951.50           1242          75.00       303.84
 1152.63        2951.75           1246          84.00       343.07
 1152.66        2952.00           1249          71.00       286.40
 1152.70        2952.25           1252          73.00       295.12
 1152.73        2952.50           1256          71.00       286.40
 1152.76        2952.75           1259          69.00       277.68
 1152.79        2953.00           1262          70.00       282.04
 1152.82        2953.25           1266          77.00       312.56
 1152.85        2953.50           1269          72.00       290.76
 1152.88        2953.75           1272          80.00       325.64
 1152.91        2954.00           1276          63.00       251.53
 1152.94        2954.25           1279          71.00       286.40
 1152.97        2954.50           1282          79.00       321.28
 1153.00        2954.75           1286          73.00       295.12
 1153.03        2955.00           1289          76.00       308.20
 1153.06        2955.25           1292          67.00       268.96
 1153.09        2955.50           1296          72.00       290.76
 1153.13        2955.75           1299          71.00       286.40
 1153.16        2956.00           1302          68.00       273.32
 1153.19        2956.25           1306          77.00       312.56
 1153.22        2956.50           1309          71.00       286.40
 1153.25        2956.75           1312          70.00       282.04
 1153.28        2957.00           1316          68.00       273.32
 1153.31        2957.25           1319          68.00       273.32
 1153.34        2957.50           1322          75.00       303.84
 1153.37        2957.75           1326          70.00       282.04
 1153.40        2958.00           1329          70.00       282.04
 1153.43        2958.25           1332          78.00       316.92
 1153.47        2958.50           1336          79.00       321.28
 1153.50        2958.75           1339          68.00       273.32
 1153.53        2959.00           1342          82.00       334.35
 1153.56        2959.25           1346          84.00       343.07
 1153.59        2959.50           1349          81.00       329.99
 1153.62        2959.75           1352          90.00       369.23
 1153.65        2960.00           1356         118.00       491.29
 1153.68        2960.25           1359         138.00       578.48
 1153.71        2960.50           1362         199.00       844.40
 1153.74        2960.75           1366         235.00      1001.34
 1153.77        2961.00           1369         273.00      1167.00
 1153.80        2961.25           1372         319.00      1367.54
 1153.83        2961.50           1376         412.00      1772.98
 1153.86        2961.75           1379         553.00      2387.70
 1153.89        2962.00           1382        1172.00      5086.65
 1153.93        2962.25           1386        2841.00     12365.97
 1153.96        2962.50           1389        4325.00     18841.07
 1153.99        2962.75           1392        5831.00     25414.75
 1154.02        2963.00           1396        8034.00     35035.50
 1154.05        2963.25           1399        9425.00     41113.02
 1154.08        2963.50           1402       11106.00     48460.55
 1154.11        2963.75           1406       13342.00     58238.98
 1154.14        2964.00           1409       14988.00     65440.91
 1154.17        2964.25           1412       16661.00     72764.16
 1154.20        2964.50           1416       18980.00     82920.50
 1154.23        2964.75           1419       20533.00     89725.50
 1154.26        2965.00           1422       22244.00     97226.06
 1154.29        2965.25           1426       24379.00    106590.10
 1154.33        2965.50           1429       25949.00    113479.40
 1154.36        2965.75           1432       27102.00    118540.70
 1154.39        2966.00           1436       29522.00    129168.70
 1154.42        2966.25           1439       31100.00    136102.50
 1154.45        2966.50           1442       32340.00    141553.20
 1154.48        2966.75           1446       33897.00    148399.80
 1154.51        2967.00           1449       34197.00    149719.40
 1154.54        2967.25           1452       34173.00    149613.80
 1154.57        2967.50           1456       34331.00    150308.80
 1154.61        2967.75           1459       33978.00    148756.10
 1154.64        2968.00           1462       34097.00    149279.50
 1154.67        2968.25           1466       32634.00    142845.80
 1154.70        2968.50           1469       31392.00    137385.90
 1154.73        2968.75           1472       29928.00    130952.40
 1154.76        2969.00           1476       27871.00    121917.20
 1154.79        2969.25           1479       26264.00    114862.00
 1154.82        2969.50           1482       24669.00    107862.40
 1154.85        2969.75           1486       22530.00     98480.15
 1154.88        2970.00           1489       20959.00     91592.66
 1154.92        2970.25           1492       19389.00     84712.40
 1154.95        2970.50           1496       17463.00     76275.91
 1154.98        2970.75           1499       15951.00     69655.87
 1155.01        2971.00           1502       14293.00     62399.62
 1155.04        2971.25           1506       12147.00     53012.32
 1155.07        2971.50           1509       10545.00     46008.10
 1155.10        2971.75           1513        8758.00     38198.50
 1155.13        2972.00           1516        7205.00     31414.51
 1155.16        2972.25           1519        5735.00     24995.64
 1155.19        2972.50           1523        3712.00     16166.08
 1155.23        2972.75           1526        2236.00      9726.90
 1155.26        2973.00           1529        1075.00      4663.69
 1155.29        2973.25           1533         479.00      2065.08
 1155.32        2973.50           1536         329.00      1411.13
 1155.35        2973.75           1539         309.00      1323.94
 1155.38        2974.00           1543         247.00      1053.65
 1155.41        2974.25           1546         191.00       809.52
 1155.44        2974.50           1549         146.00       613.35
 1155.47        2974.75           1553         123.00       513.09
 1155.50        2975.00           1556          95.00       391.02
 1155.53        2975.25           1559          76.00       308.20
 1155.56        2975.50           1563          77.00       312.56
 1155.60        2975.75           1566          73.00       295.12
 1155.63        2976.00           1569          69.00       277.68
 1155.66        2976.25           1573          65.00       260.25
 1155.69        2976.50           1576          65.00       260.25
 1155.72        2976.75           1579          69.00       277.68
 1155.75        2977.00           1583          64.00       255.89
 1155.78        2977.25           1586          62.00       247.17
 1155.81        2977.50           1590          68.00       273.32
 1155.84        2977.75           1593          67.00       268.96
 1155.87        2978.00           1596          69.00       277.68
 1155.90        2978.25           1600          65.00       260.25
 1155.93        2978.50           1603          72.00       290.76
 1155.97        2978.75           1606          68.00       273.32
 1156.00        2979.00           1610          76.00       308.20
 1156.03        2979.25           1613          73.00       295.12
 1156.06        2979.50           1616          67.00       268.96
 1156.09        2979.75           1620          65.00       260.25
 1156.12        2980.00           1623          59.00       234.09
 1156.15        2980.25           1626          71.00       286.40
 1156.18        2980.50           1630          67.00       268.96
 1156.21        2980.75           1633          68.00       273.32
 1156.24        2981.00           1637          71.00       286.40
 1156.27        2981.25           1640          73.00       295.12
 1156.31        2981.50           1643          62.00       247.17
 1156.34        2981.75           1647          66.00       264.61
 1156.37        2982.00           1650          63.00       251.53
 1156.40        2982.25           1653          61.00       242.81
 1156.43        2982.50           1657          62.00       247.17
 1156.46        2982.75           1660          69.00       277.68
 1156.49        2983.00           1663          73.00       295.12
 1156.52        2983.25           1667          68.00       273.32
 1156.55        2983.50           1670          63.00       251.53
 1156.58        2983.75           1673          57.00       225.37
 1156.61        2984.00           1677          54.00       212.29
HS scan finished at 19:16:50
end
