************************************************************
  HS Scan of (1) Internal mercury lamp
************************************************************
Integration time is 0.2294 seconds per sample
dh250918Manchester 53.47 2.23 2.804185pr1000
************************************************************
Dead Time -------------------------  3E-08 
Number of Cycles Used -------------  4 
Starting Wavelength (Angstroms) ---  2950 
Final Wavelength (Angstoms) -------  2984 
Wavelength Increment (Angstroms) --  .25 
Filter Wheel #1 Position ---------- (1) Ground quartz diffuser (ND=2.32)
Filter Wheel #2 Position ---------- (1) Neutral Density 0.494



************************************************************
HS scan start time = 02:54:32
Dark Count =  6.7 


Time (GMT)  Wavelength (Ang)  Step Number  Raw Counts  Counts/Second

  174.90        2950.00           1222          51.00       193.11
  174.97        2950.25           1226          51.00       193.11
  175.00        2950.50           1229          48.00       180.04
  175.03        2950.75           1232          54.00       206.19
  175.06        2951.00           1236          56.00       214.91
  175.09        2951.25           1239          60.00       232.35
  175.12        2951.50           1242          49.00       184.40
  175.15        2951.75           1246          49.00       184.40
  175.19        2952.00           1249          53.00       201.83
  175.22        2952.25           1252          46.00       171.32
  175.25        2952.50           1256          54.00       206.19
  175.28        2952.75           1259          50.00       188.75
  175.31        2953.00           1262          53.00       201.83
  175.34        2953.25           1266          46.00       171.32
  175.37        2953.50           1269          53.00       201.83
  175.40        2953.75           1272          49.00       184.40
  175.43        2954.00           1276          52.00       197.47
  175.46        2954.25           1279          42.00       153.88
  175.49        2954.50           1282          48.00       180.04
  175.52        2954.75           1286          55.00       210.55
  175.55        2955.00           1289          46.00       171.32
  175.58        2955.25           1292          44.00       162.60
  175.61        2955.50           1296          46.00       171.32
  175.64        2955.75           1299          58.00       223.63
  175.67        2956.00           1302          54.00       206.19
  175.71        2956.25           1306          49.00       184.40
  175.74        2956.50           1309          49.00       184.40
  175.77        2956.75           1312          57.00       219.27
  175.80        2957.00           1316          55.00       210.55
  175.83        2957.25           1319          47.00       175.68
  175.86        2957.50           1322          46.00       171.32
  175.89        2957.75           1326          48.00       180.04
  175.92        2958.00           1329          51.00       193.11
  175.95        2958.25           1332          50.00       188.75
  175.98        2958.50           1336          60.00       232.35
  176.01        2958.75           1339          51.00       193.11
  176.04        2959.00           1342          50.00       188.75
  176.08        2959.25           1346          45.00       166.96
  176.11        2959.50           1349          49.00       184.40
  176.14        2959.75           1352          54.00       206.19
  176.17        2960.00           1356          67.00       262.86
  176.20        2960.25           1359          74.00       293.38
  176.23        2960.50           1362         129.00       533.14
  176.26        2960.75           1366         137.00       568.01
  176.29        2961.00           1369         170.00       711.87
  176.32        2961.25           1372         211.00       890.61
  176.35        2961.50           1376         258.00      1095.50
  176.38        2961.75           1379         330.00      1409.39
  176.41        2962.00           1382         624.00      2691.15
  176.44        2962.25           1386        1784.00      7749.40
  176.47        2962.50           1389        2979.00     12961.89
  176.51        2962.75           1392        4113.00     17909.79
  176.54        2963.00           1396        5835.00     25426.10
  176.57        2963.25           1399        7011.00     30561.13
  176.60        2963.50           1402        8141.00     35496.81
  176.63        2963.75           1406        9854.00     42981.72
  176.66        2964.00           1409       11016.00     48060.97
  176.69        2964.25           1412       12194.00     53211.73
  176.72        2964.50           1416       13735.00     59952.11
  176.75        2964.75           1419       15025.00     65596.71
  176.79        2965.00           1422       16170.00     70608.43
  176.82        2965.25           1426       17787.00     77688.71
  176.85        2965.50           1429       19023.00     83102.75
  176.88        2965.75           1432       20159.00     88080.30
  176.91        2966.00           1436       21691.00     94795.37
  176.94        2966.25           1439       22955.00    100337.80
  176.97        2966.50           1442       24165.00    105645.10
  177.00        2966.75           1446       25468.00    111362.30
  177.03        2967.00           1449       26161.00    114403.70
  177.06        2967.25           1452       26224.00    114680.30
  177.09        2967.50           1456       26178.00    114478.40
  177.13        2967.75           1459       26161.00    114403.70
  177.16        2968.00           1462       26132.00    114276.50
  177.19        2968.25           1466       25660.00    112204.90
  177.22        2968.50           1469       24642.00    107737.80
  177.25        2968.75           1472       23630.00    103298.30
  177.28        2969.00           1476       21992.00     96115.02
  177.31        2969.25           1479       20816.00     90959.74
  177.34        2969.50           1482       19494.00     85166.32
  177.37        2969.75           1486       17833.00     77890.18
  177.41        2970.00           1489       16660.00     72753.66
  177.44        2970.25           1492       15647.00     68319.05
  177.47        2970.50           1496       14066.00     61400.27
  177.50        2970.75           1499       12823.00     55962.67
  177.53        2971.00           1502       11645.00     50811.05
  177.56        2971.25           1506        9946.00     43383.81
  177.59        2971.50           1509        8685.00     37873.43
  177.62        2971.75           1513        6985.00     30447.59
  177.65        2972.00           1516        5970.00     26015.50
  177.69        2972.25           1519        4791.00     20868.77
  177.72        2972.50           1523        3219.00     14008.94
  177.75        2972.75           1526        2023.00      8791.77
  177.78        2973.00           1529         931.00      4029.69
  177.81        2973.25           1533         429.00      1840.99
  177.84        2973.50           1536         302.00      1287.32
  177.87        2973.75           1539         260.00      1104.22
  177.90        2974.00           1543         226.00       956.00
  177.93        2974.25           1546         187.00       785.98
  177.96        2974.50           1549         144.00       598.53
  177.99        2974.75           1553         109.00       445.95
  178.02        2975.00           1556          83.00       332.61
  178.05        2975.25           1559          55.00       210.55
  178.08        2975.50           1563          59.00       227.99
  178.12        2975.75           1566          55.00       210.55
  178.15        2976.00           1569          47.00       175.68
  178.18        2976.25           1573          52.00       197.47
  178.21        2976.50           1576          46.00       171.32
  178.24        2976.75           1579          46.00       171.32
  178.27        2977.00           1583          44.00       162.60
  178.30        2977.25           1586          43.00       158.24
  178.33        2977.50           1590          45.00       166.96
  178.36        2977.75           1593          46.00       171.32
  178.39        2978.00           1596          46.00       171.32
  178.43        2978.25           1600          46.00       171.32
  178.46        2978.50           1603          54.00       206.19
  178.49        2978.75           1606          41.00       149.52
  178.52        2979.00           1610          41.00       149.52
  178.55        2979.25           1613          45.00       166.96
  178.58        2979.50           1616          43.00       158.24
  178.61        2979.75           1620          42.00       153.88
  178.64        2980.00           1623          46.00       171.32
  178.67        2980.25           1626          45.00       166.96
  178.71        2980.50           1630          44.00       162.60
  178.74        2980.75           1633          47.00       175.68
  178.77        2981.00           1637          47.00       175.68
  178.80        2981.25           1640          45.00       166.96
  178.83        2981.50           1643          53.00       201.83
  178.86        2981.75           1647          47.00       175.68
  178.89        2982.00           1650          55.00       210.55
  178.92        2982.25           1653          42.00       153.88
  178.95        2982.50           1657          45.00       166.96
  178.98        2982.75           1660          45.00       166.96
  179.01        2983.00           1663          46.00       171.32
  179.04        2983.25           1667          47.00       175.68
  179.08        2983.50           1670          46.00       171.32
  179.11        2983.75           1673          43.00       158.24
  179.14        2984.00           1677          47.00       175.68
HS scan finished at 02:59:21
end
************************************************************
  HS Scan of (1) Internal mercury lamp
************************************************************
Integration time is 0.2294 seconds per sample
dh250918Manchester 53.47 2.23 2.857833pr1000
************************************************************
Dead Time -------------------------  3E-08 
Number of Cycles Used -------------  4 
Starting Wavelength (Angstroms) ---  2950 
Final Wavelength (Angstoms) -------  2984 
Wavelength Increment (Angstroms) --  .25 
Filter Wheel #1 Position ---------- (1) Ground quartz diffuser (ND=2.32)
Filter Wheel #2 Position ---------- (1) Neutral Density 0.494



************************************************************
HS scan start time = 19:12:03
Dark Count =  7 


Time (GMT)  Wavelength (Ang)  Step Number  Raw Counts  Counts/Second

 1152.42        2950.00           1222          53.00       200.52
 1152.49        2950.25           1226          48.00       178.73
 1152.52        2950.50           1229          48.00       178.73
 1152.55        2950.75           1232          46.00       170.01
 1152.58        2951.00           1236          46.00       170.01
 1152.61        2951.25           1239          48.00       178.73
 1152.64        2951.50           1242          51.00       191.81
 1152.67        2951.75           1246          42.00       152.57
 1152.70        2952.00           1249          52.00       196.17
 1152.73        2952.25           1252          49.00       183.09
 1152.76        2952.50           1256          62.00       239.76
 1152.79        2952.75           1259          52.00       196.17
 1152.83        2953.00           1262          59.00       226.68
 1152.86        2953.25           1266          44.00       161.29
 1152.89        2953.50           1269          43.00       156.93
 1152.92        2953.75           1272          57.00       217.96
 1152.95        2954.00           1276          46.00       170.01
 1152.98        2954.25           1279          53.00       200.52
 1153.01        2954.50           1282          44.00       161.29
 1153.04        2954.75           1286          52.00       196.17
 1153.07        2955.00           1289          38.00       135.14
 1153.10        2955.25           1292          52.00       196.17
 1153.14        2955.50           1296          50.00       187.45
 1153.17        2955.75           1299          54.00       204.88
 1153.20        2956.00           1302          57.00       217.96
 1153.23        2956.25           1306          51.00       191.81
 1153.26        2956.50           1309          54.00       204.88
 1153.29        2956.75           1312          53.00       200.52
 1153.32        2957.00           1316          50.00       187.45
 1153.35        2957.25           1319          46.00       170.01
 1153.38        2957.50           1322          56.00       213.60
 1153.41        2957.75           1326          46.00       170.01
 1153.44        2958.00           1329          56.00       213.60
 1153.47        2958.25           1332          46.00       170.01
 1153.50        2958.50           1336          50.00       187.45
 1153.54        2958.75           1339          56.00       213.60
 1153.57        2959.00           1342          51.00       191.81
 1153.60        2959.25           1346          62.00       239.76
 1153.63        2959.50           1349          65.00       252.84
 1153.66        2959.75           1352          71.00       278.99
 1153.69        2960.00           1356          89.00       357.46
 1153.72        2960.25           1359         110.00       449.00
 1153.75        2960.50           1362         142.00       588.50
 1153.78        2960.75           1366         186.00       780.31
 1153.81        2961.00           1369         201.00       845.71
 1153.84        2961.25           1372         243.00      1028.80
 1153.87        2961.50           1376         347.00      1482.19
 1153.90        2961.75           1379         653.00      2816.28
 1153.93        2962.00           1382        1334.00      5785.66
 1153.97        2962.25           1386        2668.00     11603.87
 1154.00        2962.50           1389        3839.00     16712.82
 1154.03        2962.75           1392        4967.00     21635.66
 1154.06        2963.00           1396        6626.00     28878.54
 1154.09        2963.25           1399        7838.00     34171.89
 1154.12        2963.50           1402        9146.00     39886.41
 1154.15        2963.75           1406       10771.00     46988.60
 1154.18        2964.00           1409       11999.00     52357.68
 1154.21        2964.25           1412       13384.00     58415.28
 1154.24        2964.50           1416       15202.00     66370.03
 1154.28        2964.75           1419       16391.00     71574.63
 1154.31        2965.00           1422       17540.00     76605.68
 1154.34        2965.25           1426       19097.00     83425.63
 1154.37        2965.50           1429       20285.00     88631.16
 1154.40        2965.75           1432       21652.00     94623.06
 1154.43        2966.00           1436       23254.00    101647.80
 1154.46        2966.25           1439       24401.00    106679.10
 1154.49        2966.50           1442       25412.00    111115.20
 1154.52        2966.75           1446       26553.00    116123.10
 1154.55        2967.00           1449       26805.00    117229.40
 1154.58        2967.25           1452       26705.00    116790.40
 1154.61        2967.50           1456       26863.00    117484.00
 1154.65        2967.75           1459       26718.00    116847.40
 1154.68        2968.00           1462       26593.00    116298.70
 1154.71        2968.25           1466       25648.00    112150.90
 1154.74        2968.50           1469       24626.00    107666.30
 1154.77        2968.75           1472       23361.00    102117.10
 1154.80        2969.00           1476       21936.00     95868.18
 1154.83        2969.25           1479       20708.00     90485.05
 1154.86        2969.50           1482       19669.00     85931.80
 1154.89        2969.75           1486       18048.00     78830.50
 1154.93        2970.00           1489       16697.00     72914.35
 1154.96        2970.25           1492       15479.00     67582.40
 1154.99        2970.50           1496       13801.00     60239.54
 1155.02        2970.75           1499       12467.00     54404.33
 1155.05        2971.00           1502       11268.00     49161.39
 1155.08        2971.25           1506        9591.00     41831.02
 1155.11        2971.50           1509        8316.00     36260.00
 1155.14        2971.75           1513        6634.00     28913.47
 1155.17        2972.00           1516        5559.00     24219.86
 1155.20        2972.25           1519        4290.00     18680.91
 1155.23        2972.50           1523        2788.00     12127.34
 1155.27        2972.75           1526        1704.00      7399.20
 1155.30        2973.00           1529         750.00      3239.20
 1155.33        2973.25           1533         348.00      1486.55
 1155.36        2973.50           1536         268.00      1137.79
 1155.39        2973.75           1539         235.00       993.93
 1155.42        2974.00           1543         194.00       815.19
 1155.45        2974.25           1546         148.00       614.66
 1155.48        2974.50           1549         110.00       449.00
 1155.51        2974.75           1553          69.00       270.27
 1155.54        2975.00           1556          61.00       235.40
 1155.58        2975.25           1559          53.00       200.52
 1155.61        2975.50           1563          42.00       152.57
 1155.64        2975.75           1566          46.00       170.01
 1155.67        2976.00           1569          55.00       209.24
 1155.70        2976.25           1573          56.00       213.60
 1155.73        2976.50           1576          48.00       178.73
 1155.76        2976.75           1579          50.00       187.45
 1155.79        2977.00           1583          48.00       178.73
 1155.82        2977.25           1586          48.00       178.73
 1155.85        2977.50           1590          54.00       204.88
 1155.88        2977.75           1593          53.00       200.52
 1155.91        2978.00           1596          47.00       174.37
 1155.94        2978.25           1600          51.00       191.81
 1155.97        2978.50           1603          49.00       183.09
 1156.01        2978.75           1606          46.00       170.01
 1156.04        2979.00           1610          43.00       156.93
 1156.07        2979.25           1613          54.00       204.88
 1156.10        2979.50           1616          44.00       161.29
 1156.13        2979.75           1620          42.00       152.57
 1156.16        2980.00           1623          44.00       161.29
 1156.19        2980.25           1626          51.00       191.81
 1156.22        2980.50           1630          52.00       196.17
 1156.25        2980.75           1633          48.00       178.73
 1156.28        2981.00           1637          56.00       213.60
 1156.31        2981.25           1640          47.00       174.37
 1156.34        2981.50           1643          48.00       178.73
 1156.37        2981.75           1647          44.00       161.29
 1156.40        2982.00           1650          47.00       174.37
 1156.43        2982.25           1653          42.00       152.57
 1156.47        2982.50           1657          48.00       178.73
 1156.50        2982.75           1660          40.00       143.85
 1156.53        2983.00           1663          48.00       178.73
 1156.56        2983.25           1667          46.00       170.01
 1156.59        2983.50           1670          39.00       139.49
 1156.62        2983.75           1673          48.00       178.73
 1156.65        2984.00           1677          42.00       152.57
HS scan finished at 19:16:52
end
