************************************************************
  HS Scan of (1) Internal mercury lamp
************************************************************
Integration time is 0.2294 seconds per sample
dh170918Manchester 53.47 2.23 2.804185pr1000
************************************************************
Dead Time -------------------------  3E-08 
Number of Cycles Used -------------  4 
Starting Wavelength (Angstroms) ---  2950 
Final Wavelength (Angstoms) -------  2984 
Wavelength Increment (Angstroms) --  .25 
Filter Wheel #1 Position ---------- (1) Ground quartz diffuser (ND=2.32)
Filter Wheel #2 Position ---------- (1) Neutral Density 0.494



************************************************************
HS scan start time = 02:22:41
Dark Count =  5 


Time (GMT)  Wavelength (Ang)  Step Number  Raw Counts  Counts/Second

  143.06        2950.00           1222          52.00       204.88
  143.12        2950.25           1226          47.00       183.09
  143.16        2950.50           1229          53.00       209.24
  143.19        2950.75           1232          58.00       231.04
  143.22        2951.00           1236          49.00       191.81
  143.25        2951.25           1239          61.00       244.12
  143.28        2951.50           1242          62.00       248.48
  143.31        2951.75           1246          61.00       244.12
  143.34        2952.00           1249          51.00       200.52
  143.37        2952.25           1252          57.00       226.68
  143.40        2952.50           1256          49.00       191.81
  143.43        2952.75           1259          53.00       209.24
  143.47        2953.00           1262          63.00       252.84
  143.50        2953.25           1266          59.00       235.40
  143.53        2953.50           1269          50.00       196.17
  143.56        2953.75           1272          54.00       213.60
  143.59        2954.00           1276          54.00       213.60
  143.62        2954.25           1279          55.00       217.96
  143.65        2954.50           1282          52.00       204.88
  143.68        2954.75           1286          46.00       178.73
  143.71        2955.00           1289          49.00       191.81
  143.74        2955.25           1292          50.00       196.17
  143.77        2955.50           1296          45.00       174.37
  143.80        2955.75           1299          48.00       187.45
  143.83        2956.00           1302          48.00       187.45
  143.86        2956.25           1306          51.00       200.52
  143.90        2956.50           1309          54.00       213.60
  143.93        2956.75           1312          45.00       174.37
  143.96        2957.00           1316          55.00       217.96
  143.99        2957.25           1319          50.00       196.17
  144.02        2957.50           1322          47.00       183.09
  144.05        2957.75           1326          48.00       187.45
  144.08        2958.00           1329          55.00       217.96
  144.11        2958.25           1332          53.00       209.24
  144.14        2958.50           1336          53.00       209.24
  144.17        2958.75           1339          45.00       174.37
  144.20        2959.00           1342          45.00       174.37
  144.23        2959.25           1346          47.00       183.09
  144.26        2959.50           1349          55.00       217.96
  144.29        2959.75           1352          65.00       261.55
  144.32        2960.00           1356          76.00       309.51
  144.36        2960.25           1359          92.00       379.25
  144.39        2960.50           1362         131.00       549.27
  144.42        2960.75           1366         159.00       671.33
  144.45        2961.00           1369         202.00       858.78
  144.48        2961.25           1372         253.00      1081.12
  144.51        2961.50           1376         300.00      1286.01
  144.54        2961.75           1379         451.00      1944.32
  144.57        2962.00           1382        1040.00      4512.38
  144.60        2962.25           1386        2409.00     10482.81
  144.64        2962.50           1389        3534.00     15390.71
  144.67        2962.75           1392        4692.00     20444.10
  144.70        2963.00           1396        6464.00     28179.88
  144.73        2963.25           1399        7710.00     33621.52
  144.76        2963.50           1402        8962.00     39091.15
  144.79        2963.75           1406       10629.00     46376.60
  144.82        2964.00           1409       11928.00     52055.96
  144.85        2964.25           1412       13176.00     57514.15
  144.88        2964.50           1416       14869.00     64921.44
  144.91        2964.75           1419       16087.00     70252.53
  144.94        2965.00           1422       17383.00     75926.90
  144.97        2965.25           1426       19005.00     83031.34
  145.01        2965.50           1429       20245.00     88464.62
  145.04        2965.75           1432       21454.00     93763.82
  145.07        2966.00           1436       23117.00    101055.70
  145.10        2966.25           1439       24345.00    106442.20
  145.13        2966.50           1442       25488.00    111457.50
  145.16        2966.75           1446       26524.00    116004.60
  145.19        2967.00           1449       26717.00    116851.80
  145.22        2967.25           1452       26656.00    116584.00
  145.25        2967.50           1456       26719.00    116860.60
  145.29        2967.75           1459       26573.00    116219.70
  145.32        2968.00           1462       26672.00    116654.30
  145.35        2968.25           1466       25709.00    112427.40
  145.38        2968.50           1469       24723.00    108100.70
  145.41        2968.75           1472       23458.00    102551.30
  145.44        2969.00           1476       21932.00     95859.41
  145.47        2969.25           1479       20788.00     90844.46
  145.50        2969.50           1482       19369.00     84626.09
  145.53        2969.75           1486       17717.00     77389.58
  145.56        2970.00           1489       16510.00     72104.36
  145.60        2970.25           1492       15312.00     66860.22
  145.63        2970.50           1496       13728.00     59928.92
  145.66        2970.75           1499       12388.00     54067.58
  145.69        2971.00           1502       11258.00     49126.40
  145.72        2971.25           1506        9713.00     42372.92
  145.75        2971.50           1509        8361.00     36465.33
  145.78        2971.75           1513        6772.00     29524.83
  145.81        2972.00           1516        5610.00     24451.24
  145.84        2972.25           1519        4383.00     19095.50
  145.88        2972.50           1523        2802.00     12197.14
  145.91        2972.75           1526        1668.00      7250.92
  145.94        2973.00           1529         770.00      3335.12
  145.97        2973.25           1533         363.00      1560.67
  146.00        2973.50           1536         285.00      1220.62
  146.03        2973.75           1539         242.00      1033.16
  146.06        2974.00           1543         192.00       815.19
  146.09        2974.25           1546         147.00       619.02
  146.12        2974.50           1549         109.00       453.36
  146.15        2974.75           1553          90.00       370.54
  146.19        2975.00           1556          68.00       274.63
  146.22        2975.25           1559          57.00       226.68
  146.25        2975.50           1563          50.00       196.17
  146.28        2975.75           1566          52.00       204.88
  146.31        2976.00           1569          46.00       178.73
  146.34        2976.25           1573          47.00       183.09
  146.37        2976.50           1576          50.00       196.17
  146.40        2976.75           1579          43.00       165.65
  146.43        2977.00           1583          50.00       196.17
  146.46        2977.25           1586          46.00       178.73
  146.49        2977.50           1590          47.00       183.09
  146.52        2977.75           1593          45.00       174.37
  146.55        2978.00           1596          38.00       143.85
  146.58        2978.25           1600          47.00       183.09
  146.62        2978.50           1603          47.00       183.09
  146.65        2978.75           1606          47.00       183.09
  146.68        2979.00           1610          46.00       178.73
  146.71        2979.25           1613          42.00       161.29
  146.74        2979.50           1616          47.00       183.09
  146.77        2979.75           1620          45.00       174.37
  146.80        2980.00           1623          42.00       161.29
  146.83        2980.25           1626          42.00       161.29
  146.86        2980.50           1630          47.00       183.09
  146.89        2980.75           1633          47.00       183.09
  146.92        2981.00           1637          45.00       174.37
  146.95        2981.25           1640          44.00       170.01
  146.98        2981.50           1643          44.00       170.01
  147.01        2981.75           1647          43.00       165.65
  147.04        2982.00           1650          56.00       222.32
  147.08        2982.25           1653          46.00       178.73
  147.11        2982.50           1657          48.00       187.45
  147.14        2982.75           1660          40.00       152.57
  147.17        2983.00           1663          49.00       191.81
  147.20        2983.25           1667          54.00       213.60
  147.23        2983.50           1670          38.00       143.85
  147.26        2983.75           1673          49.00       191.81
  147.29        2984.00           1677          52.00       204.88
HS scan finished at 02:27:30
end
************************************************************
  HS Scan of (1) Internal mercury lamp
************************************************************
Integration time is 0.2294 seconds per sample
dh170918Manchester 53.47 2.23 3.018777pr1000
************************************************************
Dead Time -------------------------  3E-08 
Number of Cycles Used -------------  4 
Starting Wavelength (Angstroms) ---  2950 
Final Wavelength (Angstoms) -------  2984 
Wavelength Increment (Angstroms) --  .25 
Filter Wheel #1 Position ---------- (1) Ground quartz diffuser (ND=2.32)
Filter Wheel #2 Position ---------- (1) Neutral Density 0.494



************************************************************
HS scan start time = 19:12:04
Dark Count =  5.1 


Time (GMT)  Wavelength (Ang)  Step Number  Raw Counts  Counts/Second

 1152.44        2950.00           1222          53.00       208.81
 1152.50        2950.25           1226          49.00       191.37
 1152.53        2950.50           1229          58.00       230.60
 1152.56        2950.75           1232          53.00       208.81
 1152.59        2951.00           1236          48.00       187.01
 1152.62        2951.25           1239          55.00       217.53
 1152.65        2951.50           1242          50.00       195.73
 1152.68        2951.75           1246          49.00       191.37
 1152.71        2952.00           1249          55.00       217.53
 1152.75        2952.25           1252          62.00       248.04
 1152.78        2952.50           1256          53.00       208.81
 1152.81        2952.75           1259          50.00       195.73
 1152.84        2953.00           1262          53.00       208.81
 1152.87        2953.25           1266          57.00       226.24
 1152.90        2953.50           1269          50.00       195.73
 1152.93        2953.75           1272          46.00       178.29
 1152.96        2954.00           1276          54.00       213.17
 1152.99        2954.25           1279          45.00       173.93
 1153.02        2954.50           1282          50.00       195.73
 1153.05        2954.75           1286          49.00       191.37
 1153.08        2955.00           1289          62.00       248.04
 1153.11        2955.25           1292          50.00       195.73
 1153.14        2955.50           1296          50.00       195.73
 1153.17        2955.75           1299          52.00       204.45
 1153.20        2956.00           1302          55.00       217.53
 1153.23        2956.25           1306          48.00       187.01
 1153.27        2956.50           1309          53.00       208.81
 1153.30        2956.75           1312          48.00       187.01
 1153.33        2957.00           1316          52.00       204.45
 1153.36        2957.25           1319          50.00       195.73
 1153.39        2957.50           1322          52.00       204.45
 1153.42        2957.75           1326          52.00       204.45
 1153.45        2958.00           1329          49.00       191.37
 1153.48        2958.25           1332          60.00       239.32
 1153.51        2958.50           1336          45.00       173.93
 1153.54        2958.75           1339          56.00       221.88
 1153.57        2959.00           1342          49.00       191.37
 1153.60        2959.25           1346          55.00       217.53
 1153.63        2959.50           1349          75.00       304.71
 1153.67        2959.75           1352          74.00       300.35
 1153.70        2960.00           1356          98.00       404.97
 1153.73        2960.25           1359         141.00       592.43
 1153.76        2960.50           1362         161.00       679.61
 1153.79        2960.75           1366         202.00       858.35
 1153.82        2961.00           1369         238.00      1015.29
 1153.85        2961.25           1372         292.00      1250.70
 1153.88        2961.50           1376         361.00      1551.51
 1153.91        2961.75           1379         583.00      2519.37
 1153.94        2962.00           1382        1187.00      5152.93
 1153.97        2962.25           1386        2598.00     11306.80
 1154.00        2962.50           1389        3952.00     17214.21
 1154.03        2962.75           1392        5217.00     22735.20
 1154.06        2963.00           1396        7067.00     30812.69
 1154.09        2963.25           1399        8419.00     36718.29
 1154.13        2963.50           1402        9763.00     42591.01
 1154.16        2963.75           1406       11629.00     50748.09
 1154.19        2964.00           1409       12981.00     56660.75
 1154.22        2964.25           1412       14235.00     62146.71
 1154.25        2964.50           1416       16086.00     70247.71
 1154.28        2964.75           1419       17383.00     75926.46
 1154.31        2965.00           1422       18576.00     81151.56
 1154.34        2965.25           1426       20266.00     88556.24
 1154.37        2965.50           1429       21615.00     94469.19
 1154.41        2965.75           1432       22941.00    100283.40
 1154.44        2966.00           1436       24885.00    108811.00
 1154.47        2966.25           1439       26101.00    114147.40
 1154.50        2966.50           1442       27367.00    119705.10
 1154.53        2966.75           1446       28650.00    125339.20
 1154.56        2967.00           1449       29176.00    127649.60
 1154.59        2967.25           1452       29077.00    127214.80
 1154.62        2967.50           1456       29039.00    127047.90
 1154.65        2967.75           1459       29096.00    127298.20
 1154.68        2968.00           1462       28746.00    125760.90
 1154.71        2968.25           1466       28219.00    123446.30
 1154.75        2968.50           1469       27315.00    119476.70
 1154.78        2968.75           1472       26001.00    113708.50
 1154.81        2969.00           1476       24185.00    105739.90
 1154.84        2969.25           1479       22779.00     99572.94
 1154.87        2969.50           1482       21505.00     93986.96
 1154.90        2969.75           1486       19611.00     85685.98
 1154.93        2970.00           1489       18336.00     80100.28
 1154.96        2970.25           1492       17096.00     74669.70
 1154.99        2970.50           1496       15336.00     66964.82
 1155.02        2970.75           1499       13896.00     60663.48
 1155.06        2971.00           1502       12587.00     54937.47
 1155.09        2971.25           1506       10959.00     47818.78
 1155.12        2971.50           1509        9461.00     41271.21
 1155.15        2971.75           1513        7806.00     34040.42
 1155.18        2972.00           1516        6356.00     27707.85
 1155.21        2972.25           1519        4994.00     21761.81
 1155.24        2972.50           1523        3309.00     14408.58
 1155.27        2972.75           1526        1997.00      8685.35
 1155.30        2973.00           1529         856.00      3709.65
 1155.33        2973.25           1533         383.00      1647.42
 1155.37        2973.50           1536         290.00      1241.98
 1155.40        2973.75           1539         242.00      1032.73
 1155.43        2974.00           1543         192.00       814.75
 1155.46        2974.25           1546         160.00       675.25
 1155.49        2974.50           1549         112.00       466.00
 1155.52        2974.75           1553          78.00       317.79
 1155.55        2975.00           1556          59.00       234.96
 1155.58        2975.25           1559          54.00       213.17
 1155.61        2975.50           1563          53.00       208.81
 1155.64        2975.75           1566          51.00       200.09
 1155.67        2976.00           1569          52.00       204.45
 1155.71        2976.25           1573          56.00       221.88
 1155.74        2976.50           1576          44.00       169.57
 1155.77        2976.75           1579          51.00       200.09
 1155.80        2977.00           1583          49.00       191.37
 1155.83        2977.25           1586          50.00       195.73
 1155.86        2977.50           1590          46.00       178.29
 1155.89        2977.75           1593          55.00       217.53
 1155.92        2978.00           1596          56.00       221.88
 1155.95        2978.25           1600          47.00       182.65
 1155.98        2978.50           1603          52.00       204.45
 1156.01        2978.75           1606          53.00       208.81
 1156.04        2979.00           1610          43.00       165.21
 1156.08        2979.25           1613          52.00       204.45
 1156.11        2979.50           1616          43.00       165.21
 1156.14        2979.75           1620          46.00       178.29
 1156.17        2980.00           1623          48.00       187.01
 1156.20        2980.25           1626          52.00       204.45
 1156.23        2980.50           1630          54.00       213.17
 1156.26        2980.75           1633          46.00       178.29
 1156.29        2981.00           1637          46.00       178.29
 1156.32        2981.25           1640          44.00       169.57
 1156.35        2981.50           1643          43.00       165.21
 1156.38        2981.75           1647          52.00       204.45
 1156.41        2982.00           1650          45.00       173.93
 1156.45        2982.25           1653          46.00       178.29
 1156.48        2982.50           1657          48.00       187.01
 1156.51        2982.75           1660          47.00       182.65
 1156.54        2983.00           1663          49.00       191.37
 1156.57        2983.25           1667          48.00       187.01
 1156.60        2983.50           1670          51.00       200.09
 1156.63        2983.75           1673          43.00       165.21
 1156.66        2984.00           1677          48.00       187.01
HS scan finished at 19:16:53
end
