************************************************************
  HS Scan of (1) Internal mercury lamp
************************************************************
Integration time is 0.2294 seconds per sample
dh220918Manchester 53.47 2.23 2.804185pr1000
************************************************************
Dead Time -------------------------  3E-08 
Number of Cycles Used -------------  4 
Starting Wavelength (Angstroms) ---  2950 
Final Wavelength (Angstoms) -------  2984 
Wavelength Increment (Angstroms) --  .25 
Filter Wheel #1 Position ---------- (1) Ground quartz diffuser (ND=2.32)
Filter Wheel #2 Position ---------- (1) Neutral Density 0.494



************************************************************
HS scan start time = 02:42:46
Dark Count =  6.3 


Time (GMT)  Wavelength (Ang)  Step Number  Raw Counts  Counts/Second

  163.14        2950.00           1222          52.00       199.22
  163.20        2950.25           1226          48.00       181.78
  163.23        2950.50           1229          47.00       177.42
  163.27        2950.75           1232          56.00       216.65
  163.30        2951.00           1236          45.00       168.70
  163.33        2951.25           1239          46.00       173.06
  163.36        2951.50           1242          52.00       199.22
  163.39        2951.75           1246          49.00       186.14
  163.42        2952.00           1249          55.00       212.29
  163.45        2952.25           1252          43.00       159.98
  163.48        2952.50           1256          55.00       212.29
  163.51        2952.75           1259          51.00       194.86
  163.54        2953.00           1262          45.00       168.70
  163.57        2953.25           1266          51.00       194.86
  163.60        2953.50           1269          50.00       190.50
  163.63        2953.75           1272          54.00       207.94
  163.66        2954.00           1276          54.00       207.94
  163.69        2954.25           1279          47.00       177.42
  163.73        2954.50           1282          57.00       221.01
  163.76        2954.75           1286          50.00       190.50
  163.79        2955.00           1289          53.00       203.58
  163.82        2955.25           1292          54.00       207.94
  163.85        2955.50           1296          51.00       194.86
  163.88        2955.75           1299          54.00       207.94
  163.91        2956.00           1302          55.00       212.29
  163.94        2956.25           1306          58.00       225.37
  163.97        2956.50           1309          44.00       164.34
  164.00        2956.75           1312          49.00       186.14
  164.03        2957.00           1316          54.00       207.94
  164.06        2957.25           1319          52.00       199.22
  164.09        2957.50           1322          47.00       177.42
  164.12        2957.75           1326          51.00       194.86
  164.15        2958.00           1329          52.00       199.22
  164.19        2958.25           1332          44.00       164.34
  164.22        2958.50           1336          55.00       212.29
  164.25        2958.75           1339          56.00       216.65
  164.28        2959.00           1342          61.00       238.45
  164.31        2959.25           1346          51.00       194.86
  164.34        2959.50           1349          44.00       164.34
  164.37        2959.75           1352          61.00       238.45
  164.40        2960.00           1356          80.00       321.28
  164.43        2960.25           1359         105.00       430.26
  164.46        2960.50           1362         132.00       547.96
  164.49        2960.75           1366         174.00       731.05
  164.52        2961.00           1369         203.00       857.48
  164.56        2961.25           1372         245.00      1040.57
  164.59        2961.50           1376         294.00      1254.19
  164.62        2961.75           1379         351.00      1502.68
  164.65        2962.00           1382         614.00      2649.30
  164.68        2962.25           1386        1786.00      7759.87
  164.71        2962.50           1389        2901.00     12623.35
  164.74        2962.75           1392        4150.00     18073.00
  164.77        2963.00           1396        5834.00     25423.48
  164.80        2963.25           1399        7074.00     30838.02
  164.83        2963.50           1402        8202.00     35765.03
  164.86        2963.75           1406        9817.00     42821.76
  164.89        2964.00           1409       11002.00     48001.51
  164.93        2964.25           1412       12369.00     53978.80
  164.96        2964.50           1416       13954.00     60911.99
  164.99        2964.75           1419       15197.00     66351.21
  165.02        2965.00           1422       16397.00     71603.96
  165.05        2965.25           1426       18151.00     79284.69
  165.08        2965.50           1429       19213.00     83936.90
  165.11        2965.75           1432       20591.00     89975.33
  165.14        2966.00           1436       22221.00     97120.84
  165.17        2966.25           1439       23356.00    102098.20
  165.20        2966.50           1442       24414.00    106739.20
  165.23        2966.75           1446       25735.00    112535.80
  165.26        2967.00           1449       26272.00    114892.70
  165.30        2967.25           1452       26418.00    115533.60
  165.33        2967.50           1456       26362.00    115287.80
  165.36        2967.75           1459       26511.00    115941.80
  165.39        2968.00           1462       26380.00    115366.80
  165.42        2968.25           1466       25740.00    112557.70
  165.45        2968.50           1469       24803.00    108446.00
  165.48        2968.75           1472       23783.00    103971.10
  165.51        2969.00           1476       22242.00     97212.91
  165.54        2969.25           1479       21094.00     92180.02
  165.57        2969.50           1482       20062.00     87656.98
  165.60        2969.75           1486       18254.00     79735.85
  165.64        2970.00           1489       17053.00     74476.15
  165.67        2970.25           1492       15899.00     69423.87
  165.70        2970.50           1496       14263.00     62263.98
  165.73        2970.75           1499       13001.00     56742.99
  165.76        2971.00           1502       11796.00     51473.07
  165.79        2971.25           1506       10078.00     43962.48
  165.82        2971.50           1509        8973.00     39133.54
  165.85        2971.75           1513        7299.00     31820.69
  165.88        2972.00           1516        6129.00     26711.46
  165.91        2972.25           1519        4951.00     21568.88
  165.94        2972.50           1523        3427.00     14918.18
  165.98        2972.75           1526        2240.00      9739.99
  166.01        2973.00           1529        1140.00      4942.76
  166.04        2973.25           1533         409.00      1755.54
  166.07        2973.50           1536         296.00      1262.91
  166.10        2973.75           1539         238.00      1010.06
  166.13        2974.00           1543         210.00       887.99
  166.16        2974.25           1546         167.00       700.54
  166.19        2974.50           1549         129.00       534.88
  166.22        2974.75           1553          92.00       373.59
  166.25        2975.00           1556          72.00       286.40
  166.29        2975.25           1559          61.00       238.45
  166.32        2975.50           1563          51.00       194.86
  166.35        2975.75           1566          52.00       199.22
  166.38        2976.00           1569          52.00       199.22
  166.41        2976.25           1573          51.00       194.86
  166.44        2976.50           1576          48.00       181.78
  166.47        2976.75           1579          47.00       177.42
  166.50        2977.00           1583          51.00       194.86
  166.53        2977.25           1586          45.00       168.70
  166.56        2977.50           1590          42.00       155.62
  166.59        2977.75           1593          47.00       177.42
  166.62        2978.00           1596          44.00       164.34
  166.65        2978.25           1600          48.00       181.78
  166.68        2978.50           1603          45.00       168.70
  166.71        2978.75           1606          56.00       216.65
  166.75        2979.00           1610          48.00       181.78
  166.78        2979.25           1613          43.00       159.98
  166.81        2979.50           1616          40.00       146.91
  166.84        2979.75           1620          53.00       203.58
  166.87        2980.00           1623          47.00       177.42
  166.90        2980.25           1626          50.00       190.50
  166.93        2980.50           1630          49.00       186.14
  166.96        2980.75           1633          49.00       186.14
  166.99        2981.00           1637          45.00       168.70
  167.02        2981.25           1640          41.00       151.26
  167.05        2981.50           1643          51.00       194.86
  167.08        2981.75           1647          45.00       168.70
  167.11        2982.00           1650          45.00       168.70
  167.14        2982.25           1653          52.00       199.22
  167.18        2982.50           1657          40.00       146.91
  167.21        2982.75           1660          40.00       146.91
  167.24        2983.00           1663          41.00       151.26
  167.27        2983.25           1667          51.00       194.86
  167.30        2983.50           1670          43.00       159.98
  167.33        2983.75           1673          39.00       142.55
  167.36        2984.00           1677          45.00       168.70
HS scan finished at 02:47:35
end
************************************************************
  HS Scan of (1) Internal mercury lamp
************************************************************
Integration time is 0.2294 seconds per sample
dh220918Manchester 53.47 2.23 2.804185pr1000
************************************************************
Dead Time -------------------------  3E-08 
Number of Cycles Used -------------  4 
Starting Wavelength (Angstroms) ---  2950 
Final Wavelength (Angstoms) -------  2984 
Wavelength Increment (Angstroms) --  .25 
Filter Wheel #1 Position ---------- (1) Ground quartz diffuser (ND=2.32)
Filter Wheel #2 Position ---------- (1) Neutral Density 0.494



************************************************************
HS scan start time = 19:12:01
Dark Count =  6.9 


Time (GMT)  Wavelength (Ang)  Step Number  Raw Counts  Counts/Second

 1152.38        2950.00           1222          48.00       179.16
 1152.45        2950.25           1226          44.00       161.73
 1152.48        2950.50           1229          51.00       192.24
 1152.51        2950.75           1232          54.00       205.32
 1152.54        2951.00           1236          50.00       187.88
 1152.57        2951.25           1239          54.00       205.32
 1152.60        2951.50           1242          51.00       192.24
 1152.63        2951.75           1246          40.00       144.29
 1152.66        2952.00           1249          52.00       196.60
 1152.70        2952.25           1252          45.00       166.09
 1152.73        2952.50           1256          55.00       209.68
 1152.76        2952.75           1259          61.00       235.83
 1152.79        2953.00           1262          55.00       209.68
 1152.82        2953.25           1266          54.00       205.32
 1152.85        2953.50           1269          74.00       292.50
 1152.88        2953.75           1272          48.00       179.16
 1152.91        2954.00           1276          52.00       196.60
 1152.94        2954.25           1279          48.00       179.16
 1152.97        2954.50           1282          53.00       200.96
 1153.00        2954.75           1286          55.00       209.68
 1153.03        2955.00           1289          54.00       205.32
 1153.06        2955.25           1292          49.00       183.52
 1153.10        2955.50           1296          47.00       174.80
 1153.13        2955.75           1299          50.00       187.88
 1153.16        2956.00           1302          49.00       183.52
 1153.19        2956.25           1306          53.00       200.96
 1153.22        2956.50           1309          47.00       174.80
 1153.25        2956.75           1312          48.00       179.16
 1153.28        2957.00           1316          53.00       200.96
 1153.31        2957.25           1319          51.00       192.24
 1153.34        2957.50           1322          52.00       196.60
 1153.37        2957.75           1326          47.00       174.80
 1153.40        2958.00           1329          47.00       174.80
 1153.43        2958.25           1332          49.00       183.52
 1153.46        2958.50           1336          51.00       192.24
 1153.49        2958.75           1339          47.00       174.80
 1153.53        2959.00           1342          51.00       192.24
 1153.56        2959.25           1346          53.00       200.96
 1153.59        2959.50           1349          58.00       222.76
 1153.62        2959.75           1352          68.00       266.35
 1153.65        2960.00           1356          86.00       344.82
 1153.68        2960.25           1359         104.00       423.28
 1153.71        2960.50           1362         132.00       545.34
 1153.74        2960.75           1366         172.00       719.72
 1153.77        2961.00           1369         222.00       937.69
 1153.80        2961.25           1372         235.00       994.36
 1153.83        2961.50           1376         320.00      1364.92
 1153.86        2961.75           1379         462.00      1983.99
 1153.89        2962.00           1382        1069.00      4630.55
 1153.92        2962.25           1386        2600.00     11307.67
 1153.95        2962.50           1389        3740.00     16281.27
 1153.98        2962.75           1392        4863.00     21182.16
 1154.02        2963.00           1396        6556.00     28573.31
 1154.05        2963.25           1399        7597.00     33119.64
 1154.08        2963.50           1402        8781.00     38292.00
 1154.11        2963.75           1406       10346.00     45131.25
 1154.14        2964.00           1409       11594.00     50587.17
 1154.17        2964.25           1412       12853.00     56093.01
 1154.20        2964.50           1416       14301.00     62427.62
 1154.23        2964.75           1419       15573.00     67994.27
 1154.26        2965.00           1422       16931.00     73939.33
 1154.29        2965.25           1426       18617.00     81323.28
 1154.32        2965.50           1429       19899.00     86940.06
 1154.35        2965.75           1432       21149.00     92418.48
 1154.38        2966.00           1436       22725.00     99328.24
 1154.42        2966.25           1439       23891.00    104442.30
 1154.45        2966.50           1442       24895.00    108847.00
 1154.48        2966.75           1446       26039.00    113867.40
 1154.51        2967.00           1449       26299.00    115008.60
 1154.54        2967.25           1452       26330.00    115144.70
 1154.57        2967.50           1456       26430.00    115583.60
 1154.60        2967.75           1459       26199.00    114569.70
 1154.63        2968.00           1462       26093.00    114104.40
 1154.66        2968.25           1466       25405.00    111084.90
 1154.69        2968.50           1469       24333.00    106381.30
 1154.72        2968.75           1472       23077.00    100871.90
 1154.75        2969.00           1476       21520.00     94044.82
 1154.79        2969.25           1479       20236.00     88416.86
 1154.82        2969.50           1482       19056.00     83246.44
 1154.85        2969.75           1486       17511.00     76479.11
 1154.88        2970.00           1489       16335.00     71329.90
 1154.91        2970.25           1492       15137.00     66086.00
 1154.94        2970.50           1496       13623.00     59461.25
 1154.97        2970.75           1499       12358.00     53928.07
 1155.00        2971.00           1502       11034.00     48138.78
 1155.03        2971.25           1506        9399.00     40992.40
 1155.06        2971.50           1509        8125.00     35426.04
 1155.09        2971.75           1513        6611.00     28813.48
 1155.12        2972.00           1516        5350.00     23307.93
 1155.15        2972.25           1519        4205.00     18310.40
 1155.19        2972.50           1523        2594.00     11281.50
 1155.22        2972.75           1526        1536.00      6666.98
 1155.25        2973.00           1529         669.00      2886.47
 1155.28        2973.25           1533         343.00      1465.19
 1155.31        2973.50           1536         272.00      1155.66
 1155.34        2973.75           1539         227.00       959.49
 1155.37        2974.00           1543         191.00       802.55
 1155.40        2974.25           1546         147.00       610.73
 1155.43        2974.50           1549         119.00       488.67
 1155.46        2974.75           1553          76.00       301.22
 1155.49        2975.00           1556          64.00       248.91
 1155.52        2975.25           1559          47.00       174.80
 1155.55        2975.50           1563          45.00       166.09
 1155.59        2975.75           1566          48.00       179.16
 1155.62        2976.00           1569          43.00       157.37
 1155.65        2976.25           1573          48.00       179.16
 1155.68        2976.50           1576          51.00       192.24
 1155.71        2976.75           1579          51.00       192.24
 1155.74        2977.00           1583          50.00       187.88
 1155.77        2977.25           1586          52.00       196.60
 1155.80        2977.50           1590          44.00       161.73
 1155.83        2977.75           1593          51.00       192.24
 1155.86        2978.00           1596          52.00       196.60
 1155.89        2978.25           1600          49.00       183.52
 1155.92        2978.50           1603          50.00       187.88
 1155.95        2978.75           1606          44.00       161.73
 1155.98        2979.00           1610          52.00       196.60
 1156.01        2979.25           1613          43.00       157.37
 1156.04        2979.50           1616          50.00       187.88
 1156.07        2979.75           1620          44.00       161.73
 1156.11        2980.00           1623          48.00       179.16
 1156.14        2980.25           1626          52.00       196.60
 1156.17        2980.50           1630          44.00       161.73
 1156.20        2980.75           1633          50.00       187.88
 1156.23        2981.00           1637          61.00       235.83
 1156.26        2981.25           1640          45.00       166.09
 1156.29        2981.50           1643          45.00       166.09
 1156.32        2981.75           1647          54.00       205.32
 1156.35        2982.00           1650          42.00       153.01
 1156.38        2982.25           1653          42.00       153.01
 1156.41        2982.50           1657          45.00       166.09
 1156.44        2982.75           1660          48.00       179.16
 1156.47        2983.00           1663          43.00       157.37
 1156.50        2983.25           1667          48.00       179.16
 1156.53        2983.50           1670          44.00       161.73
 1156.56        2983.75           1673          44.00       161.73
 1156.59        2984.00           1677          43.00       157.37
HS scan finished at 19:16:49
end
