************************************************************
  HS Scan of (1) Internal mercury lamp
************************************************************
Integration time is 0.2294 seconds per sample
dh260918Manchester 53.47 2.23 2.804185pr1000
************************************************************
Dead Time -------------------------  3E-08 
Number of Cycles Used -------------  4 
Starting Wavelength (Angstroms) ---  2950 
Final Wavelength (Angstoms) -------  2984 
Wavelength Increment (Angstroms) --  .25 
Filter Wheel #1 Position ---------- (1) Ground quartz diffuser (ND=2.32)
Filter Wheel #2 Position ---------- (1) Neutral Density 0.494



************************************************************
HS scan start time = 02:56:27
Dark Count =  6 


Time (GMT)  Wavelength (Ang)  Step Number  Raw Counts  Counts/Second

  176.82        2950.00           1222          53.00       204.88
  176.89        2950.25           1226          56.00       217.96
  176.92        2950.50           1229          45.00       170.01
  176.95        2950.75           1232          56.00       217.96
  176.98        2951.00           1236          49.00       187.45
  177.01        2951.25           1239          45.00       170.01
  177.04        2951.50           1242          57.00       222.32
  177.07        2951.75           1246          50.00       191.81
  177.10        2952.00           1249          53.00       204.88
  177.13        2952.25           1252          54.00       209.24
  177.16        2952.50           1256          57.00       222.32
  177.19        2952.75           1259          46.00       174.37
  177.22        2953.00           1262          49.00       187.45
  177.25        2953.25           1266          52.00       200.52
  177.29        2953.50           1269          48.00       183.09
  177.32        2953.75           1272          44.00       165.65
  177.35        2954.00           1276          51.00       196.17
  177.38        2954.25           1279          52.00       200.52
  177.41        2954.50           1282          49.00       187.45
  177.44        2954.75           1286          45.00       170.01
  177.47        2955.00           1289          54.00       209.24
  177.50        2955.25           1292          48.00       183.09
  177.53        2955.50           1296          53.00       204.88
  177.56        2955.75           1299          49.00       187.45
  177.59        2956.00           1302          54.00       209.24
  177.62        2956.25           1306          48.00       183.09
  177.66        2956.50           1309          50.00       191.81
  177.69        2956.75           1312          44.00       165.65
  177.72        2957.00           1316          58.00       226.68
  177.75        2957.25           1319          49.00       187.45
  177.78        2957.50           1322          52.00       200.52
  177.81        2957.75           1326          42.00       156.93
  177.84        2958.00           1329          54.00       209.24
  177.87        2958.25           1332          51.00       196.17
  177.90        2958.50           1336          45.00       170.01
  177.93        2958.75           1339          55.00       213.60
  177.96        2959.00           1342          51.00       196.17
  178.00        2959.25           1346          48.00       183.09
  178.03        2959.50           1349          56.00       217.96
  178.06        2959.75           1352          59.00       231.04
  178.09        2960.00           1356          79.00       318.22
  178.12        2960.25           1359         106.00       435.93
  178.15        2960.50           1362         141.00       588.50
  178.18        2960.75           1366         179.00       754.16
  178.21        2961.00           1369         197.00       832.63
  178.24        2961.25           1372         232.00       985.21
  178.27        2961.50           1376         277.00      1181.38
  178.30        2961.75           1379         330.00      1412.44
  178.33        2962.00           1382         544.00      2345.41
  178.36        2962.25           1386        1545.00      6710.16
  178.39        2962.50           1389        2657.00     11560.24
  178.42        2962.75           1392        3719.00     16193.57
  178.46        2963.00           1396        5270.00     22962.63
  178.49        2963.25           1399        6656.00     29013.91
  178.52        2963.50           1402        7716.00     33643.36
  178.55        2963.75           1406        9433.00     41144.92
  178.58        2964.00           1409       10713.00     46739.43
  178.61        2964.25           1412       11815.00     51557.46
  178.64        2964.50           1416       13425.00     58599.01
  178.67        2964.75           1419       14473.00     63184.17
  178.70        2965.00           1422       15929.00     69556.50
  178.73        2965.25           1426       17534.00     76583.78
  178.77        2965.50           1429       18644.00     81445.49
  178.80        2965.75           1432       20019.00     87469.86
  178.83        2966.00           1436       21593.00     94368.79
  178.86        2966.25           1439       22920.00    100187.30
  178.89        2966.50           1442       24065.00    105209.50
  178.92        2966.75           1446       25278.00    110531.60
  178.95        2967.00           1449       25851.00    113046.20
  178.98        2967.25           1452       25914.00    113322.70
  179.01        2967.50           1456       26040.00    113875.70
  179.04        2967.75           1459       26090.00    114095.20
  179.08        2968.00           1462       25987.00    113643.10
  179.11        2968.25           1466       25587.00    111887.60
  179.14        2968.50           1469       24807.00    108464.90
  179.17        2968.75           1472       23827.00    104165.50
  179.20        2969.00           1476       22166.00     96880.99
  179.23        2969.25           1479       20955.00     91572.06
  179.26        2969.50           1482       19797.00     86497.06
  179.29        2969.75           1486       18281.00     79855.41
  179.32        2970.00           1489       17004.00     74262.91
  179.35        2970.25           1492       15894.00     69403.29
  179.39        2970.50           1496       14386.00     62803.49
  179.42        2970.75           1499       13142.00     57361.05
  179.45        2971.00           1502       12004.00     52383.92
  179.48        2971.25           1506       10449.00     45585.41
  179.51        2971.50           1509        9156.00     39934.48
  179.54        2971.75           1513        7598.00     33127.94
  179.57        2972.00           1516        6317.00     27533.63
  179.60        2972.25           1519        5150.00     22438.82
  179.63        2972.50           1523        3546.00     15438.71
  179.66        2972.75           1526        2396.00     10421.74
  179.69        2973.00           1529        1271.00      5515.30
  179.73        2973.25           1533         434.00      1865.84
  179.76        2973.50           1536         269.00      1146.51
  179.79        2973.75           1539         204.00       863.14
  179.82        2974.00           1543         179.00       754.16
  179.85        2974.25           1546         130.00       540.55
  179.88        2974.50           1549         108.00       444.64
  179.91        2974.75           1553          77.00       309.51
  179.94        2975.00           1556          61.00       239.76
  179.97        2975.25           1559          51.00       196.17
  180.00        2975.50           1563          52.00       200.52
  180.04        2975.75           1566          53.00       204.88
  180.07        2976.00           1569          49.00       187.45
  180.10        2976.25           1573          44.00       165.65
  180.13        2976.50           1576          52.00       200.52
  180.16        2976.75           1579          42.00       156.93
  180.19        2977.00           1583          42.00       156.93
  180.22        2977.25           1586          45.00       170.01
  180.25        2977.50           1590          53.00       204.88
  180.28        2977.75           1593          51.00       196.17
  180.31        2978.00           1596          52.00       200.52
  180.34        2978.25           1600          46.00       174.37
  180.37        2978.50           1603          48.00       183.09
  180.41        2978.75           1606          45.00       170.01
  180.44        2979.00           1610          58.00       226.68
  180.47        2979.25           1613          50.00       191.81
  180.50        2979.50           1616          45.00       170.01
  180.53        2979.75           1620          48.00       183.09
  180.56        2980.00           1623          46.00       174.37
  180.59        2980.25           1626          46.00       174.37
  180.62        2980.50           1630          47.00       178.73
  180.65        2980.75           1633          43.00       161.29
  180.68        2981.00           1637          50.00       191.81
  180.71        2981.25           1640          54.00       209.24
  180.74        2981.50           1643          47.00       178.73
  180.77        2981.75           1647          42.00       156.93
  180.80        2982.00           1650          42.00       156.93
  180.83        2982.25           1653          45.00       170.01
  180.87        2982.50           1657          50.00       191.81
  180.90        2982.75           1660          51.00       196.17
  180.93        2983.00           1663          43.00       161.29
  180.96        2983.25           1667          37.00       135.14
  180.99        2983.50           1670          47.00       178.73
  181.02        2983.75           1673          38.00       139.49
  181.05        2984.00           1677          42.00       156.93
HS scan finished at 03:01:16
end
************************************************************
  HS Scan of (1) Internal mercury lamp
************************************************************
Integration time is 0.2294 seconds per sample
dh260918Manchester 53.47 2.23 3.018777pr1000
************************************************************
Dead Time -------------------------  3E-08 
Number of Cycles Used -------------  4 
Starting Wavelength (Angstroms) ---  2950 
Final Wavelength (Angstoms) -------  2984 
Wavelength Increment (Angstroms) --  .25 
Filter Wheel #1 Position ---------- (1) Ground quartz diffuser (ND=2.32)
Filter Wheel #2 Position ---------- (1) Neutral Density 0.494



************************************************************
HS scan start time = 19:11:59
Dark Count =  4.6 


Time (GMT)  Wavelength (Ang)  Step Number  Raw Counts  Counts/Second

 1152.36        2950.00           1222          54.00       215.35
 1152.42        2950.25           1226          44.00       171.75
 1152.46        2950.50           1229          50.00       197.91
 1152.49        2950.75           1232          53.00       210.99
 1152.52        2951.00           1236          44.00       171.75
 1152.55        2951.25           1239          46.00       180.47
 1152.58        2951.50           1242          63.00       254.58
 1152.61        2951.75           1246          48.00       189.19
 1152.64        2952.00           1249          48.00       189.19
 1152.67        2952.25           1252          51.00       202.27
 1152.70        2952.50           1256          51.00       202.27
 1152.73        2952.75           1259          51.00       202.27
 1152.76        2953.00           1262          52.00       206.63
 1152.79        2953.25           1266          45.00       176.11
 1152.82        2953.50           1269          48.00       189.19
 1152.85        2953.75           1272          46.00       180.47
 1152.88        2954.00           1276          49.00       193.55
 1152.92        2954.25           1279          45.00       176.11
 1152.95        2954.50           1282          49.00       193.55
 1152.98        2954.75           1286          56.00       224.06
 1153.01        2955.00           1289          52.00       206.63
 1153.04        2955.25           1292          45.00       176.11
 1153.07        2955.50           1296          51.00       202.27
 1153.10        2955.75           1299          61.00       245.86
 1153.13        2956.00           1302          54.00       215.35
 1153.16        2956.25           1306          47.00       184.83
 1153.19        2956.50           1309          50.00       197.91
 1153.22        2956.75           1312          47.00       184.83
 1153.25        2957.00           1316          51.00       202.27
 1153.28        2957.25           1319          51.00       202.27
 1153.31        2957.50           1322          49.00       193.55
 1153.34        2957.75           1326          47.00       184.83
 1153.38        2958.00           1329          52.00       206.63
 1153.41        2958.25           1332          57.00       228.42
 1153.44        2958.50           1336          53.00       210.99
 1153.47        2958.75           1339          49.00       193.55
 1153.50        2959.00           1342          57.00       228.42
 1153.53        2959.25           1346          57.00       228.42
 1153.56        2959.50           1349          59.00       237.14
 1153.59        2959.75           1352          66.00       267.66
 1153.62        2960.00           1356         102.00       424.59
 1153.65        2960.25           1359         127.00       533.57
 1153.68        2960.50           1362         167.00       707.95
 1153.71        2960.75           1366         204.00       869.25
 1153.74        2961.00           1369         233.00       995.67
 1153.77        2961.25           1372         271.00      1161.33
 1153.81        2961.50           1376         327.00      1405.46
 1153.84        2961.75           1379         454.00      1959.14
 1153.87        2962.00           1382         905.00      3925.48
 1153.90        2962.25           1386        2229.00      9699.42
 1153.93        2962.50           1389        3575.00     15571.35
 1153.96        2962.75           1392        4821.00     21008.88
 1153.99        2963.00           1396        6542.00     28522.22
 1154.02        2963.25           1399        7743.00     33767.41
 1154.06        2963.50           1402        9128.00     39818.25
 1154.09        2963.75           1406       10862.00     47396.90
 1154.12        2964.00           1409       12182.00     53168.44
 1154.15        2964.25           1412       13509.00     58972.60
 1154.18        2964.50           1416       15188.00     66319.26
 1154.21        2964.75           1419       16524.00     72167.41
 1154.24        2965.00           1422       17746.00     77518.35
 1154.27        2965.25           1426       19637.00     85802.10
 1154.30        2965.50           1429       20979.00     91683.39
 1154.34        2965.75           1432       22347.00     97680.77
 1154.37        2966.00           1436       23950.00    104711.20
 1154.40        2966.25           1439       25235.00    110349.00
 1154.43        2966.50           1442       26332.00    115163.60
 1154.46        2966.75           1446       27741.00    121349.40
 1154.49        2967.00           1449       27991.00    122447.20
 1154.52        2967.25           1452       28432.00    124384.00
 1154.55        2967.50           1456       28349.00    124019.40
 1154.58        2967.75           1459       28211.00    123413.40
 1154.62        2968.00           1462       28185.00    123299.20
 1154.65        2968.25           1466       27548.00    120502.00
 1154.68        2968.50           1469       26548.00    116111.70
 1154.71        2968.75           1472       25359.00    110893.20
 1154.74        2969.00           1476       23646.00    103377.70
 1154.77        2969.25           1479       22377.00     97812.32
 1154.80        2969.50           1482       20954.00     91573.81
 1154.83        2969.75           1486       19407.00     84794.33
 1154.86        2970.00           1489       18205.00     79528.66
 1154.90        2970.25           1492       16926.00     73927.51
 1154.93        2970.50           1496       15279.00     66717.54
 1154.96        2970.75           1499       13890.00     60639.42
 1154.99        2971.00           1502       12638.00     55162.71
 1155.02        2971.25           1506       10921.00     47654.83
 1155.05        2971.50           1509        9554.00     41679.81
 1155.08        2971.75           1513        7800.00     34016.39
 1155.11        2972.00           1516        6449.00     28116.12
 1155.14        2972.25           1519        5214.00     22724.29
 1155.18        2972.50           1523        3486.00     15183.03
 1155.21        2972.75           1526        2213.00      9629.64
 1155.24        2973.00           1529        1164.00      5054.82
 1155.27        2973.25           1533         419.00      1806.55
 1155.30        2973.50           1536         305.00      1309.55
 1155.33        2973.75           1539         228.00       973.87
 1155.36        2974.00           1543         195.00       830.01
 1155.39        2974.25           1546         152.00       642.56
 1155.42        2974.50           1549         115.00       481.26
 1155.45        2974.75           1553          79.00       324.33
 1155.48        2975.00           1556          62.00       250.22
 1155.52        2975.25           1559          53.00       210.99
 1155.55        2975.50           1563          46.00       180.47
 1155.58        2975.75           1566          47.00       184.83
 1155.61        2976.00           1569          44.00       171.75
 1155.64        2976.25           1573          52.00       206.63
 1155.67        2976.50           1576          51.00       202.27
 1155.70        2976.75           1579          40.00       154.32
 1155.73        2977.00           1583          44.00       171.75
 1155.76        2977.25           1586          51.00       202.27
 1155.79        2977.50           1590          47.00       184.83
 1155.82        2977.75           1593          45.00       176.11
 1155.85        2978.00           1596          47.00       184.83
 1155.88        2978.25           1600          47.00       184.83
 1155.91        2978.50           1603          40.00       154.32
 1155.94        2978.75           1606          44.00       171.75
 1155.98        2979.00           1610          49.00       193.55
 1156.01        2979.25           1613          48.00       189.19
 1156.04        2979.50           1616          43.00       167.39
 1156.07        2979.75           1620          49.00       193.55
 1156.10        2980.00           1623          45.00       176.11
 1156.13        2980.25           1626          47.00       184.83
 1156.16        2980.50           1630          46.00       180.47
 1156.19        2980.75           1633          37.00       141.24
 1156.22        2981.00           1637          54.00       215.35
 1156.26        2981.25           1640          52.00       206.63
 1156.29        2981.50           1643          49.00       193.55
 1156.32        2981.75           1647          37.00       141.24
 1156.35        2982.00           1650          49.00       193.55
 1156.38        2982.25           1653          45.00       176.11
 1156.41        2982.50           1657          49.00       193.55
 1156.44        2982.75           1660          51.00       202.27
 1156.47        2983.00           1663          42.00       163.03
 1156.50        2983.25           1667          42.00       163.03
 1156.53        2983.50           1670          47.00       184.83
 1156.57        2983.75           1673          39.00       149.96
 1156.60        2984.00           1677          45.00       176.11
HS scan finished at 19:16:49
end
