************************************************************
  HS Scan of (1) Internal mercury lamp
************************************************************
Integration time is 0.2294 seconds per sample
dh230917Manchester 53.47 2.23 2.804185pr1000
************************************************************
Dead Time -------------------------  3E-08 
Number of Cycles Used -------------  4 
Starting Wavelength (Angstroms) ---  2950 
Final Wavelength (Angstoms) -------  2984 
Wavelength Increment (Angstroms) --  .25 
Filter Wheel #1 Position ---------- (1) Ground quartz diffuser (ND=2.32)
Filter Wheel #2 Position ---------- (1) Neutral Density 0.494



************************************************************
HS scan start time = 02:47:13
Dark Count =  6.1 


Time (GMT)  Wavelength (Ang)  Step Number  Raw Counts  Counts/Second

  167.58        2950.00           1222          70.00       278.56
  167.65        2950.25           1226          82.00       330.87
  167.68        2950.50           1229          82.00       330.87
  167.71        2950.75           1232          72.00       287.27
  167.74        2951.00           1236          66.00       261.12
  167.77        2951.25           1239          82.00       330.87
  167.80        2951.50           1242          70.00       278.56
  167.83        2951.75           1246          71.00       282.91
  167.86        2952.00           1249          73.00       291.63
  167.89        2952.25           1252          71.00       282.91
  167.92        2952.50           1256          70.00       278.56
  167.95        2952.75           1259          75.00       300.35
  167.98        2953.00           1262          68.00       269.84
  168.01        2953.25           1266          67.00       265.48
  168.05        2953.50           1269          65.00       256.76
  168.08        2953.75           1272          73.00       291.63
  168.11        2954.00           1276          67.00       265.48
  168.14        2954.25           1279          64.00       252.40
  168.17        2954.50           1282          79.00       317.79
  168.20        2954.75           1286          88.00       357.02
  168.23        2955.00           1289          77.00       309.07
  168.26        2955.25           1292          82.00       330.87
  168.29        2955.50           1296          72.00       287.27
  168.32        2955.75           1299          71.00       282.91
  168.35        2956.00           1302          71.00       282.91
  168.39        2956.25           1306          66.00       261.12
  168.42        2956.50           1309          72.00       287.27
  168.45        2956.75           1312          66.00       261.12
  168.48        2957.00           1316          71.00       282.91
  168.51        2957.25           1319          68.00       269.84
  168.54        2957.50           1322          85.00       343.94
  168.57        2957.75           1326          76.00       304.71
  168.60        2958.00           1329          64.00       252.40
  168.63        2958.25           1332          62.00       243.68
  168.66        2958.50           1336          71.00       282.91
  168.69        2958.75           1339          73.00       291.63
  168.73        2959.00           1342          75.00       300.35
  168.76        2959.25           1346          75.00       300.35
  168.79        2959.50           1349          75.00       300.35
  168.82        2959.75           1352          88.00       357.02
  168.85        2960.00           1356          98.00       400.62
  168.88        2960.25           1359         131.00       544.47
  168.91        2960.50           1362         167.00       701.41
  168.94        2960.75           1366         228.00       967.33
  168.97        2961.00           1369         265.00      1128.63
  169.00        2961.25           1372         318.00      1359.69
  169.03        2961.50           1376         375.00      1608.19
  169.06        2961.75           1379         460.00      1978.76
  169.10        2962.00           1382         838.00      3626.81
  169.13        2962.25           1386        2312.00     10054.91
  169.16        2962.50           1389        3775.00     16437.49
  169.19        2962.75           1392        5292.00     23058.23
  169.22        2963.00           1396        7260.00     31651.23
  169.25        2963.25           1399        8753.00     38173.17
  169.28        2963.50           1402       10236.00     44653.94
  169.31        2963.75           1406       12642.00     55173.64
  169.34        2964.00           1409       14497.00     63288.75
  169.38        2964.25           1412       16149.00     70519.13
  169.41        2964.50           1416       18178.00     79403.84
  169.44        2964.75           1419       19815.00     86575.49
  169.47        2965.00           1422       21212.00     92698.15
  169.50        2965.25           1426       23360.00    102116.60
  169.53        2965.50           1429       24958.00    109127.00
  169.56        2965.75           1432       26484.00    115824.20
  169.59        2966.00           1436       28693.00    125523.70
  169.62        2966.25           1439       30317.00    132658.10
  169.66        2966.50           1442       31728.00    138859.30
  169.69        2966.75           1446       33349.00    145986.30
  169.72        2967.00           1449       34292.00    150133.70
  169.75        2967.25           1452       34294.00    150142.50
  169.78        2967.50           1456       34199.00    149724.60
  169.81        2967.75           1459       34412.00    150661.60
  169.84        2968.00           1462       34079.00    149196.80
  169.87        2968.25           1466       33643.00    147279.20
  169.90        2968.50           1469       32552.00    142481.80
  169.94        2968.75           1472       31274.00    136863.80
  169.97        2969.00           1476       29168.00    127610.10
  170.00        2969.25           1479       27493.00    120253.90
  170.03        2969.50           1482       25803.00    112835.10
  170.06        2969.75           1486       23751.00    103831.70
  170.09        2970.00           1489       22248.00     97240.11
  170.12        2970.25           1492       20766.00     90743.21
  170.15        2970.50           1496       18400.00     80376.24
  170.18        2970.75           1499       17084.00     74612.78
  170.22        2971.00           1502       15503.00     67691.38
  170.25        2971.25           1506       13470.00     58795.42
  170.28        2971.50           1509       11805.00     51513.29
  170.31        2971.75           1513        9686.00     42250.12
  170.34        2972.00           1516        8329.00     36320.72
  170.37        2972.25           1519        6713.00     29262.38
  170.40        2972.50           1523        4680.00     20386.92
  170.43        2972.75           1526        3106.00     13518.56
  170.46        2973.00           1529        1558.00      6766.41
  170.50        2973.25           1533         558.00      2406.02
  170.53        2973.50           1536         353.00      1512.27
  170.56        2973.75           1539         319.00      1364.05
  170.59        2974.00           1543         245.00      1041.44
  170.62        2974.25           1546         191.00       806.04
  170.65        2974.50           1549         176.00       740.64
  170.68        2974.75           1553         120.00       496.52
  170.71        2975.00           1556          91.00       370.10
  170.74        2975.25           1559          83.00       335.23
  170.77        2975.50           1563          73.00       291.63
  170.80        2975.75           1566          72.00       287.27
  170.83        2976.00           1569          75.00       300.35
  170.86        2976.25           1573          70.00       278.56
  170.89        2976.50           1576          74.00       295.99
  170.93        2976.75           1579          64.00       252.40
  170.96        2977.00           1583          65.00       256.76
  170.99        2977.25           1586          65.00       256.76
  171.02        2977.50           1590          71.00       282.91
  171.05        2977.75           1593          67.00       265.48
  171.08        2978.00           1596          68.00       269.84
  171.11        2978.25           1600          73.00       291.63
  171.14        2978.50           1603          65.00       256.76
  171.17        2978.75           1606          72.00       287.27
  171.20        2979.00           1610          70.00       278.56
  171.23        2979.25           1613          66.00       261.12
  171.26        2979.50           1616          70.00       278.56
  171.29        2979.75           1620          61.00       239.32
  171.33        2980.00           1623          70.00       278.56
  171.36        2980.25           1626          71.00       282.91
  171.39        2980.50           1630          63.00       248.04
  171.42        2980.75           1633          63.00       248.04
  171.45        2981.00           1637          74.00       295.99
  171.48        2981.25           1640          63.00       248.04
  171.51        2981.50           1643          55.00       213.17
  171.54        2981.75           1647          65.00       256.76
  171.57        2982.00           1650          61.00       239.32
  171.60        2982.25           1653          63.00       248.04
  171.63        2982.50           1657          63.00       248.04
  171.66        2982.75           1660          57.00       221.88
  171.69        2983.00           1663          67.00       265.48
  171.73        2983.25           1667          52.00       200.09
  171.76        2983.50           1670          63.00       248.04
  171.79        2983.75           1673          53.00       204.45
  171.82        2984.00           1677          64.00       252.40
HS scan finished at 02:52:02
end
************************************************************
  HS Scan of (1) Internal mercury lamp
************************************************************
Integration time is 0.2294 seconds per sample
dh230917Manchester 53.47 2.23 2.857833pr1000
************************************************************
Dead Time -------------------------  3E-08 
Number of Cycles Used -------------  4 
Starting Wavelength (Angstroms) ---  2950 
Final Wavelength (Angstoms) -------  2984 
Wavelength Increment (Angstroms) --  .25 
Filter Wheel #1 Position ---------- (1) Ground quartz diffuser (ND=2.32)
Filter Wheel #2 Position ---------- (1) Neutral Density 0.494



************************************************************
HS scan start time = 19:12:01
Dark Count =  7.1 


Time (GMT)  Wavelength (Ang)  Step Number  Raw Counts  Counts/Second

 1152.39        2950.00           1222          71.00       278.56
 1152.46        2950.25           1226          80.00       317.79
 1152.49        2950.50           1229          68.00       265.48
 1152.52        2950.75           1232          77.00       304.71
 1152.55        2951.00           1236          73.00       287.27
 1152.58        2951.25           1239          64.00       248.04
 1152.61        2951.50           1242          72.00       282.91
 1152.64        2951.75           1246          78.00       309.07
 1152.67        2952.00           1249          78.00       309.07
 1152.70        2952.25           1252          67.00       261.12
 1152.74        2952.50           1256          84.00       335.23
 1152.77        2952.75           1259          74.00       291.63
 1152.80        2953.00           1262          72.00       282.91
 1152.83        2953.25           1266          79.00       313.43
 1152.86        2953.50           1269          69.00       269.84
 1152.89        2953.75           1272          69.00       269.84
 1152.92        2954.00           1276          76.00       300.35
 1152.95        2954.25           1279          66.00       256.76
 1152.98        2954.50           1282          64.00       248.04
 1153.01        2954.75           1286          68.00       265.48
 1153.04        2955.00           1289          81.00       322.15
 1153.07        2955.25           1292          75.00       295.99
 1153.11        2955.50           1296          74.00       291.63
 1153.14        2955.75           1299          94.00       378.82
 1153.17        2956.00           1302          81.00       322.15
 1153.20        2956.25           1306          74.00       291.63
 1153.23        2956.50           1309          69.00       269.84
 1153.26        2956.75           1312          67.00       261.12
 1153.29        2957.00           1316          69.00       269.84
 1153.32        2957.25           1319          76.00       300.35
 1153.35        2957.50           1322          63.00       243.68
 1153.38        2957.75           1326          78.00       309.07
 1153.41        2958.00           1329          78.00       309.07
 1153.44        2958.25           1332          66.00       256.76
 1153.47        2958.50           1336          73.00       287.27
 1153.51        2958.75           1339          69.00       269.84
 1153.54        2959.00           1342          71.00       278.56
 1153.57        2959.25           1346          85.00       339.59
 1153.60        2959.50           1349          83.00       330.87
 1153.63        2959.75           1352          98.00       396.26
 1153.66        2960.00           1356         145.00       601.14
 1153.69        2960.25           1359         162.00       675.25
 1153.72        2960.50           1362         211.00       888.86
 1153.75        2960.75           1366         264.00      1119.92
 1153.78        2961.00           1369         304.00      1294.30
 1153.81        2961.25           1372         347.00      1481.76
 1153.85        2961.50           1376         425.00      1821.81
 1153.88        2961.75           1379         610.00      2628.37
 1153.91        2962.00           1382        1298.00      5628.24
 1153.94        2962.25           1386        3125.00     13597.09
 1153.97        2962.50           1389        4673.00     20352.00
 1154.00        2962.75           1392        6252.00     27245.02
 1154.03        2963.00           1396        8054.00     35115.01
 1154.06        2963.25           1399        9726.00     42420.57
 1154.09        2963.50           1402       11227.00     48981.70
 1154.13        2963.75           1406       13243.00     57798.05
 1154.16        2964.00           1409       14961.00     65314.87
 1154.19        2964.25           1412       16616.00     72559.26
 1154.22        2964.50           1416       18827.00     82242.35
 1154.25        2964.75           1419       20433.00     89279.35
 1154.28        2965.00           1422       22072.00     96464.03
 1154.31        2965.25           1426       24405.00    106696.30
 1154.34        2965.50           1429       26111.00    114182.50
 1154.37        2965.75           1432       27651.00    120943.30
 1154.40        2966.00           1436       29533.00    129209.10
 1154.44        2966.25           1439       31049.00    135870.50
 1154.47        2966.50           1442       32602.00    142697.20
 1154.50        2966.75           1446       34081.00    149201.20
 1154.53        2967.00           1449       34717.00    151998.90
 1154.56        2967.25           1452       34617.00    151559.00
 1154.59        2967.50           1456       34803.00    152377.20
 1154.62        2967.75           1459       34835.00    152518.00
 1154.65        2968.00           1462       34469.00    150907.90
 1154.68        2968.25           1466       33752.00    147754.20
 1154.72        2968.50           1469       32348.00    141580.50
 1154.75        2968.75           1472       31029.00    135782.60
 1154.78        2969.00           1476       28753.00    125782.80
 1154.81        2969.25           1479       27317.00    119476.70
 1154.84        2969.50           1482       25655.00    112181.20
 1154.87        2969.75           1486       23452.00    102515.80
 1154.90        2970.00           1489       21678.00     94736.62
 1154.93        2970.25           1492       20465.00     89419.59
 1154.96        2970.50           1496       18383.00     80297.38
 1154.99        2970.75           1499       16627.00     72607.43
 1155.03        2971.00           1502       14982.00     65406.77
 1155.06        2971.25           1506       12742.00     55606.64
 1155.09        2971.50           1509       11018.00     48067.96
 1155.12        2971.75           1513        8930.00     38942.16
 1155.15        2972.00           1516        7277.00     31721.11
 1155.18        2972.25           1519        5677.00     24734.57
 1155.21        2972.50           1523        3734.00     16254.22
 1155.24        2972.75           1526        2291.00      9958.95
 1155.27        2973.00           1529        1017.00      4402.94
 1155.31        2973.25           1533         439.00      1882.84
 1155.34        2973.50           1536         337.00      1438.16
 1155.37        2973.75           1539         301.00      1281.22
 1155.40        2974.00           1543         238.00      1006.57
 1155.43        2974.25           1546         152.00       631.66
 1155.46        2974.50           1549         133.00       548.83
 1155.49        2974.75           1553         102.00       413.69
 1155.52        2975.00           1556          86.00       343.94
 1155.55        2975.25           1559          83.00       330.87
 1155.58        2975.50           1563          64.00       248.04
 1155.61        2975.75           1566          67.00       261.12
 1155.65        2976.00           1569          61.00       234.96
 1155.68        2976.25           1573          68.00       265.48
 1155.71        2976.50           1576          64.00       248.04
 1155.74        2976.75           1579          69.00       269.84
 1155.77        2977.00           1583          74.00       291.63
 1155.80        2977.25           1586          72.00       282.91
 1155.83        2977.50           1590          67.00       261.12
 1155.86        2977.75           1593          68.00       265.48
 1155.89        2978.00           1596          65.00       252.40
 1155.93        2978.25           1600          62.00       239.32
 1155.96        2978.50           1603          76.00       300.35
 1155.99        2978.75           1606          61.00       234.96
 1156.02        2979.00           1610          56.00       213.17
 1156.05        2979.25           1613          73.00       287.27
 1156.08        2979.50           1616          68.00       265.48
 1156.11        2979.75           1620          65.00       252.40
 1156.14        2980.00           1623          68.00       265.48
 1156.17        2980.25           1626          71.00       278.56
 1156.20        2980.50           1630          65.00       252.40
 1156.23        2980.75           1633          73.00       287.27
 1156.26        2981.00           1637          79.00       313.43
 1156.30        2981.25           1640          65.00       252.40
 1156.33        2981.50           1643          66.00       256.76
 1156.36        2981.75           1647          62.00       239.32
 1156.39        2982.00           1650          70.00       274.20
 1156.42        2982.25           1653          63.00       243.68
 1156.45        2982.50           1657          62.00       239.32
 1156.48        2982.75           1660          70.00       274.20
 1156.51        2983.00           1663          59.00       226.24
 1156.54        2983.25           1667          71.00       278.56
 1156.57        2983.50           1670          61.00       234.96
 1156.60        2983.75           1673          67.00       261.12
 1156.63        2984.00           1677          69.00       269.84
HS scan finished at 19:16:51
end
