************************************************************
  HS Scan of (1) Internal mercury lamp
************************************************************
Integration time is 0.2294 seconds per sample
dh290917Manchester 53.47 2.23 2.857833pr1000
************************************************************
Dead Time -------------------------  3E-08 
Number of Cycles Used -------------  4 
Starting Wavelength (Angstroms) ---  2950 
Final Wavelength (Angstoms) -------  2984 
Wavelength Increment (Angstroms) --  .25 
Filter Wheel #1 Position ---------- (1) Ground quartz diffuser (ND=2.32)
Filter Wheel #2 Position ---------- (1) Neutral Density 0.494



************************************************************
HS scan start time = 03:06:26
Dark Count =  5.6 


Time (GMT)  Wavelength (Ang)  Step Number  Raw Counts  Counts/Second

  186.81        2950.00           1222          71.00       285.09
  186.87        2950.25           1226          81.00       328.69
  186.91        2950.50           1229          69.00       276.38
  186.94        2950.75           1232          69.00       276.38
  186.97        2951.00           1236          69.00       276.38
  187.00        2951.25           1239          64.00       254.58
  187.03        2951.50           1242          68.00       272.02
  187.06        2951.75           1246          83.00       337.41
  187.09        2952.00           1249          76.00       306.89
  187.12        2952.25           1252          76.00       306.89
  187.15        2952.50           1256          73.00       293.81
  187.18        2952.75           1259          72.00       289.45
  187.22        2953.00           1262          72.00       289.45
  187.25        2953.25           1266          70.00       280.73
  187.28        2953.50           1269          65.00       258.94
  187.31        2953.75           1272          73.00       293.81
  187.34        2954.00           1276          73.00       293.81
  187.37        2954.25           1279          71.00       285.09
  187.40        2954.50           1282          67.00       267.66
  187.43        2954.75           1286          75.00       302.53
  187.46        2955.00           1289          72.00       289.45
  187.49        2955.25           1292          68.00       272.02
  187.53        2955.50           1296          68.00       272.02
  187.56        2955.75           1299          73.00       293.81
  187.59        2956.00           1302          72.00       289.45
  187.62        2956.25           1306          79.00       319.97
  187.65        2956.50           1309          65.00       258.94
  187.68        2956.75           1312          70.00       280.73
  187.71        2957.00           1316          66.00       263.30
  187.74        2957.25           1319          73.00       293.81
  187.77        2957.50           1322          66.00       263.30
  187.80        2957.75           1326          72.00       289.45
  187.84        2958.00           1329          76.00       306.89
  187.87        2958.25           1332          70.00       280.73
  187.90        2958.50           1336          72.00       289.45
  187.93        2958.75           1339          69.00       276.38
  187.96        2959.00           1342          76.00       306.89
  187.99        2959.25           1346          78.00       315.61
  188.02        2959.50           1349          83.00       337.41
  188.05        2959.75           1352          93.00       381.00
  188.08        2960.00           1356         127.00       529.22
  188.11        2960.25           1359         147.00       616.40
  188.14        2960.50           1362         174.00       734.11
  188.18        2960.75           1366         233.00       991.31
  188.21        2961.00           1369         274.00      1170.05
  188.24        2961.25           1372         327.00      1401.11
  188.27        2961.50           1376         400.00      1719.36
  188.30        2961.75           1379         621.00      2682.87
  188.33        2962.00           1382        1302.00      5652.22
  188.36        2962.25           1386        3101.00     13498.93
  188.39        2962.50           1389        4663.00     20314.91
  188.42        2962.75           1392        6146.00     26788.74
  188.45        2963.00           1396        8148.00     35532.19
  188.49        2963.25           1399        9735.00     42466.45
  188.52        2963.50           1402       11397.00     49731.52
  188.55        2963.75           1406       13527.00     59046.97
  188.58        2964.00           1409       15166.00     66218.60
  188.61        2964.25           1412       16720.00     73021.18
  188.64        2964.50           1416       19122.00     83541.28
  188.67        2964.75           1419       20740.00     90631.44
  188.70        2965.00           1422       22526.00     98461.29
  188.73        2965.25           1426       24676.00    107891.80
  188.76        2965.50           1429       26186.00    114518.30
  188.80        2965.75           1432       27963.00    122319.90
  188.83        2966.00           1436       29913.00    130885.20
  188.86        2966.25           1439       31416.00    137490.10
  188.89        2966.50           1442       32982.00    144374.60
  188.92        2966.75           1446       34289.00    150122.70
  188.95        2967.00           1449       34518.00    151130.00
  188.98        2967.25           1452       34554.00    151288.40
  189.01        2967.50           1456       34688.00    151877.90
  189.04        2967.75           1459       34551.00    151275.20
  189.08        2968.00           1462       34406.00    150637.40
  189.11        2968.25           1466       33245.00    145531.10
  189.14        2968.50           1469       31739.00    138909.90
  189.17        2968.75           1472       30249.00    132361.50
  189.20        2969.00           1476       28377.00    124138.00
  189.23        2969.25           1479       26831.00    117349.60
  189.26        2969.50           1482       25424.00    111174.00
  189.29        2969.75           1486       23215.00    101482.90
  189.32        2970.00           1489       21597.00     94388.08
  189.36        2970.25           1492       19959.00     87208.69
  189.39        2970.50           1496       17952.00     78416.16
  189.42        2970.75           1499       16222.00     70840.90
  189.45        2971.00           1502       14722.00     64275.53
  189.48        2971.25           1506       12516.00     54624.76
  189.51        2971.50           1509       10746.00     46885.43
  189.54        2971.75           1513        8819.00     38463.72
  189.57        2972.00           1516        7197.00     31378.26
  189.61        2972.25           1519        5657.00     24653.80
  189.64        2972.50           1523        3718.00     16190.95
  189.67        2972.75           1526        2224.00      9673.25
  189.70        2973.00           1529        1057.00      4583.89
  189.73        2973.25           1533         465.00      2002.74
  189.76        2973.50           1536         357.00      1531.89
  189.79        2973.75           1539         321.00      1374.95
  189.82        2974.00           1543         276.00      1178.77
  189.85        2974.25           1546         198.00       838.73
  189.88        2974.50           1549         165.00       694.87
  189.92        2974.75           1553         123.00       511.78
  189.95        2975.00           1556          93.00       381.00
  189.98        2975.25           1559          71.00       285.09
  190.01        2975.50           1563          68.00       272.02
  190.04        2975.75           1566          60.00       237.14
  190.07        2976.00           1569          67.00       267.66
  190.10        2976.25           1573          63.00       250.22
  190.13        2976.50           1576          77.00       311.25
  190.16        2976.75           1579          65.00       258.94
  190.19        2977.00           1583          78.00       315.61
  190.22        2977.25           1586          68.00       272.02
  190.26        2977.50           1590          66.00       263.30
  190.29        2977.75           1593          68.00       272.02
  190.32        2978.00           1596          62.00       245.86
  190.35        2978.25           1600          72.00       289.45
  190.38        2978.50           1603          69.00       276.38
  190.41        2978.75           1606          68.00       272.02
  190.44        2979.00           1610          64.00       254.58
  190.47        2979.25           1613          62.00       245.86
  190.50        2979.50           1616          71.00       285.09
  190.53        2979.75           1620          65.00       258.94
  190.57        2980.00           1623          60.00       237.14
  190.60        2980.25           1626          63.00       250.22
  190.63        2980.50           1630          62.00       245.86
  190.66        2980.75           1633          70.00       280.73
  190.69        2981.00           1637          69.00       276.38
  190.72        2981.25           1640          61.00       241.50
  190.75        2981.50           1643          71.00       285.09
  190.78        2981.75           1647          66.00       263.30
  190.81        2982.00           1650          68.00       272.02
  190.84        2982.25           1653          60.00       237.14
  190.87        2982.50           1657          68.00       272.02
  190.91        2982.75           1660          59.00       232.78
  190.94        2983.00           1663          64.00       254.58
  190.97        2983.25           1667          67.00       267.66
  191.00        2983.50           1670          63.00       250.22
  191.03        2983.75           1673          62.00       245.86
  191.06        2984.00           1677          58.00       228.42
HS scan finished at 03:11:17
end
************************************************************
  HS Scan of (1) Internal mercury lamp
************************************************************
Integration time is 0.2294 seconds per sample
dh290917Manchester 53.47 2.23 2.804185pr1000
************************************************************
Dead Time -------------------------  3E-08 
Number of Cycles Used -------------  4 
Starting Wavelength (Angstroms) ---  2950 
Final Wavelength (Angstoms) -------  2984 
Wavelength Increment (Angstroms) --  .25 
Filter Wheel #1 Position ---------- (1) Ground quartz diffuser (ND=2.32)
Filter Wheel #2 Position ---------- (1) Neutral Density 0.494



************************************************************
HS scan start time = 18:42:01
Dark Count =  6.2 


Time (GMT)  Wavelength (Ang)  Step Number  Raw Counts  Counts/Second

 1122.39        2950.00           1222          75.00       299.92
 1122.46        2950.25           1226          75.00       299.92
 1122.49        2950.50           1229          68.00       269.40
 1122.52        2950.75           1232          75.00       299.92
 1122.55        2951.00           1236          66.00       260.68
 1122.59        2951.25           1239          68.00       269.40
 1122.62        2951.50           1242          74.00       295.56
 1122.65        2951.75           1246          71.00       282.48
 1122.68        2952.00           1249          73.00       291.20
 1122.71        2952.25           1252          74.00       295.56
 1122.74        2952.50           1256          75.00       299.92
 1122.77        2952.75           1259          76.00       304.27
 1122.80        2953.00           1262          66.00       260.68
 1122.83        2953.25           1266          70.00       278.12
 1122.86        2953.50           1269          82.00       330.43
 1122.89        2953.75           1272          65.00       256.32
 1122.92        2954.00           1276          76.00       304.27
 1122.95        2954.25           1279          75.00       299.92
 1122.99        2954.50           1282          66.00       260.68
 1123.02        2954.75           1286          61.00       238.89
 1123.05        2955.00           1289          64.00       251.96
 1123.08        2955.25           1292          75.00       299.92
 1123.11        2955.50           1296          73.00       291.20
 1123.14        2955.75           1299          71.00       282.48
 1123.17        2956.00           1302          72.00       286.84
 1123.20        2956.25           1306          68.00       269.40
 1123.23        2956.50           1309          71.00       282.48
 1123.26        2956.75           1312          77.00       308.63
 1123.29        2957.00           1316          73.00       291.20
 1123.32        2957.25           1319          72.00       286.84
 1123.35        2957.50           1322          72.00       286.84
 1123.39        2957.75           1326          70.00       278.12
 1123.42        2958.00           1329          56.00       217.09
 1123.45        2958.25           1332          65.00       256.32
 1123.48        2958.50           1336          80.00       321.71
 1123.51        2958.75           1339          74.00       295.56
 1123.54        2959.00           1342          69.00       273.76
 1123.57        2959.25           1346          77.00       308.63
 1123.60        2959.50           1349          83.00       334.79
 1123.63        2959.75           1352          93.00       378.38
 1123.66        2960.00           1356         126.00       522.24
 1123.70        2960.25           1359         150.00       626.86
 1123.73        2960.50           1362         186.00       783.80
 1123.76        2960.75           1366         228.00       966.90
 1123.79        2961.00           1369         299.00      1276.42
 1123.82        2961.25           1372         335.00      1433.37
 1123.85        2961.50           1376         405.00      1738.54
 1123.88        2961.75           1379         510.00      2196.31
 1123.91        2962.00           1382         912.00      3949.03
 1123.94        2962.25           1386        2439.00     10608.43
 1123.97        2962.50           1389        3882.00     16903.95
 1124.01        2962.75           1392        5370.00     23398.28
 1124.04        2963.00           1396        7298.00     31816.76
 1124.07        2963.25           1399        8826.00     38491.68
 1124.10        2963.50           1402       10330.00     45064.37
 1124.13        2963.75           1406       12454.00     54350.98
 1124.16        2964.00           1409       14139.00     61721.85
 1124.19        2964.25           1412       15646.00     68316.86
 1124.22        2964.50           1416       17840.00     77923.02
 1124.25        2964.75           1419       19180.00     83792.77
 1124.29        2965.00           1422       20888.00     91277.51
 1124.32        2965.25           1426       22948.00    100309.30
 1124.35        2965.50           1429       24426.00    106792.30
 1124.38        2965.75           1432       25876.00    113155.10
 1124.41        2966.00           1436       28075.00    122809.10
 1124.44        2966.25           1439       29691.00    129907.20
 1124.47        2966.50           1442       31220.00    136626.00
 1124.50        2966.75           1446       32921.00    144103.80
 1124.53        2967.00           1449       33732.00    147670.20
 1124.57        2967.25           1452       33860.00    148233.10
 1124.60        2967.50           1456       34038.00    149016.10
 1124.63        2967.75           1459       33913.00    148466.30
 1124.66        2968.00           1462       33628.00    147212.80
 1124.69        2968.25           1466       33455.00    146452.00
 1124.72        2968.50           1469       32219.00    141017.30
 1124.75        2968.75           1472       30869.00    135083.40
 1124.78        2969.00           1476       28801.00    125997.60
 1124.81        2969.25           1479       27180.00    118879.20
 1124.85        2969.50           1482       25657.00    112193.90
 1124.88        2969.75           1486       23519.00    102813.60
 1124.91        2970.00           1489       22021.00     96244.37
 1124.94        2970.25           1492       20668.00     90313.25
 1124.97        2970.50           1496       18413.00     80432.75
 1125.00        2970.75           1499       16902.00     73815.43
 1125.03        2971.00           1502       15381.00     67156.97
 1125.06        2971.25           1506       13336.00     58208.80
 1125.09        2971.50           1509       11827.00     51609.05
 1125.12        2971.75           1513        9747.00     42516.27
 1125.15        2972.00           1516        7984.00     34813.15
 1125.18        2972.25           1519        6553.00     28563.26
 1125.21        2972.50           1523        4357.00     18976.80
 1125.25        2972.75           1526        2868.00     12479.82
 1125.28        2973.00           1529        1530.00      6643.87
 1125.31        2973.25           1533         519.00      2235.55
 1125.34        2973.50           1536         360.00      1542.36
 1125.37        2973.75           1539         285.00      1215.39
 1125.40        2974.00           1543         237.00      1006.13
 1125.43        2974.25           1546         181.00       762.01
 1125.46        2974.50           1549         141.00       587.63
 1125.49        2974.75           1553         114.00       469.93
 1125.53        2975.00           1556         101.00       413.26
 1125.56        2975.25           1559          79.00       317.35
 1125.59        2975.50           1563          78.00       312.99
 1125.62        2975.75           1566          78.00       312.99
 1125.65        2976.00           1569          79.00       317.35
 1125.68        2976.25           1573          68.00       269.40
 1125.71        2976.50           1576          73.00       291.20
 1125.74        2976.75           1579          62.00       243.25
 1125.77        2977.00           1583          67.00       265.04
 1125.80        2977.25           1586          63.00       247.60
 1125.83        2977.50           1590          79.00       317.35
 1125.87        2977.75           1593          69.00       273.76
 1125.90        2978.00           1596          65.00       256.32
 1125.93        2978.25           1600          68.00       269.40
 1125.96        2978.50           1603          67.00       265.04
 1125.99        2978.75           1606          67.00       265.04
 1126.02        2979.00           1610          71.00       282.48
 1126.05        2979.25           1613          69.00       273.76
 1126.08        2979.50           1616          58.00       225.81
 1126.11        2979.75           1620          61.00       238.89
 1126.14        2980.00           1623          63.00       247.60
 1126.17        2980.25           1626          68.00       269.40
 1126.20        2980.50           1630          64.00       251.96
 1126.23        2980.75           1633          69.00       273.76
 1126.27        2981.00           1637          74.00       295.56
 1126.30        2981.25           1640          65.00       256.32
 1126.33        2981.50           1643          68.00       269.40
 1126.36        2981.75           1647          61.00       238.89
 1126.39        2982.00           1650          70.00       278.12
 1126.42        2982.25           1653          67.00       265.04
 1126.45        2982.50           1657          62.00       243.25
 1126.48        2982.75           1660          64.00       251.96
 1126.51        2983.00           1663          66.00       260.68
 1126.54        2983.25           1667          59.00       230.17
 1126.57        2983.50           1670          77.00       308.63
 1126.60        2983.75           1673          67.00       265.04
 1126.63        2984.00           1677          56.00       217.09
HS scan finished at 18:46:51
end
