************************************************************
  HS Scan of (1) Internal mercury lamp
************************************************************
Integration time is 0.2294 seconds per sample
dh061017Manchester 53.47 2.23 2.804185pr1000
************************************************************
Dead Time -------------------------  3E-08 
Number of Cycles Used -------------  4 
Starting Wavelength (Angstroms) ---  2950 
Final Wavelength (Angstoms) -------  2984 
Wavelength Increment (Angstroms) --  .25 
Filter Wheel #1 Position ---------- (1) Ground quartz diffuser (ND=2.32)
Filter Wheel #2 Position ---------- (1) Neutral Density 0.494



************************************************************
HS scan start time = 18:42:02
Dark Count =  10.2 


Time (GMT)  Wavelength (Ang)  Step Number  Raw Counts  Counts/Second

 1122.41        2950.00           1222          73.00       273.76
 1122.47        2950.25           1226          85.00       326.07
 1122.51        2950.50           1229          68.00       251.96
 1122.54        2950.75           1232          64.00       234.53
 1122.57        2951.00           1236          69.00       256.32
 1122.60        2951.25           1239          64.00       234.53
 1122.63        2951.50           1242          68.00       251.96
 1122.66        2951.75           1246          65.00       238.89
 1122.69        2952.00           1249          69.00       256.32
 1122.72        2952.25           1252          84.00       321.71
 1122.75        2952.50           1256          69.00       256.32
 1122.78        2952.75           1259          67.00       247.60
 1122.81        2953.00           1262          76.00       286.84
 1122.84        2953.25           1266          66.00       243.25
 1122.87        2953.50           1269          69.00       256.32
 1122.91        2953.75           1272          71.00       265.04
 1122.94        2954.00           1276          68.00       251.96
 1122.97        2954.25           1279          66.00       243.25
 1123.00        2954.50           1282          76.00       286.84
 1123.03        2954.75           1286          76.00       286.84
 1123.06        2955.00           1289          71.00       265.04
 1123.09        2955.25           1292          74.00       278.12
 1123.12        2955.50           1296          61.00       221.45
 1123.15        2955.75           1299          77.00       291.20
 1123.18        2956.00           1302          73.00       273.76
 1123.21        2956.25           1306          78.00       295.56
 1123.24        2956.50           1309          69.00       256.32
 1123.28        2956.75           1312          72.00       269.40
 1123.31        2957.00           1316          66.00       243.25
 1123.34        2957.25           1319          65.00       238.89
 1123.37        2957.50           1322          75.00       282.48
 1123.40        2957.75           1326          76.00       286.84
 1123.43        2958.00           1329          77.00       291.20
 1123.46        2958.25           1332          67.00       247.60
 1123.49        2958.50           1336          72.00       269.40
 1123.52        2958.75           1339          78.00       295.56
 1123.55        2959.00           1342          71.00       265.04
 1123.59        2959.25           1346          79.00       299.92
 1123.62        2959.50           1349          83.00       317.35
 1123.65        2959.75           1352          95.00       369.66
 1123.68        2960.00           1356         120.00       478.65
 1123.71        2960.25           1359         159.00       648.66
 1123.74        2960.50           1362         207.00       857.91
 1123.77        2960.75           1366         247.00      1032.29
 1123.80        2961.00           1369         287.00      1206.67
 1123.83        2961.25           1372         308.00      1298.22
 1123.86        2961.50           1376         396.00      1681.86
 1123.89        2961.75           1379         529.00      2261.71
 1123.92        2962.00           1382        1123.00      4851.62
 1123.95        2962.25           1386        2861.00     12431.84
 1123.98        2962.50           1389        4300.00     18710.59
 1124.02        2962.75           1392        5770.00     25127.04
 1124.05        2963.00           1396        7770.00     33860.88
 1124.08        2963.25           1399        9252.00     40335.62
 1124.11        2963.50           1402       10722.00     46760.41
 1124.14        2963.75           1406       12833.00     55991.10
 1124.17        2964.00           1409       14523.00     63384.58
 1124.20        2964.25           1412       16020.00     69936.48
 1124.23        2964.50           1416       18226.00     79596.13
 1124.26        2964.75           1419       19793.00     86461.12
 1124.30        2965.00           1422       21514.00     94004.06
 1124.33        2965.25           1426       23555.00    102953.90
 1124.36        2965.50           1429       25246.00    110372.70
 1124.39        2965.75           1432       26767.00    117048.50
 1124.42        2966.00           1436       28809.00    126015.20
 1124.45        2966.25           1439       30160.00    131950.30
 1124.48        2966.50           1442       31604.00    138296.20
 1124.51        2966.75           1446       32995.00    144411.60
 1124.54        2967.00           1449       33552.00    146861.00
 1124.58        2967.25           1452       33807.00    147982.50
 1124.61        2967.50           1456       33673.00    147393.10
 1124.64        2967.75           1459       33503.00    146645.50
 1124.67        2968.00           1462       33632.00    147212.80
 1124.70        2968.25           1466       32420.00    141883.40
 1124.73        2968.50           1469       30967.00    135496.50
 1124.76        2968.75           1472       29781.00    130285.00
 1124.79        2969.00           1476       27683.00    121070.20
 1124.83        2969.25           1479       26086.00    114059.20
 1124.86        2969.50           1482       24719.00    108060.30
 1124.89        2969.75           1486       22485.00     98261.34
 1124.92        2970.00           1489       20760.00     90698.94
 1124.95        2970.25           1492       19316.00     84371.09
 1124.98        2970.50           1496       17229.00     75229.77
 1125.01        2970.75           1499       15749.00     68750.20
 1125.04        2971.00           1502       14167.00     61826.87
 1125.07        2971.25           1506       12166.00     53073.98
 1125.11        2971.50           1509       10447.00     45558.30
 1125.14        2971.75           1513        8450.00     36831.43
 1125.17        2972.00           1516        6972.00     30375.53
 1125.20        2972.25           1519        5461.00     23778.07
 1125.23        2972.50           1523        3527.00     15337.48
 1125.26        2972.75           1526        2142.00      9295.53
 1125.29        2973.00           1529         895.00      3857.46
 1125.32        2973.25           1533         429.00      1825.73
 1125.35        2973.50           1536         330.00      1394.13
 1125.38        2973.75           1539         292.00      1228.47
 1125.41        2974.00           1543         274.00      1150.00
 1125.44        2974.25           1546         184.00       757.65
 1125.48        2974.50           1549         144.00       583.27
 1125.51        2974.75           1553          93.00       360.95
 1125.54        2975.00           1556          84.00       321.71
 1125.57        2975.25           1559          76.00       286.84
 1125.60        2975.50           1563          76.00       286.84
 1125.63        2975.75           1566          67.00       247.60
 1125.66        2976.00           1569          66.00       243.25
 1125.69        2976.25           1573          67.00       247.60
 1125.72        2976.50           1576          73.00       273.76
 1125.75        2976.75           1579          70.00       260.68
 1125.79        2977.00           1583          63.00       230.17
 1125.82        2977.25           1586          76.00       286.84
 1125.85        2977.50           1590          66.00       243.25
 1125.88        2977.75           1593          70.00       260.68
 1125.91        2978.00           1596          70.00       260.68
 1125.94        2978.25           1600          74.00       278.12
 1125.97        2978.50           1603          62.00       225.81
 1126.00        2978.75           1606          65.00       238.89
 1126.03        2979.00           1610          63.00       230.17
 1126.06        2979.25           1613          55.00       195.29
 1126.10        2979.50           1616          63.00       230.17
 1126.13        2979.75           1620          65.00       238.89
 1126.16        2980.00           1623          64.00       234.53
 1126.19        2980.25           1626          56.00       199.65
 1126.22        2980.50           1630          57.00       204.01
 1126.25        2980.75           1633          65.00       238.89
 1126.28        2981.00           1637          54.00       190.93
 1126.31        2981.25           1640          60.00       217.09
 1126.34        2981.50           1643          67.00       247.60
 1126.37        2981.75           1647          68.00       251.96
 1126.40        2982.00           1650          56.00       199.65
 1126.43        2982.25           1653          69.00       256.32
 1126.46        2982.50           1657          69.00       256.32
 1126.49        2982.75           1660          67.00       247.60
 1126.53        2983.00           1663          60.00       217.09
 1126.56        2983.25           1667          66.00       243.25
 1126.59        2983.50           1670          61.00       221.45
 1126.62        2983.75           1673          59.00       212.73
 1126.65        2984.00           1677          68.00       251.96
HS scan finished at 18:46:52
end
