************************************************************
  HS Scan of (1) Internal mercury lamp
************************************************************
Integration time is 0.2294 seconds per sample
dh021017Manchester 53.47 2.23 2.804185pr1000
************************************************************
Dead Time -------------------------  3E-08 
Number of Cycles Used -------------  4 
Starting Wavelength (Angstroms) ---  2950 
Final Wavelength (Angstoms) -------  2984 
Wavelength Increment (Angstroms) --  .25 
Filter Wheel #1 Position ---------- (1) Ground quartz diffuser (ND=2.32)
Filter Wheel #2 Position ---------- (1) Neutral Density 0.494



************************************************************
HS scan start time = 03:15:02
Dark Count =  5.3 


Time (GMT)  Wavelength (Ang)  Step Number  Raw Counts  Counts/Second

  195.40        2950.00           1222          76.00       308.20
  195.47        2950.25           1226          69.00       277.68
  195.50        2950.50           1229          76.00       308.20
  195.53        2950.75           1232          69.00       277.68
  195.56        2951.00           1236          68.00       273.32
  195.59        2951.25           1239          75.00       303.84
  195.62        2951.50           1242          63.00       251.53
  195.65        2951.75           1246          74.00       299.48
  195.68        2952.00           1249          69.00       277.68
  195.71        2952.25           1252          73.00       295.12
  195.74        2952.50           1256          69.00       277.68
  195.77        2952.75           1259          68.00       273.32
  195.80        2953.00           1262          67.00       268.96
  195.84        2953.25           1266          71.00       286.40
  195.87        2953.50           1269          67.00       268.96
  195.90        2953.75           1272          85.00       347.43
  195.93        2954.00           1276          74.00       299.48
  195.96        2954.25           1279          71.00       286.40
  195.99        2954.50           1282          77.00       312.56
  196.02        2954.75           1286          62.00       247.17
  196.05        2955.00           1289          68.00       273.32
  196.08        2955.25           1292          72.00       290.76
  196.11        2955.50           1296          77.00       312.56
  196.14        2955.75           1299          71.00       286.40
  196.17        2956.00           1302          69.00       277.68
  196.21        2956.25           1306          75.00       303.84
  196.24        2956.50           1309          72.00       290.76
  196.27        2956.75           1312          71.00       286.40
  196.30        2957.00           1316          71.00       286.40
  196.33        2957.25           1319          73.00       295.12
  196.36        2957.50           1322          76.00       308.20
  196.39        2957.75           1326          70.00       282.04
  196.42        2958.00           1329          67.00       268.96
  196.45        2958.25           1332          72.00       290.76
  196.48        2958.50           1336          68.00       273.32
  196.53        2958.75           1339          82.00       334.35
  196.56        2959.00           1342          72.00       290.76
  196.59        2959.25           1346          73.00       295.12
  196.62        2959.50           1349          78.00       316.92
  196.65        2959.75           1352         100.00       412.82
  196.69        2960.00           1356         122.00       508.73
  196.72        2960.25           1359         156.00       656.94
  196.75        2960.50           1362         199.00       844.40
  196.78        2960.75           1366         252.00      1075.45
  196.81        2961.00           1369         284.00      1214.95
  196.84        2961.25           1372         319.00      1367.54
  196.87        2961.50           1376         439.00      1890.69
  196.90        2961.75           1379         785.00      3399.21
  196.93        2962.00           1382        1731.00      7524.37
  196.96        2962.25           1386        3565.00     15524.67
  196.99        2962.50           1389        5089.00     22175.61
  197.03        2962.75           1392        6720.00     29296.45
  197.06        2963.00           1396        8586.00     37447.02
  197.09        2963.25           1399       10052.00     43853.21
  197.12        2963.50           1402       11757.00     51306.90
  197.15        2963.75           1406       13895.00     60658.24
  197.18        2964.00           1409       15541.00     67861.21
  197.21        2964.25           1412       17296.00     75544.60
  197.24        2964.50           1416       19691.00     86035.64
  197.27        2964.75           1419       21094.00     92184.40
  197.31        2965.00           1422       22771.00     99536.98
  197.34        2965.25           1426       24741.00    108178.30
  197.37        2965.50           1429       26451.00    115682.80
  197.40        2965.75           1432       27991.00    122444.20
  197.43        2966.00           1436       30022.00    131365.40
  197.46        2966.25           1439       31475.00    137750.80
  197.49        2966.50           1442       32777.00    143474.60
  197.52        2966.75           1446       34121.00    149385.10
  197.55        2967.00           1449       34229.00    149860.10
  197.59        2967.25           1452       34142.00    149477.40
  197.62        2967.50           1456       34186.00    149671.00
  197.65        2967.75           1459       34075.00    149182.70
  197.68        2968.00           1462       33753.00    147766.50
  197.71        2968.25           1466       32570.00    142564.40
  197.74        2968.50           1469       30964.00    135504.80
  197.77        2968.75           1472       29437.00    128795.30
  197.80        2969.00           1476       27486.00    120226.70
  197.83        2969.25           1479       26092.00    114107.00
  197.87        2969.50           1482       24558.00    107375.40
  197.90        2969.75           1486       22408.00     97945.18
  197.93        2970.00           1489       20935.00     91487.46
  197.96        2970.25           1492       19163.00     83722.22
  197.99        2970.50           1496       17277.00     75461.40
  198.02        2970.75           1499       15559.00     67940.00
  198.05        2971.00           1502       13856.00     60487.61
  198.08        2971.25           1506       11695.00     51035.80
  198.11        2971.50           1509       10244.00     44692.41
  198.15        2971.75           1513        8259.00     36018.41
  198.18        2972.00           1516        6746.00     29409.99
  198.21        2972.25           1519        5222.00     22756.16
  198.24        2972.50           1523        3172.00     13809.99
  198.27        2972.75           1526        1763.00      7663.92
  198.30        2973.00           1529         771.00      3338.17
  198.33        2973.25           1533         420.00      1807.86
  198.36        2973.50           1536         346.00      1485.25
  198.39        2973.75           1539         283.00      1210.59
  198.42        2974.00           1543         243.00      1036.21
  198.45        2974.25           1546         177.00       748.49
  198.48        2974.50           1549         157.00       661.30
  198.51        2974.75           1553         104.00       430.26
  198.54        2975.00           1556          87.00       356.15
  198.57        2975.25           1559          76.00       308.20
  198.61        2975.50           1563          76.00       308.20
  198.64        2975.75           1566          65.00       260.25
  198.67        2976.00           1569          65.00       260.25
  198.70        2976.25           1573          73.00       295.12
  198.73        2976.50           1576          68.00       273.32
  198.76        2976.75           1579          71.00       286.40
  198.79        2977.00           1583          68.00       273.32
  198.82        2977.25           1586          67.00       268.96
  198.85        2977.50           1590          59.00       234.09
  198.88        2977.75           1593          70.00       282.04
  198.91        2978.00           1596          76.00       308.20
  198.95        2978.25           1600          64.00       255.89
  198.98        2978.50           1603          66.00       264.61
  199.01        2978.75           1606          66.00       264.61
  199.04        2979.00           1610          63.00       251.53
  199.07        2979.25           1613          60.00       238.45
  199.10        2979.50           1616          64.00       255.89
  199.13        2979.75           1620          69.00       277.68
  199.16        2980.00           1623          64.00       255.89
  199.19        2980.25           1626          65.00       260.25
  199.22        2980.50           1630          67.00       268.96
  199.25        2980.75           1633          68.00       273.32
  199.28        2981.00           1637          59.00       234.09
  199.31        2981.25           1640          61.00       242.81
  199.34        2981.50           1643          62.00       247.17
  199.38        2981.75           1647          71.00       286.40
  199.41        2982.00           1650          66.00       264.61
  199.44        2982.25           1653          66.00       264.61
  199.47        2982.50           1657          60.00       238.45
  199.50        2982.75           1660          73.00       295.12
  199.53        2983.00           1663          58.00       229.73
  199.56        2983.25           1667          60.00       238.45
  199.59        2983.50           1670          69.00       277.68
  199.62        2983.75           1673          65.00       260.25
  199.65        2984.00           1677          62.00       247.17
HS scan finished at 03:19:52
end
************************************************************
  HS Scan of (1) Internal mercury lamp
************************************************************
Integration time is 0.2294 seconds per sample
dh021017Manchester 53.47 2.23 2.804185pr1000
************************************************************
Dead Time -------------------------  3E-08 
Number of Cycles Used -------------  4 
Starting Wavelength (Angstroms) ---  2950 
Final Wavelength (Angstoms) -------  2984 
Wavelength Increment (Angstroms) --  .25 
Filter Wheel #1 Position ---------- (1) Ground quartz diffuser (ND=2.32)
Filter Wheel #2 Position ---------- (1) Neutral Density 0.494



************************************************************
HS scan start time = 18:42:01
Dark Count =  6.8 


Time (GMT)  Wavelength (Ang)  Step Number  Raw Counts  Counts/Second

 1122.38        2950.00           1222          79.00       314.74
 1122.45        2950.25           1226          75.00       297.30
 1122.48        2950.50           1229          74.00       292.94
 1122.51        2950.75           1232          74.00       292.94
 1122.54        2951.00           1236          78.00       310.38
 1122.57        2951.25           1239          75.00       297.30
 1122.60        2951.50           1242          73.00       288.58
 1122.63        2951.75           1246          76.00       301.66
 1122.66        2952.00           1249          73.00       288.58
 1122.69        2952.25           1252          76.00       301.66
 1122.72        2952.50           1256          66.00       258.07
 1122.75        2952.75           1259          71.00       279.86
 1122.79        2953.00           1262          78.00       310.38
 1122.82        2953.25           1266          76.00       301.66
 1122.85        2953.50           1269          67.00       262.43
 1122.88        2953.75           1272          71.00       279.86
 1122.91        2954.00           1276          78.00       310.38
 1122.94        2954.25           1279          69.00       271.14
 1122.97        2954.50           1282          69.00       271.14
 1123.00        2954.75           1286          70.00       275.50
 1123.03        2955.00           1289          66.00       258.07
 1123.06        2955.25           1292          79.00       314.74
 1123.10        2955.50           1296          75.00       297.30
 1123.13        2955.75           1299          77.00       306.02
 1123.16        2956.00           1302          55.00       210.11
 1123.19        2956.25           1306          69.00       271.14
 1123.22        2956.50           1309          71.00       279.86
 1123.25        2956.75           1312          72.00       284.22
 1123.28        2957.00           1316          76.00       301.66
 1123.31        2957.25           1319          69.00       271.14
 1123.34        2957.50           1322          73.00       288.58
 1123.37        2957.75           1326          72.00       284.22
 1123.40        2958.00           1329          70.00       275.50
 1123.43        2958.25           1332          79.00       314.74
 1123.46        2958.50           1336          81.00       323.46
 1123.50        2958.75           1339          64.00       249.35
 1123.53        2959.00           1342          81.00       323.46
 1123.56        2959.25           1346          78.00       310.38
 1123.59        2959.50           1349          82.00       327.81
 1123.62        2959.75           1352          97.00       393.20
 1123.65        2960.00           1356         114.00       467.31
 1123.68        2960.25           1359         166.00       694.00
 1123.71        2960.50           1362         192.00       807.34
 1123.74        2960.75           1366         249.00      1055.83
 1123.77        2961.00           1369         303.00      1291.24
 1123.80        2961.25           1372         321.00      1369.72
 1123.83        2961.50           1376         413.00      1770.80
 1123.86        2961.75           1379         671.00      2895.63
 1123.90        2962.00           1382        1449.00      6288.02
 1123.93        2962.25           1386        3395.00     14776.38
 1123.96        2962.50           1389        4895.00     21322.27
 1123.99        2962.75           1392        6481.00     28246.25
 1124.02        2963.00           1396        8371.00     36501.15
 1124.05        2963.25           1399       10096.00     44038.97
 1124.08        2963.50           1402       11497.00     50163.50
 1124.11        2963.75           1406       13462.00     58757.37
 1124.14        2964.00           1409       15031.00     65622.53
 1124.17        2964.25           1412       16779.00     73274.23
 1124.21        2964.50           1416       18910.00     82607.26
 1124.24        2964.75           1419       20529.00     89701.39
 1124.27        2965.00           1422       21980.00     96061.97
 1124.30        2965.25           1426       24119.00    105442.90
 1124.33        2965.50           1429       25595.00    111919.20
 1124.36        2965.75           1432       27102.00    118534.10
 1124.39        2966.00           1436       29096.00    127290.70
 1124.42        2966.25           1439       30679.00    134245.80
 1124.45        2966.50           1442       32002.00    140060.70
 1124.48        2966.75           1446       33340.00    145943.60
 1124.52        2967.00           1449       33723.00    147628.00
 1124.55        2967.25           1452       33899.00    148402.10
 1124.58        2967.50           1456       33715.00    147592.80
 1124.61        2967.75           1459       33849.00    148182.10
 1124.64        2968.00           1462       33731.00    147663.20
 1124.67        2968.25           1466       32479.00    142157.70
 1124.70        2968.50           1469       30974.00    135542.20
 1124.73        2968.75           1472       29713.00    130001.20
 1124.76        2969.00           1476       27632.00    120861.10
 1124.80        2969.25           1479       26019.00    113780.10
 1124.83        2969.50           1482       24644.00    107746.10
 1124.86        2969.75           1486       22563.00     98618.28
 1124.89        2970.00           1489       20757.00     90700.69
 1124.92        2970.25           1492       19416.00     84824.12
 1124.95        2970.50           1496       17402.00     76002.21
 1124.98        2970.75           1499       15783.00     68913.91
 1125.01        2971.00           1502       14238.00     62152.40
 1125.04        2971.25           1506       12058.00     52616.56
 1125.07        2971.50           1509       10451.00     45590.65
 1125.11        2971.75           1513        8447.00     36833.18
 1125.14        2972.00           1516        6882.00     29997.34
 1125.17        2972.25           1519        5379.00     23434.96
 1125.20        2972.50           1523        3425.00     14907.28
 1125.23        2972.75           1526        1982.00      8612.51
 1125.26        2973.00           1529         870.00      3763.28
 1125.29        2973.25           1533         397.00      1701.05
 1125.32        2973.50           1536         327.00      1395.87
 1125.35        2973.75           1539         271.00      1151.74
 1125.38        2974.00           1543         232.00       981.72
 1125.41        2974.25           1546         174.00       728.87
 1125.45        2974.50           1549         136.00       563.22
 1125.48        2974.75           1553         103.00       419.36
 1125.51        2975.00           1556          83.00       332.17
 1125.54        2975.25           1559          76.00       301.66
 1125.57        2975.50           1563          70.00       275.50
 1125.60        2975.75           1566          75.00       297.30
 1125.63        2976.00           1569          70.00       275.50
 1125.66        2976.25           1573          69.00       271.14
 1125.69        2976.50           1576          70.00       275.50
 1125.72        2976.75           1579          65.00       253.71
 1125.76        2977.00           1583          71.00       279.86
 1125.79        2977.25           1586          74.00       292.94
 1125.82        2977.50           1590          65.00       253.71
 1125.85        2977.75           1593          70.00       275.50
 1125.88        2978.00           1596          64.00       249.35
 1125.91        2978.25           1600          65.00       253.71
 1125.94        2978.50           1603          68.00       266.79
 1125.97        2978.75           1606          63.00       244.99
 1126.00        2979.00           1610          71.00       279.86
 1126.03        2979.25           1613          60.00       231.91
 1126.06        2979.50           1616          65.00       253.71
 1126.09        2979.75           1620          64.00       249.35
 1126.12        2980.00           1623          60.00       231.91
 1126.16        2980.25           1626          62.00       240.63
 1126.19        2980.50           1630          70.00       275.50
 1126.22        2980.75           1633          68.00       266.79
 1126.25        2981.00           1637          57.00       218.83
 1126.28        2981.25           1640          71.00       279.86
 1126.31        2981.50           1643          58.00       223.19
 1126.34        2981.75           1647          60.00       231.91
 1126.37        2982.00           1650          58.00       223.19
 1126.40        2982.25           1653          64.00       249.35
 1126.43        2982.50           1657          64.00       249.35
 1126.47        2982.75           1660          71.00       279.86
 1126.50        2983.00           1663          60.00       231.91
 1126.53        2983.25           1667          66.00       258.07
 1126.56        2983.50           1670          65.00       253.71
 1126.59        2983.75           1673          70.00       275.50
 1126.62        2984.00           1677          56.00       214.47
HS scan finished at 18:46:50
end
