************************************************************
  HS Scan of (1) Internal mercury lamp
************************************************************
Integration time is 0.2294 seconds per sample
dh051018Manchester 53.47 2.23 2.804185pr1000
************************************************************
Dead Time -------------------------  3E-08 
Number of Cycles Used -------------  4 
Starting Wavelength (Angstroms) ---  2950 
Final Wavelength (Angstoms) -------  2984 
Wavelength Increment (Angstroms) --  .25 
Filter Wheel #1 Position ---------- (1) Ground quartz diffuser (ND=2.32)
Filter Wheel #2 Position ---------- (1) Neutral Density 0.494



************************************************************
HS scan start time = 18:43:17
Dark Count =  6.6 


Time (GMT)  Wavelength (Ang)  Step Number  Raw Counts  Counts/Second

 1123.65        2950.00           1222          55.00       210.99
 1123.71        2950.25           1226          50.00       189.19
 1123.74        2950.50           1229          53.00       202.27
 1123.78        2950.75           1232          46.00       171.75
 1123.81        2951.00           1236          56.00       215.35
 1123.84        2951.25           1239          51.00       193.55
 1123.87        2951.50           1242          54.00       206.63
 1123.90        2951.75           1246          47.00       176.11
 1123.93        2952.00           1249          59.00       228.42
 1123.96        2952.25           1252          46.00       171.75
 1123.99        2952.50           1256          51.00       193.55
 1124.02        2952.75           1259          50.00       189.19
 1124.06        2953.00           1262          46.00       171.75
 1124.09        2953.25           1266          45.00       167.39
 1124.12        2953.50           1269          52.00       197.91
 1124.15        2953.75           1272          46.00       171.75
 1124.18        2954.00           1276          52.00       197.91
 1124.21        2954.25           1279          54.00       206.63
 1124.24        2954.50           1282          63.00       245.86
 1124.27        2954.75           1286          50.00       189.19
 1124.30        2955.00           1289          51.00       193.55
 1124.33        2955.25           1292          43.00       158.68
 1124.36        2955.50           1296          44.00       163.03
 1124.39        2955.75           1299          48.00       180.47
 1124.43        2956.00           1302          46.00       171.75
 1124.46        2956.25           1306          53.00       202.27
 1124.49        2956.50           1309          45.00       167.39
 1124.52        2956.75           1312          53.00       202.27
 1124.55        2957.00           1316          52.00       197.91
 1124.58        2957.25           1319          66.00       258.94
 1124.61        2957.50           1322          53.00       202.27
 1124.64        2957.75           1326          48.00       180.47
 1124.67        2958.00           1329          49.00       184.83
 1124.70        2958.25           1332          54.00       206.63
 1124.74        2958.50           1336          48.00       180.47
 1124.77        2958.75           1339          45.00       167.39
 1124.80        2959.00           1342          50.00       189.19
 1124.83        2959.25           1346          57.00       219.71
 1124.86        2959.50           1349          54.00       206.63
 1124.89        2959.75           1352          71.00       280.73
 1124.92        2960.00           1356          86.00       346.12
 1124.95        2960.25           1359         111.00       455.11
 1124.98        2960.50           1362         126.00       520.50
 1125.01        2960.75           1366         169.00       707.95
 1125.04        2961.00           1369         224.00       947.72
 1125.07        2961.25           1372         238.00      1008.75
 1125.11        2961.50           1376         299.00      1274.68
 1125.14        2961.75           1379         367.00      1571.13
 1125.17        2962.00           1382         697.00      3009.86
 1125.20        2962.25           1386        1906.00      8281.92
 1125.23        2962.50           1389        3091.00     13450.94
 1125.26        2962.75           1392        4215.00     18355.35
 1125.29        2963.00           1396        5764.00     25116.57
 1125.32        2963.25           1399        6939.00     30247.14
 1125.35        2963.50           1402        8140.00     35492.88
 1125.38        2963.75           1406        9858.00     42999.64
 1125.42        2964.00           1409       10925.00     47663.58
 1125.45        2964.25           1412       12289.00     53627.63
 1125.48        2964.50           1416       13930.00     60805.68
 1125.51        2964.75           1419       15185.00     66297.38
 1125.54        2965.00           1422       16566.00     72342.53
 1125.57        2965.25           1426       17971.00     78495.00
 1125.60        2965.50           1429       19284.00     84246.66
 1125.63        2965.75           1432       20512.00     89627.78
 1125.66        2966.00           1436       21948.00     95922.54
 1125.70        2966.25           1439       23190.00    101368.80
 1125.73        2966.50           1442       24266.00    106088.60
 1125.76        2966.75           1446       25706.00    112407.20
 1125.79        2967.00           1449       26241.00    114755.30
 1125.82        2967.25           1452       26446.00    115655.20
 1125.85        2967.50           1456       26449.00    115668.30
 1125.88        2967.75           1459       26286.00    114952.90
 1125.91        2968.00           1462       26349.00    115229.40
 1125.94        2968.25           1466       25862.00    113091.90
 1125.98        2968.50           1469       24995.00    109287.10
 1126.01        2968.75           1472       23899.00    104478.70
 1126.04        2969.00           1476       22226.00     97141.44
 1126.07        2969.25           1479       21129.00     92332.12
 1126.10        2969.50           1482       19804.00     86525.09
 1126.13        2969.75           1486       18038.00     78788.46
 1126.16        2970.00           1489       16870.00     73673.56
 1126.19        2970.25           1492       15599.00     68109.38
 1126.22        2970.50           1496       14107.00     61580.10
 1126.26        2970.75           1499       12950.00     56518.59
 1126.29        2971.00           1502       11732.00     51191.90
 1126.32        2971.25           1506       10107.00     44087.92
 1126.35        2971.50           1509        8786.00     38315.16
 1126.38        2971.75           1513        7243.00     31574.80
 1126.41        2972.00           1516        6030.00     26277.90
 1126.44        2972.25           1519        4782.00     20829.93
 1126.47        2972.50           1523        3272.00     14240.61
 1126.50        2972.75           1526        2040.00      8866.35
 1126.53        2973.00           1529        1024.00      4435.64
 1126.57        2973.25           1533         377.00      1614.73
 1126.60        2973.50           1536         267.00      1135.17
 1126.63        2973.75           1539         238.00      1008.75
 1126.66        2974.00           1543         194.00       816.93
 1126.69        2974.25           1546         141.00       585.89
 1126.72        2974.50           1549         100.00       407.15
 1126.75        2974.75           1553          73.00       289.45
 1126.78        2975.00           1556          53.00       202.27
 1126.81        2975.25           1559          54.00       206.63
 1126.84        2975.50           1563          45.00       167.39
 1126.87        2975.75           1566          46.00       171.75
 1126.90        2976.00           1569          54.00       206.63
 1126.94        2976.25           1573          45.00       167.39
 1126.97        2976.50           1576          48.00       180.47
 1127.00        2976.75           1579          46.00       171.75
 1127.03        2977.00           1583          61.00       237.14
 1127.06        2977.25           1586          46.00       171.75
 1127.09        2977.50           1590          52.00       197.91
 1127.12        2977.75           1593          56.00       215.35
 1127.15        2978.00           1596          45.00       167.39
 1127.18        2978.25           1600          49.00       184.83
 1127.21        2978.50           1603          50.00       189.19
 1127.25        2978.75           1606          44.00       163.03
 1127.28        2979.00           1610          45.00       167.39
 1127.31        2979.25           1613          54.00       206.63
 1127.34        2979.50           1616          45.00       167.39
 1127.37        2979.75           1620          42.00       154.32
 1127.40        2980.00           1623          43.00       158.68
 1127.43        2980.25           1626          47.00       176.11
 1127.46        2980.50           1630          49.00       184.83
 1127.49        2980.75           1633          41.00       149.96
 1127.52        2981.00           1637          45.00       167.39
 1127.55        2981.25           1640          42.00       154.32
 1127.59        2981.50           1643          47.00       176.11
 1127.62        2981.75           1647          47.00       176.11
 1127.65        2982.00           1650          43.00       158.68
 1127.68        2982.25           1653          51.00       193.55
 1127.71        2982.50           1657          45.00       167.39
 1127.74        2982.75           1660          40.00       145.60
 1127.77        2983.00           1663          44.00       163.03
 1127.80        2983.25           1667          52.00       197.91
 1127.83        2983.50           1670          44.00       163.03
 1127.86        2983.75           1673          49.00       184.83
 1127.89        2984.00           1677          47.00       176.11
HS scan finished at 18:48:07
end
