************************************************************
  HS Scan of (1) Internal mercury lamp
************************************************************
Integration time is 0.2294 seconds per sample
dh011017Manchester 53.47 2.23 2.804185pr1000
************************************************************
Dead Time -------------------------  3E-08 
Number of Cycles Used -------------  4 
Starting Wavelength (Angstroms) ---  2950 
Final Wavelength (Angstoms) -------  2984 
Wavelength Increment (Angstroms) --  .25 
Filter Wheel #1 Position ---------- (1) Ground quartz diffuser (ND=2.32)
Filter Wheel #2 Position ---------- (1) Neutral Density 0.494



************************************************************
HS scan start time = 03:12:18
Dark Count =  6.8 


Time (GMT)  Wavelength (Ang)  Step Number  Raw Counts  Counts/Second

  192.67        2950.00           1222          73.00       288.58
  192.74        2950.25           1226          78.00       310.38
  192.77        2950.50           1229          81.00       323.46
  192.80        2950.75           1232          66.00       258.07
  192.83        2951.00           1236          71.00       279.86
  192.86        2951.25           1239          73.00       288.58
  192.89        2951.50           1242          82.00       327.81
  192.92        2951.75           1246          76.00       301.66
  192.95        2952.00           1249          71.00       279.86
  192.98        2952.25           1252          75.00       297.30
  193.02        2952.50           1256          78.00       310.38
  193.05        2952.75           1259          63.00       244.99
  193.08        2953.00           1262          74.00       292.94
  193.11        2953.25           1266          73.00       288.58
  193.14        2953.50           1269          74.00       292.94
  193.17        2953.75           1272          73.00       288.58
  193.20        2954.00           1276          67.00       262.43
  193.23        2954.25           1279          77.00       306.02
  193.26        2954.50           1282          73.00       288.58
  193.29        2954.75           1286          68.00       266.79
  193.32        2955.00           1289          75.00       297.30
  193.35        2955.25           1292          66.00       258.07
  193.38        2955.50           1296          73.00       288.58
  193.42        2955.75           1299          69.00       271.14
  193.45        2956.00           1302          74.00       292.94
  193.48        2956.25           1306          91.00       367.05
  193.51        2956.50           1309          72.00       284.22
  193.54        2956.75           1312          73.00       288.58
  193.57        2957.00           1316          72.00       284.22
  193.60        2957.25           1319          74.00       292.94
  193.63        2957.50           1322          67.00       262.43
  193.66        2957.75           1326          78.00       310.38
  193.69        2958.00           1329          71.00       279.86
  193.72        2958.25           1332          71.00       279.86
  193.76        2958.50           1336          71.00       279.86
  193.79        2958.75           1339          85.00       340.89
  193.82        2959.00           1342          74.00       292.94
  193.85        2959.25           1346          71.00       279.86
  193.88        2959.50           1349          74.00       292.94
  193.91        2959.75           1352          90.00       362.69
  193.94        2960.00           1356         116.00       476.03
  193.97        2960.25           1359         137.00       567.58
  194.00        2960.50           1362         162.00       676.56
  194.03        2960.75           1366         227.00       959.92
  194.06        2961.00           1369         258.00      1095.07
  194.10        2961.25           1372         293.00      1247.65
  194.13        2961.50           1376         402.00      1722.84
  194.16        2961.75           1379         537.00      2311.41
  194.19        2962.00           1382        1122.00      4862.09
  194.22        2962.25           1386        2783.00     12106.40
  194.25        2962.50           1389        4352.00     18952.36
  194.28        2962.75           1392        5863.00     25547.91
  194.31        2963.00           1396        7872.00     34321.29
  194.34        2963.25           1399        9465.00     41281.26
  194.38        2963.50           1402       10995.00     47968.72
  194.41        2963.75           1406       13292.00     58013.70
  194.44        2964.00           1409       14891.00     65009.84
  194.47        2964.25           1412       16515.00     72118.38
  194.50        2964.50           1416       18690.00     81643.49
  194.53        2964.75           1419       20143.00     88009.75
  194.56        2965.00           1422       21851.00     95496.38
  194.59        2965.25           1426       24113.00    105416.60
  194.62        2965.50           1429       25295.00    110602.60
  194.66        2965.75           1432       26930.00    117779.00
  194.69        2966.00           1436       28959.00    126689.00
  194.72        2966.25           1439       30509.00    133498.70
  194.75        2966.50           1442       31946.00    139814.50
  194.78        2966.75           1446       33477.00    146546.10
  194.81        2967.00           1449       33856.00    148212.90
  194.84        2967.25           1452       33976.00    148740.70
  194.87        2967.50           1456       34088.00    149233.30
  194.90        2967.75           1459       33920.00    148494.40
  194.93        2968.00           1462       33784.00    147896.30
  194.96        2968.25           1466       33037.00    144611.20
  195.00        2968.50           1469       31721.00    138825.40
  195.03        2968.75           1472       30262.00    132413.40
  195.06        2969.00           1476       28046.00    122679.10
  195.09        2969.25           1479       26679.00    116677.10
  195.12        2969.50           1482       25137.00    109909.30
  195.15        2969.75           1486       22980.00    100447.00
  195.18        2970.00           1489       21549.00     94172.39
  195.21        2970.25           1492       19944.00     87137.69
  195.24        2970.50           1496       17861.00     78012.35
  195.27        2970.75           1499       16281.00     71093.93
  195.31        2971.00           1502       14812.00     64664.12
  195.34        2971.25           1506       12710.00     55467.99
  195.37        2971.50           1509       11111.00     48475.85
  195.40        2971.75           1513        9057.00     39498.39
  195.43        2972.00           1516        7519.00     32779.39
  195.46        2972.25           1519        6013.00     26202.81
  195.49        2972.50           1523        4023.00     17516.61
  195.52        2972.75           1526        2593.00     11277.57
  195.55        2973.00           1529        1238.00      5367.91
  195.58        2973.25           1533         494.00      2123.94
  195.61        2973.50           1536         356.00      1522.30
  195.64        2973.75           1539         301.00      1282.53
  195.68        2974.00           1543         250.00      1060.19
  195.71        2974.25           1546         204.00       859.66
  195.74        2974.50           1549         159.00       663.48
  195.77        2974.75           1553         111.00       454.23
  195.80        2975.00           1556          87.00       349.61
  195.83        2975.25           1559          74.00       292.94
  195.86        2975.50           1563          67.00       262.43
  195.89        2975.75           1566          81.00       323.46
  195.92        2976.00           1569          75.00       297.30
  195.95        2976.25           1573          67.00       262.43
  195.99        2976.50           1576          67.00       262.43
  196.02        2976.75           1579          66.00       258.07
  196.05        2977.00           1583          64.00       249.35
  196.08        2977.25           1586          61.00       236.27
  196.11        2977.50           1590          71.00       279.86
  196.14        2977.75           1593          66.00       258.07
  196.17        2978.00           1596          68.00       266.79
  196.20        2978.25           1600          69.00       271.14
  196.23        2978.50           1603          69.00       271.14
  196.26        2978.75           1606          73.00       288.58
  196.29        2979.00           1610          72.00       284.22
  196.33        2979.25           1613          65.00       253.71
  196.36        2979.50           1616          59.00       227.55
  196.39        2979.75           1620          66.00       258.07
  196.42        2980.00           1623          69.00       271.14
  196.45        2980.25           1626          64.00       249.35
  196.48        2980.50           1630          67.00       262.43
  196.51        2980.75           1633          64.00       249.35
  196.54        2981.00           1637          62.00       240.63
  196.57        2981.25           1640          60.00       231.91
  196.60        2981.50           1643          65.00       253.71
  196.63        2981.75           1647          60.00       231.91
  196.66        2982.00           1650          68.00       266.79
  196.69        2982.25           1653          60.00       231.91
  196.73        2982.50           1657          57.00       218.83
  196.76        2982.75           1660          69.00       271.14
  196.79        2983.00           1663          65.00       253.71
  196.82        2983.25           1667          67.00       262.43
  196.85        2983.50           1670          55.00       210.11
  196.88        2983.75           1673          69.00       271.14
  196.91        2984.00           1677          63.00       244.99
HS scan finished at 03:17:08
end
************************************************************
  HS Scan of (1) Internal mercury lamp
************************************************************
Integration time is 0.2294 seconds per sample
dh011017Manchester 53.47 2.23 2.911481pr1000
************************************************************
Dead Time -------------------------  3E-08 
Number of Cycles Used -------------  4 
Starting Wavelength (Angstroms) ---  2950 
Final Wavelength (Angstoms) -------  2984 
Wavelength Increment (Angstroms) --  .25 
Filter Wheel #1 Position ---------- (1) Ground quartz diffuser (ND=2.32)
Filter Wheel #2 Position ---------- (1) Neutral Density 0.494



************************************************************
HS scan start time = 18:42:01
Dark Count =  3.4 


Time (GMT)  Wavelength (Ang)  Step Number  Raw Counts  Counts/Second

 1122.39        2950.00           1222          72.00       299.04
 1122.46        2950.25           1226          69.00       285.97
 1122.49        2950.50           1229          74.00       307.76
 1122.52        2950.75           1232          73.00       303.40
 1122.55        2951.00           1236          71.00       294.68
 1122.58        2951.25           1239          78.00       325.20
 1122.61        2951.50           1242          76.00       316.48
 1122.64        2951.75           1246          74.00       307.76
 1122.67        2952.00           1249          71.00       294.68
 1122.70        2952.25           1252          74.00       307.76
 1122.73        2952.50           1256          70.00       290.33
 1122.76        2952.75           1259          74.00       307.76
 1122.80        2953.00           1262          65.00       268.53
 1122.83        2953.25           1266          76.00       316.48
 1122.86        2953.50           1269          77.00       320.84
 1122.89        2953.75           1272          75.00       312.12
 1122.92        2954.00           1276          78.00       325.20
 1122.95        2954.25           1279          65.00       268.53
 1122.98        2954.50           1282          74.00       307.76
 1123.01        2954.75           1286          63.00       259.81
 1123.04        2955.00           1289          70.00       290.33
 1123.07        2955.25           1292          79.00       329.56
 1123.10        2955.50           1296          70.00       290.33
 1123.13        2955.75           1299          69.00       285.97
 1123.17        2956.00           1302          79.00       329.56
 1123.20        2956.25           1306          71.00       294.68
 1123.23        2956.50           1309          74.00       307.76
 1123.26        2956.75           1312          70.00       290.33
 1123.29        2957.00           1316          62.00       255.45
 1123.32        2957.25           1319          79.00       329.56
 1123.35        2957.50           1322          67.00       277.25
 1123.38        2957.75           1326          75.00       312.12
 1123.41        2958.00           1329          74.00       307.76
 1123.44        2958.25           1332          77.00       320.84
 1123.48        2958.50           1336          74.00       307.76
 1123.51        2958.75           1339          72.00       299.04
 1123.54        2959.00           1342          69.00       285.97
 1123.57        2959.25           1346          81.00       338.28
 1123.60        2959.50           1349          79.00       329.56
 1123.63        2959.75           1352          95.00       399.31
 1123.66        2960.00           1356         143.00       608.56
 1123.69        2960.25           1359         179.00       765.49
 1123.72        2960.50           1362         206.00       883.20
 1123.75        2960.75           1366         265.00      1140.41
 1123.79        2961.00           1369         319.00      1375.82
 1123.82        2961.25           1372         369.00      1593.80
 1123.85        2961.50           1376         445.00      1925.13
 1123.88        2961.75           1379         639.00      2770.94
 1123.91        2962.00           1382        1220.00      5304.24
 1123.94        2962.25           1386        3001.00     13072.26
 1123.97        2962.50           1389        4480.00     19525.82
 1124.00        2962.75           1392        6037.00     26322.44
 1124.03        2963.00           1396        8304.00     36223.30
 1124.06        2963.25           1399        9932.00     43337.04
 1124.10        2963.50           1402       11613.00     50685.56
 1124.13        2963.75           1406       13906.00     60714.67
 1124.16        2964.00           1409       15484.00     67620.03
 1124.19        2964.25           1412       17192.00     75097.50
 1124.22        2964.50           1416       19314.00     84392.12
 1124.25        2964.75           1419       20874.00     91228.41
 1124.28        2965.00           1422       22605.00     98817.36
 1124.31        2965.25           1426       24719.00    108090.10
 1124.34        2965.50           1429       26288.00    114975.70
 1124.38        2965.75           1432       27957.00    122303.20
 1124.41        2966.00           1436       30221.00    132248.10
 1124.44        2966.25           1439       31712.00    138800.80
 1124.47        2966.50           1442       33372.00    146099.30
 1124.50        2966.75           1446       35025.00    153370.20
 1124.53        2967.00           1449       35463.00    155297.30
 1124.56        2967.25           1452       35607.00    155930.90
 1124.59        2967.50           1456       35489.00    155411.70
 1124.62        2967.75           1459       35572.00    155776.90
 1124.65        2968.00           1462       35287.00    154522.90
 1124.69        2968.25           1466       34500.00    151060.60
 1124.72        2968.50           1469       33310.00    145826.70
 1124.75        2968.75           1472       31674.00    138633.80
 1124.78        2969.00           1476       29460.00    128904.70
 1124.81        2969.25           1479       27906.00    122079.20
 1124.84        2969.50           1482       26007.00    113742.30
 1124.87        2969.75           1486       24161.00    105642.00
 1124.90        2970.00           1489       22349.00     97694.81
 1124.93        2970.25           1492       21089.00     92170.82
 1124.96        2970.50           1496       18897.00     82565.21
 1124.99        2970.75           1499       17362.00     75841.94
 1125.02        2971.00           1502       15733.00     68709.93
 1125.05        2971.25           1506       13607.00     59406.57
 1125.09        2971.50           1509       11785.00     51437.64
 1125.12        2971.75           1513        9625.00     41995.33
 1125.15        2972.00           1516        7874.00     34344.88
 1125.18        2972.25           1519        6305.00     27492.59
 1125.21        2972.50           1523        4209.00     18343.13
 1125.24        2972.75           1526        2608.00     11357.84
 1125.27        2973.00           1529        1112.00      4833.31
 1125.30        2973.25           1533         480.00      2077.72
 1125.33        2973.50           1536         349.00      1506.61
 1125.37        2973.75           1539         278.00      1197.08
 1125.40        2974.00           1543         227.00       974.75
 1125.43        2974.25           1546         177.00       756.77
 1125.46        2974.50           1549         136.00       578.04
 1125.49        2974.75           1553          95.00       399.31
 1125.52        2975.00           1556          83.00       347.00
 1125.55        2975.25           1559          74.00       307.76
 1125.58        2975.50           1563          70.00       290.33
 1125.61        2975.75           1566          67.00       277.25
 1125.64        2976.00           1569          64.00       264.17
 1125.67        2976.25           1573          66.00       272.89
 1125.70        2976.50           1576          63.00       259.81
 1125.73        2976.75           1579          65.00       268.53
 1125.77        2977.00           1583          63.00       259.81
 1125.80        2977.25           1586          69.00       285.97
 1125.83        2977.50           1590          64.00       264.17
 1125.86        2977.75           1593          68.00       281.61
 1125.89        2978.00           1596          61.00       251.09
 1125.92        2978.25           1600          66.00       272.89
 1125.95        2978.50           1603          64.00       264.17
 1125.98        2978.75           1606          66.00       272.89
 1126.01        2979.00           1610          66.00       272.89
 1126.04        2979.25           1613          65.00       268.53
 1126.07        2979.50           1616          68.00       281.61
 1126.10        2979.75           1620          66.00       272.89
 1126.13        2980.00           1623          64.00       264.17
 1126.17        2980.25           1626          66.00       272.89
 1126.20        2980.50           1630          61.00       251.09
 1126.23        2980.75           1633          69.00       285.97
 1126.26        2981.00           1637          65.00       268.53
 1126.29        2981.25           1640          73.00       303.40
 1126.32        2981.50           1643          67.00       277.25
 1126.35        2981.75           1647          65.00       268.53
 1126.38        2982.00           1650          67.00       277.25
 1126.41        2982.25           1653          65.00       268.53
 1126.44        2982.50           1657          64.00       264.17
 1126.47        2982.75           1660          55.00       224.94
 1126.50        2983.00           1663          64.00       264.17
 1126.54        2983.25           1667          63.00       259.81
 1126.57        2983.50           1670          62.00       255.45
 1126.60        2983.75           1673          59.00       242.37
 1126.63        2984.00           1677          67.00       277.25
HS scan finished at 18:46:51
end
