************************************************************
  HS Scan of (1) Internal mercury lamp
************************************************************
Integration time is 0.2294 seconds per sample
dh280917Manchester 53.47 2.23 2.804185pr1000
************************************************************
Dead Time -------------------------  3E-08 
Number of Cycles Used -------------  4 
Starting Wavelength (Angstroms) ---  2950 
Final Wavelength (Angstoms) -------  2984 
Wavelength Increment (Angstroms) --  .25 
Filter Wheel #1 Position ---------- (1) Ground quartz diffuser (ND=2.32)
Filter Wheel #2 Position ---------- (1) Neutral Density 0.494



************************************************************
HS scan start time = 03:03:27
Dark Count =  6.4 


Time (GMT)  Wavelength (Ang)  Step Number  Raw Counts  Counts/Second

  183.82        2950.00           1222          75.00       299.04
  183.88        2950.25           1226          71.00       281.61
  183.91        2950.50           1229          68.00       268.53
  183.94        2950.75           1232          74.00       294.68
  183.98        2951.00           1236          74.00       294.68
  184.01        2951.25           1239          78.00       312.12
  184.04        2951.50           1242          73.00       290.33
  184.07        2951.75           1246          69.00       272.89
  184.10        2952.00           1249          74.00       294.68
  184.13        2952.25           1252          76.00       303.40
  184.16        2952.50           1256          70.00       277.25
  184.19        2952.75           1259          71.00       281.61
  184.22        2953.00           1262          80.00       320.84
  184.25        2953.25           1266          77.00       307.76
  184.28        2953.50           1269          68.00       268.53
  184.31        2953.75           1272          72.00       285.97
  184.35        2954.00           1276          69.00       272.89
  184.38        2954.25           1279          76.00       303.40
  184.41        2954.50           1282          79.00       316.48
  184.44        2954.75           1286          74.00       294.68
  184.47        2955.00           1289          74.00       294.68
  184.50        2955.25           1292          73.00       290.33
  184.53        2955.50           1296          72.00       285.97
  184.56        2955.75           1299          72.00       285.97
  184.59        2956.00           1302          67.00       264.17
  184.62        2956.25           1306          65.00       255.45
  184.65        2956.50           1309          78.00       312.12
  184.69        2956.75           1312          75.00       299.04
  184.72        2957.00           1316          64.00       251.09
  184.75        2957.25           1319          73.00       290.33
  184.78        2957.50           1322          67.00       264.17
  184.81        2957.75           1326          69.00       272.89
  184.84        2958.00           1329          67.00       264.17
  184.87        2958.25           1332          65.00       255.45
  184.90        2958.50           1336          72.00       285.97
  184.93        2958.75           1339          67.00       264.17
  184.96        2959.00           1342          81.00       325.20
  184.99        2959.25           1346          76.00       303.40
  185.03        2959.50           1349          76.00       303.40
  185.06        2959.75           1352          84.00       338.28
  185.09        2960.00           1356         111.00       455.98
  185.12        2960.25           1359         144.00       599.84
  185.15        2960.50           1362         196.00       826.52
  185.18        2960.75           1366         228.00       966.03
  185.21        2961.00           1369         280.00      1192.72
  185.24        2961.25           1372         297.00      1266.83
  185.27        2961.50           1376         385.00      1650.47
  185.30        2961.75           1379         539.00      2321.87
  185.33        2962.00           1382        1019.00      4414.71
  185.37        2962.25           1386        2725.00     11855.13
  185.40        2962.50           1389        4293.00     18696.62
  185.43        2962.75           1392        5944.00     25903.30
  185.46        2963.00           1396        7902.00     34454.08
  185.49        2963.25           1399        9265.00     40409.02
  185.52        2963.50           1402       11024.00     48097.25
  185.55        2963.75           1406       13078.00     57079.35
  185.58        2964.00           1409       14710.00     64219.51
  185.61        2964.25           1412       16405.00     71638.54
  185.64        2964.50           1416       18643.00     81439.35
  185.68        2964.75           1419       20105.00     87844.97
  185.71        2965.00           1422       21619.00     94481.02
  185.74        2965.25           1426       23806.00    104071.60
  185.77        2965.50           1429       25259.00    110446.40
  185.80        2965.75           1432       26834.00    117359.30
  185.83        2966.00           1436       29134.00    127459.40
  185.86        2966.25           1439       30593.00    133869.60
  185.89        2966.50           1442       32076.00    140387.80
  185.92        2966.75           1446       33568.00    146948.10
  185.95        2967.00           1449       33872.00    148285.10
  185.99        2967.25           1452       34006.00    148874.40
  186.02        2967.50           1456       34143.00    149477.00
  186.05        2967.75           1459       33991.00    148808.50
  186.08        2968.00           1462       33866.00    148258.70
  186.11        2968.25           1466       32917.00    144085.30
  186.14        2968.50           1469       31672.00    138611.80
  186.17        2968.75           1472       30357.00    132832.60
  186.20        2969.00           1476       28410.00    124279.40
  186.23        2969.25           1479       26613.00    116389.10
  186.27        2969.50           1482       25232.00    110328.00
  186.30        2969.75           1486       23103.00    100988.10
  186.33        2970.00           1489       21390.00     93477.11
  186.36        2970.25           1492       20018.00     87463.72
  186.39        2970.50           1496       17822.00     77843.31
  186.42        2970.75           1499       16450.00     71835.56
  186.45        2971.00           1502       14988.00     65436.09
  186.48        2971.25           1506       12827.00     55981.47
  186.51        2971.50           1509       11103.00     48442.63
  186.55        2971.75           1513        9023.00     39351.58
  186.58        2972.00           1516        7545.00     32894.70
  186.61        2972.25           1519        6003.00     26160.89
  186.64        2972.50           1523        4076.00     17749.64
  186.67        2972.75           1526        2667.00     11602.12
  186.70        2973.00           1529        1279.00      5548.44
  186.73        2973.25           1533         535.00      2304.43
  186.76        2973.50           1536         365.00      1563.28
  186.79        2973.75           1539         328.00      1401.98
  186.82        2974.00           1543         268.00      1140.41
  186.86        2974.25           1546         213.00       900.63
  186.89        2974.50           1549         168.00       704.46
  186.92        2974.75           1553         120.00       495.21
  186.95        2975.00           1556         106.00       434.18
  186.98        2975.25           1559          76.00       303.40
  187.01        2975.50           1563          76.00       303.40
  187.04        2975.75           1566          69.00       272.89
  187.07        2976.00           1569          72.00       285.97
  187.10        2976.25           1573          62.00       242.37
  187.13        2976.50           1576          68.00       268.53
  187.16        2976.75           1579          65.00       255.45
  187.19        2977.00           1583          58.00       224.94
  187.22        2977.25           1586          75.00       299.04
  187.26        2977.50           1590          67.00       264.17
  187.29        2977.75           1593          62.00       242.37
  187.32        2978.00           1596          69.00       272.89
  187.35        2978.25           1600          64.00       251.09
  187.38        2978.50           1603          70.00       277.25
  187.41        2978.75           1606          64.00       251.09
  187.44        2979.00           1610          66.00       259.81
  187.47        2979.25           1613          62.00       242.37
  187.50        2979.50           1616          70.00       277.25
  187.53        2979.75           1620          62.00       242.37
  187.56        2980.00           1623          62.00       242.37
  187.59        2980.25           1626          63.00       246.73
  187.62        2980.50           1630          62.00       242.37
  187.66        2980.75           1633          66.00       259.81
  187.69        2981.00           1637          65.00       255.45
  187.72        2981.25           1640          72.00       285.97
  187.75        2981.50           1643          72.00       285.97
  187.78        2981.75           1647          66.00       259.81
  187.81        2982.00           1650          65.00       255.45
  187.84        2982.25           1653          65.00       255.45
  187.87        2982.50           1657          64.00       251.09
  187.90        2982.75           1660          55.00       211.86
  187.93        2983.00           1663          60.00       233.65
  187.96        2983.25           1667          61.00       238.01
  187.99        2983.50           1670          65.00       255.45
  188.02        2983.75           1673          65.00       255.45
  188.06        2984.00           1677          69.00       272.89
HS scan finished at 03:08:16
end
************************************************************
  HS Scan of (1) Internal mercury lamp
************************************************************
Integration time is 0.2294 seconds per sample
dh280917Manchester 53.47 2.23 2.857833pr1000
************************************************************
Dead Time -------------------------  3E-08 
Number of Cycles Used -------------  4 
Starting Wavelength (Angstroms) ---  2950 
Final Wavelength (Angstoms) -------  2984 
Wavelength Increment (Angstroms) --  .25 
Filter Wheel #1 Position ---------- (1) Ground quartz diffuser (ND=2.32)
Filter Wheel #2 Position ---------- (1) Neutral Density 0.494



************************************************************
HS scan start time = 18:42:03
Dark Count =  8 


Time (GMT)  Wavelength (Ang)  Step Number  Raw Counts  Counts/Second

 1122.42        2950.00           1222          79.00       309.51
 1122.49        2950.25           1226          71.00       274.63
 1122.52        2950.50           1229          76.00       296.43
 1122.55        2950.75           1232          74.00       287.71
 1122.58        2951.00           1236          68.00       261.55
 1122.61        2951.25           1239          65.00       248.48
 1122.64        2951.50           1242          74.00       287.71
 1122.67        2951.75           1246          60.00       226.68
 1122.70        2952.00           1249          81.00       318.22
 1122.74        2952.25           1252          76.00       296.43
 1122.77        2952.50           1256          75.00       292.07
 1122.80        2952.75           1259          72.00       278.99
 1122.83        2953.00           1262          72.00       278.99
 1122.86        2953.25           1266          69.00       265.91
 1122.89        2953.50           1269          71.00       274.63
 1122.92        2953.75           1272          72.00       278.99
 1122.95        2954.00           1276          62.00       235.40
 1122.98        2954.25           1279          78.00       305.15
 1123.01        2954.50           1282          66.00       252.84
 1123.04        2954.75           1286          68.00       261.55
 1123.07        2955.00           1289          79.00       309.51
 1123.10        2955.25           1292          84.00       331.30
 1123.14        2955.50           1296          74.00       287.71
 1123.17        2955.75           1299          74.00       287.71
 1123.20        2956.00           1302          70.00       270.27
 1123.23        2956.25           1306          76.00       296.43
 1123.26        2956.50           1309          81.00       318.22
 1123.29        2956.75           1312          85.00       335.66
 1123.32        2957.00           1316          71.00       274.63
 1123.35        2957.25           1319          76.00       296.43
 1123.38        2957.50           1322          79.00       309.51
 1123.41        2957.75           1326          67.00       257.19
 1123.44        2958.00           1329          75.00       292.07
 1123.47        2958.25           1332          71.00       274.63
 1123.51        2958.50           1336          67.00       257.19
 1123.54        2958.75           1339          61.00       231.04
 1123.57        2959.00           1342          67.00       257.19
 1123.60        2959.25           1346          73.00       283.35
 1123.63        2959.50           1349          77.00       300.79
 1123.66        2959.75           1352          91.00       361.82
 1123.69        2960.00           1356         117.00       475.16
 1123.72        2960.25           1359         158.00       653.89
 1123.75        2960.50           1362         186.00       775.96
 1123.78        2960.75           1366         243.00      1024.44
 1123.81        2961.00           1369         294.00      1246.78
 1123.85        2961.25           1372         316.00      1342.69
 1123.88        2961.50           1376         396.00      1691.45
 1123.91        2961.75           1379         487.00      2088.19
 1123.94        2962.00           1382        1043.00      4512.38
 1123.97        2962.25           1386        2768.00     12035.73
 1124.00        2962.50           1389        4343.00     18907.85
 1124.03        2962.75           1392        5717.00     24905.26
 1124.06        2963.00           1396        7871.00     34311.68
 1124.09        2963.25           1399        9297.00     40541.87
 1124.12        2963.50           1402       10943.00     47736.15
 1124.15        2963.75           1406       13213.00     57662.88
 1124.19        2964.00           1409       14774.00     64492.58
 1124.22        2964.25           1412       16571.00     72358.30
 1124.25        2964.50           1416       18697.00     81668.91
 1124.28        2964.75           1419       20329.00     88819.62
 1124.31        2965.00           1422       22027.00     96262.77
 1124.34        2965.25           1426       24143.00    105542.90
 1124.37        2965.50           1429       25737.00    112537.10
 1124.40        2965.75           1432       27413.00    119894.30
 1124.43        2966.00           1436       29613.00    129556.60
 1124.47        2966.25           1439       30821.00    134864.50
 1124.50        2966.50           1442       32395.00    141783.10
 1124.53        2966.75           1446       34177.00    149619.50
 1124.56        2967.00           1449       34706.00    151946.50
 1124.59        2967.25           1452       34826.00    152474.40
 1124.62        2967.50           1456       34824.00    152465.60
 1124.65        2967.75           1459       34947.00    153006.70
 1124.68        2968.00           1462       34762.00    152192.90
 1124.71        2968.25           1466       33882.00    148322.00
 1124.74        2968.50           1469       32719.00    143207.70
 1124.77        2968.75           1472       30936.00    135369.90
 1124.80        2969.00           1476       28957.00    126674.90
 1124.84        2969.25           1479       27487.00    120219.20
 1124.87        2969.50           1482       25643.00    112124.60
 1124.90        2969.75           1486       23846.00    104240.00
 1124.93        2970.00           1489       22031.00     96280.31
 1124.96        2970.25           1492       20537.00     89731.21
 1124.99        2970.50           1496       18463.00     80643.87
 1125.02        2970.75           1499       16819.00     73444.12
 1125.05        2971.00           1502       15280.00     66707.03
 1125.09        2971.25           1506       12902.00     56302.52
 1125.12        2971.50           1509       11338.00     49463.06
 1125.15        2971.75           1513        9290.00     40511.28
 1125.18        2972.00           1516        7609.00     33167.25
 1125.21        2972.25           1519        6128.00     26699.67
 1125.24        2972.50           1523        3982.00     17332.46
 1125.27        2972.75           1526        2513.00     10923.37
 1125.30        2973.00           1529        1213.00      5253.66
 1125.33        2973.25           1533         463.00      1983.55
 1125.37        2973.50           1536         343.00      1460.40
 1125.40        2973.75           1539         303.00      1286.01
 1125.43        2974.00           1543         253.00      1068.04
 1125.46        2974.25           1546         187.00       780.31
 1125.49        2974.50           1549         150.00       619.02
 1125.52        2974.75           1553         112.00       453.36
 1125.55        2975.00           1556          89.00       353.10
 1125.58        2975.25           1559          69.00       265.91
 1125.61        2975.50           1563          70.00       270.27
 1125.65        2975.75           1566          64.00       244.12
 1125.68        2976.00           1569          66.00       252.84
 1125.71        2976.25           1573          70.00       270.27
 1125.74        2976.50           1576          73.00       283.35
 1125.77        2976.75           1579          66.00       252.84
 1125.80        2977.00           1583          68.00       261.55
 1125.83        2977.25           1586          66.00       252.84
 1125.86        2977.50           1590          72.00       278.99
 1125.89        2977.75           1593          70.00       270.27
 1125.92        2978.00           1596          71.00       274.63
 1125.96        2978.25           1600          63.00       239.76
 1125.99        2978.50           1603          72.00       278.99
 1126.02        2978.75           1606          65.00       248.48
 1126.05        2979.00           1610          68.00       261.55
 1126.08        2979.25           1613          64.00       244.12
 1126.11        2979.50           1616          59.00       222.32
 1126.14        2979.75           1620          68.00       261.55
 1126.17        2980.00           1623          67.00       257.19
 1126.20        2980.25           1626          69.00       265.91
 1126.23        2980.50           1630          55.00       204.88
 1126.26        2980.75           1633          71.00       274.63
 1126.29        2981.00           1637          64.00       244.12
 1126.33        2981.25           1640          69.00       265.91
 1126.36        2981.50           1643          56.00       209.24
 1126.39        2981.75           1647          61.00       231.04
 1126.42        2982.00           1650          71.00       274.63
 1126.45        2982.25           1653          56.00       209.24
 1126.48        2982.50           1657          67.00       257.19
 1126.51        2982.75           1660          68.00       261.55
 1126.54        2983.00           1663          71.00       274.63
 1126.57        2983.25           1667          71.00       274.63
 1126.60        2983.50           1670          69.00       265.91
 1126.63        2983.75           1673          58.00       217.96
 1126.66        2984.00           1677          69.00       265.91
HS scan finished at 18:46:53
end
