************************************************************
  HS Scan of (1) Internal mercury lamp
************************************************************
Integration time is 0.2294 seconds per sample
dh051017Manchester 53.47 2.23 2.804185pr1000
************************************************************
Dead Time -------------------------  3E-08 
Number of Cycles Used -------------  4 
Starting Wavelength (Angstroms) ---  2950 
Final Wavelength (Angstoms) -------  2984 
Wavelength Increment (Angstroms) --  .25 
Filter Wheel #1 Position ---------- (1) Ground quartz diffuser (ND=2.32)
Filter Wheel #2 Position ---------- (1) Neutral Density 0.494



************************************************************
HS scan start time = 18:42:04
Dark Count =  4.4 


Time (GMT)  Wavelength (Ang)  Step Number  Raw Counts  Counts/Second

 1122.43        2950.00           1222          81.00       333.92
 1122.50        2950.25           1226          71.00       290.33
 1122.53        2950.50           1229          74.00       303.40
 1122.56        2950.75           1232          68.00       277.25
 1122.59        2951.00           1236          73.00       299.04
 1122.62        2951.25           1239          70.00       285.97
 1122.65        2951.50           1242          71.00       290.33
 1122.68        2951.75           1246          76.00       312.12
 1122.71        2952.00           1249          73.00       299.04
 1122.74        2952.25           1252          64.00       259.81
 1122.77        2952.50           1256          72.00       294.68
 1122.80        2952.75           1259          79.00       325.20
 1122.83        2953.00           1262          75.00       307.76
 1122.86        2953.25           1266          65.00       264.17
 1122.89        2953.50           1269          78.00       320.84
 1122.93        2953.75           1272          74.00       303.40
 1122.96        2954.00           1276          70.00       285.97
 1122.99        2954.25           1279          66.00       268.53
 1123.02        2954.50           1282          67.00       272.89
 1123.05        2954.75           1286          79.00       325.20
 1123.08        2955.00           1289          71.00       290.33
 1123.11        2955.25           1292          71.00       290.33
 1123.14        2955.50           1296          71.00       290.33
 1123.17        2955.75           1299          66.00       268.53
 1123.20        2956.00           1302          68.00       277.25
 1123.23        2956.25           1306          70.00       285.97
 1123.26        2956.50           1309          82.00       338.28
 1123.29        2956.75           1312          75.00       307.76
 1123.32        2957.00           1316          65.00       264.17
 1123.35        2957.25           1319          67.00       272.89
 1123.39        2957.50           1322          74.00       303.40
 1123.42        2957.75           1326          75.00       307.76
 1123.45        2958.00           1329          68.00       277.25
 1123.48        2958.25           1332          66.00       268.53
 1123.51        2958.50           1336          69.00       281.61
 1123.54        2958.75           1339          73.00       299.04
 1123.57        2959.00           1342          80.00       329.56
 1123.60        2959.25           1346          74.00       303.40
 1123.63        2959.50           1349          73.00       299.04
 1123.66        2959.75           1352          93.00       386.23
 1123.69        2960.00           1356         133.00       560.60
 1123.72        2960.25           1359         146.00       617.27
 1123.75        2960.50           1362         187.00       796.01
 1123.78        2960.75           1366         256.00      1096.81
 1123.81        2961.00           1369         284.00      1218.88
 1123.85        2961.25           1372         334.00      1436.85
 1123.88        2961.50           1376         419.00      1807.42
 1123.91        2961.75           1379         621.00      2688.10
 1123.94        2962.00           1382        1322.00      5744.67
 1123.97        2962.25           1386        3111.00     13547.79
 1124.00        2962.50           1389        4619.00     20128.11
 1124.03        2962.75           1392        6115.00     26658.63
 1124.06        2963.00           1396        8136.00     35485.01
 1124.09        2963.25           1399        9710.00     42362.44
 1124.13        2963.50           1402       11267.00     49168.38
 1124.16        2963.75           1406       13423.00     58597.25
 1124.19        2964.00           1409       14966.00     65348.57
 1124.22        2964.25           1412       16664.00     72781.24
 1124.25        2964.50           1416       18671.00     81570.78
 1124.28        2964.75           1419       20236.00     88427.82
 1124.31        2965.00           1422       21774.00     95169.31
 1124.34        2965.25           1426       23827.00    104172.50
 1124.37        2965.50           1429       25295.00    110613.20
 1124.40        2965.75           1432       26873.00    117539.30
 1124.44        2966.00           1436       29036.00    127037.70
 1124.47        2966.25           1439       30422.00    133127.00
 1124.50        2966.50           1442       31984.00    139992.10
 1124.53        2966.75           1446       33441.00    146398.30
 1124.56        2967.00           1449       33702.00    147546.20
 1124.59        2967.25           1452       33763.00    147814.40
 1124.62        2967.50           1456       33956.00    148663.30
 1124.65        2967.75           1459       33561.00    146926.10
 1124.68        2968.00           1462       33489.00    146609.40
 1124.71        2968.25           1466       32486.00    142199.10
 1124.75        2968.50           1469       31057.00    135917.50
 1124.78        2968.75           1472       29572.00    129392.30
 1124.81        2969.00           1476       27516.00    120362.30
 1124.84        2969.25           1479       26133.00    114291.00
 1124.87        2969.50           1482       24352.00    106475.60
 1124.90        2969.75           1486       22260.00     97300.16
 1124.93        2970.00           1489       20773.00     90781.34
 1124.96        2970.25           1492       19357.00     84576.13
 1124.99        2970.50           1496       17415.00     76069.65
 1125.03        2970.75           1499       15680.00     68473.56
 1125.06        2971.00           1502       14223.00     62097.27
 1125.09        2971.25           1506       12325.00     53794.68
 1125.12        2971.50           1509       10500.00     45815.33
 1125.15        2971.75           1513        8498.00     37066.48
 1125.18        2972.00           1516        6925.00     30195.61
 1125.21        2972.25           1519        5432.00     23676.80
 1125.24        2972.50           1523        3488.00     15192.63
 1125.27        2972.75           1526        2030.00      8832.33
 1125.30        2973.00           1529         847.00      3673.47
 1125.33        2973.25           1533         411.00      1772.54
 1125.36        2973.50           1536         330.00      1419.42
 1125.39        2973.75           1539         297.00      1275.55
 1125.43        2974.00           1543         242.00      1035.78
 1125.46        2974.25           1546         186.00       791.65
 1125.49        2974.50           1549         142.00       599.84
 1125.52        2974.75           1553         108.00       451.62
 1125.55        2975.00           1556          72.00       294.68
 1125.58        2975.25           1559          72.00       294.68
 1125.61        2975.50           1563          70.00       285.97
 1125.64        2975.75           1566          60.00       242.37
 1125.67        2976.00           1569          62.00       251.09
 1125.70        2976.25           1573          69.00       281.61
 1125.73        2976.50           1576          71.00       290.33
 1125.76        2976.75           1579          73.00       299.04
 1125.79        2977.00           1583          65.00       264.17
 1125.83        2977.25           1586          63.00       255.45
 1125.86        2977.50           1590          68.00       277.25
 1125.89        2977.75           1593          72.00       294.68
 1125.92        2978.00           1596          67.00       272.89
 1125.95        2978.25           1600          71.00       290.33
 1125.98        2978.50           1603          76.00       312.12
 1126.01        2978.75           1606          64.00       259.81
 1126.04        2979.00           1610          72.00       294.68
 1126.07        2979.25           1613          63.00       255.45
 1126.10        2979.50           1616          66.00       268.53
 1126.13        2979.75           1620          62.00       251.09
 1126.16        2980.00           1623          68.00       277.25
 1126.19        2980.25           1626          71.00       290.33
 1126.22        2980.50           1630          62.00       251.09
 1126.25        2980.75           1633          73.00       299.04
 1126.29        2981.00           1637          69.00       281.61
 1126.32        2981.25           1640          62.00       251.09
 1126.35        2981.50           1643          61.00       246.73
 1126.38        2981.75           1647          69.00       281.61
 1126.41        2982.00           1650          65.00       264.17
 1126.44        2982.25           1653          60.00       242.37
 1126.47        2982.50           1657          67.00       272.89
 1126.50        2982.75           1660          56.00       224.94
 1126.53        2983.00           1663          58.00       233.65
 1126.56        2983.25           1667          62.00       251.09
 1126.59        2983.50           1670          65.00       264.17
 1126.62        2983.75           1673          70.00       285.97
 1126.65        2984.00           1677          56.00       224.94
HS scan finished at 18:46:52
end
