************************************************************
  HS Scan of (1) Internal mercury lamp
************************************************************
Integration time is 0.2294 seconds per sample
dh031018Manchester 53.47 2.23 2.804185pr1000
************************************************************
Dead Time -------------------------  3E-08 
Number of Cycles Used -------------  4 
Starting Wavelength (Angstroms) ---  2950 
Final Wavelength (Angstoms) -------  2984 
Wavelength Increment (Angstroms) --  .25 
Filter Wheel #1 Position ---------- (1) Ground quartz diffuser (ND=2.32)
Filter Wheel #2 Position ---------- (1) Neutral Density 0.494



************************************************************
HS scan start time = 03:17:08
Dark Count =  5.2 


Time (GMT)  Wavelength (Ang)  Step Number  Raw Counts  Counts/Second

  197.50        2950.00           1222          49.00       190.93
  197.56        2950.25           1226          47.00       182.22
  197.59        2950.50           1229          51.00       199.65
  197.62        2950.75           1232          50.00       195.29
  197.66        2951.00           1236          52.00       204.01
  197.69        2951.25           1239          55.00       217.09
  197.72        2951.50           1242          47.00       182.22
  197.75        2951.75           1246          48.00       186.57
  197.78        2952.00           1249          48.00       186.57
  197.81        2952.25           1252          49.00       190.93
  197.84        2952.50           1256          48.00       186.57
  197.87        2952.75           1259          49.00       190.93
  197.90        2953.00           1262          54.00       212.73
  197.93        2953.25           1266          58.00       230.17
  197.96        2953.50           1269          46.00       177.86
  197.99        2953.75           1272          47.00       182.22
  198.02        2954.00           1276          49.00       190.93
  198.05        2954.25           1279          53.00       208.37
  198.09        2954.50           1282          50.00       195.29
  198.12        2954.75           1286          50.00       195.29
  198.15        2955.00           1289          50.00       195.29
  198.18        2955.25           1292          47.00       182.22
  198.21        2955.50           1296          52.00       204.01
  198.24        2955.75           1299          53.00       208.37
  198.27        2956.00           1302          53.00       208.37
  198.30        2956.25           1306          53.00       208.37
  198.33        2956.50           1309          55.00       217.09
  198.36        2956.75           1312          49.00       190.93
  198.39        2957.00           1316          47.00       182.22
  198.42        2957.25           1319          54.00       212.73
  198.46        2957.50           1322          51.00       199.65
  198.49        2957.75           1326          56.00       221.45
  198.52        2958.00           1329          52.00       204.01
  198.55        2958.25           1332          53.00       208.37
  198.58        2958.50           1336          49.00       190.93
  198.61        2958.75           1339          45.00       173.50
  198.64        2959.00           1342          48.00       186.57
  198.67        2959.25           1346          46.00       177.86
  198.70        2959.50           1349          53.00       208.37
  198.73        2959.75           1352          56.00       221.45
  198.76        2960.00           1356          77.00       312.99
  198.79        2960.25           1359          99.00       408.90
  198.82        2960.50           1362         124.00       517.88
  198.85        2960.75           1366         170.00       718.41
  198.89        2961.00           1369         186.00       788.16
  198.92        2961.25           1372         219.00       932.02
  198.95        2961.50           1376         278.00      1189.23
  198.98        2961.75           1379         330.00      1415.93
  199.01        2962.00           1382         579.00      2501.50
  199.04        2962.25           1386        1557.00      6765.98
  199.07        2962.50           1389        2767.00     12043.58
  199.10        2962.75           1392        3978.00     17327.23
  199.13        2963.00           1396        5577.00     24306.30
  199.16        2963.25           1399        6708.00     29244.48
  199.20        2963.50           1402        7817.00     34088.03
  199.23        2963.75           1406        9372.00     40881.85
  199.26        2964.00           1409       10781.00     47040.18
  199.29        2964.25           1412       11952.00     52160.03
  199.32        2964.50           1416       13548.00     59140.58
  199.35        2964.75           1419       14731.00     64316.65
  199.38        2965.00           1422       15955.00     69673.81
  199.41        2965.25           1426       17653.00     77108.43
  199.44        2965.50           1429       18946.00     82771.99
  199.48        2965.75           1432       20031.00     87525.96
  199.51        2966.00           1436       21715.00     94907.16
  199.54        2966.25           1439       22688.00     99173.44
  199.57        2966.50           1442       23829.00    104177.70
  199.60        2966.75           1446       25137.00    109916.40
  199.63        2967.00           1449       25617.00    112022.80
  199.66        2967.25           1452       25907.00    113295.50
  199.69        2967.50           1456       25799.00    112821.50
  199.72        2967.75           1459       25757.00    112637.20
  199.76        2968.00           1462       25670.00    112255.40
  199.79        2968.25           1466       25106.00    109780.30
  199.82        2968.50           1469       24305.00    106265.90
  199.85        2968.75           1472       23276.00    101752.20
  199.88        2969.00           1476       21725.00     94951.00
  199.91        2969.25           1479       20608.00     90054.66
  199.94        2969.50           1482       19346.00     84524.44
  199.97        2969.75           1486       17721.00     77406.24
  200.00        2970.00           1489       16640.00     72672.66
  200.03        2970.25           1492       15328.00     66929.37
  200.07        2970.50           1496       13910.00     60724.30
  200.10        2970.75           1499       12634.00     55142.59
  200.13        2971.00           1502       11564.00     50463.44
  200.16        2971.25           1506        9867.00     43045.09
  200.19        2971.50           1509        8557.00     37320.75
  200.22        2971.75           1513        6936.00     30240.15
  200.25        2972.00           1516        5780.00     25192.53
  200.28        2972.25           1519        4661.00     20307.92
  200.31        2972.50           1523        3226.00     14046.02
  200.34        2972.75           1526        2037.00      8859.37
  200.38        2973.00           1529        1027.00      4454.82
  200.41        2973.25           1533         391.00      1681.86
  200.44        2973.50           1536         277.00      1184.87
  200.47        2973.75           1539         230.00       979.98
  200.50        2974.00           1543         206.00       875.35
  200.53        2974.25           1546         155.00       653.02
  200.56        2974.50           1549         121.00       504.80
  200.59        2974.75           1553          89.00       365.30
  200.62        2975.00           1556          69.00       278.12
  200.65        2975.25           1559          52.00       204.01
  200.68        2975.50           1563          51.00       199.65
  200.71        2975.75           1566          51.00       199.65
  200.74        2976.00           1569          53.00       208.37
  200.78        2976.25           1573          46.00       177.86
  200.81        2976.50           1576          49.00       190.93
  200.84        2976.75           1579          43.00       164.78
  200.87        2977.00           1583          52.00       204.01
  200.90        2977.25           1586          47.00       182.22
  200.93        2977.50           1590          41.00       156.06
  200.96        2977.75           1593          42.00       160.42
  200.99        2978.00           1596          42.00       160.42
  201.02        2978.25           1600          40.00       151.70
  201.05        2978.50           1603          53.00       208.37
  201.08        2978.75           1606          45.00       173.50
  201.11        2979.00           1610          51.00       199.65
  201.14        2979.25           1613          48.00       186.57
  201.17        2979.50           1616          56.00       221.45
  201.20        2979.75           1620          45.00       173.50
  201.24        2980.00           1623          46.00       177.86
  201.27        2980.25           1626          55.00       217.09
  201.30        2980.50           1630          47.00       182.22
  201.33        2980.75           1633          48.00       186.57
  201.36        2981.00           1637          51.00       199.65
  201.39        2981.25           1640          44.00       169.14
  201.42        2981.50           1643          44.00       169.14
  201.45        2981.75           1647          44.00       169.14
  201.48        2982.00           1650          45.00       173.50
  201.51        2982.25           1653          44.00       169.14
  201.54        2982.50           1657          50.00       195.29
  201.57        2982.75           1660          42.00       160.42
  201.60        2983.00           1663          45.00       173.50
  201.64        2983.25           1667          41.00       156.06
  201.67        2983.50           1670          51.00       199.65
  201.70        2983.75           1673          44.00       169.14
  201.73        2984.00           1677          48.00       186.57
HS scan finished at 03:21:57
end
************************************************************
  HS Scan of (1) Internal mercury lamp
************************************************************
Integration time is 0.2294 seconds per sample
dh031018Manchester 53.47 2.23 2.857833pr1000
************************************************************
Dead Time -------------------------  3E-08 
Number of Cycles Used -------------  4 
Starting Wavelength (Angstroms) ---  2950 
Final Wavelength (Angstoms) -------  2984 
Wavelength Increment (Angstroms) --  .25 
Filter Wheel #1 Position ---------- (1) Ground quartz diffuser (ND=2.32)
Filter Wheel #2 Position ---------- (1) Neutral Density 0.494



************************************************************
HS scan start time = 18:42:03
Dark Count =  4 


Time (GMT)  Wavelength (Ang)  Step Number  Raw Counts  Counts/Second

 1122.42        2950.00           1222          44.00       174.37
 1122.49        2950.25           1226          51.00       204.88
 1122.52        2950.50           1229          52.00       209.24
 1122.55        2950.75           1232          54.00       217.96
 1122.58        2951.00           1236          52.00       209.24
 1122.61        2951.25           1239          48.00       191.81
 1122.64        2951.50           1242          51.00       204.88
 1122.67        2951.75           1246          47.00       187.45
 1122.70        2952.00           1249          50.00       200.52
 1122.73        2952.25           1252          49.00       196.17
 1122.76        2952.50           1256          54.00       217.96
 1122.79        2952.75           1259          50.00       200.52
 1122.82        2953.00           1262          60.00       244.12
 1122.86        2953.25           1266          47.00       187.45
 1122.89        2953.50           1269          48.00       191.81
 1122.92        2953.75           1272          52.00       209.24
 1122.95        2954.00           1276          52.00       209.24
 1122.98        2954.25           1279          49.00       196.17
 1123.01        2954.50           1282          53.00       213.60
 1123.04        2954.75           1286          53.00       213.60
 1123.07        2955.00           1289          50.00       200.52
 1123.10        2955.25           1292          47.00       187.45
 1123.13        2955.50           1296          49.00       196.17
 1123.16        2955.75           1299          49.00       196.17
 1123.19        2956.00           1302          46.00       183.09
 1123.22        2956.25           1306          47.00       187.45
 1123.26        2956.50           1309          51.00       204.88
 1123.29        2956.75           1312          46.00       183.09
 1123.32        2957.00           1316          50.00       200.52
 1123.35        2957.25           1319          51.00       204.88
 1123.38        2957.50           1322          45.00       178.73
 1123.41        2957.75           1326          53.00       213.60
 1123.44        2958.00           1329          54.00       217.96
 1123.47        2958.25           1332          56.00       226.68
 1123.50        2958.50           1336          58.00       235.40
 1123.53        2958.75           1339          50.00       200.52
 1123.56        2959.00           1342          51.00       204.88
 1123.60        2959.25           1346          56.00       226.68
 1123.63        2959.50           1349          52.00       209.24
 1123.66        2959.75           1352          61.00       248.48
 1123.69        2960.00           1356          88.00       366.18
 1123.72        2960.25           1359         101.00       422.85
 1123.75        2960.50           1362         144.00       610.30
 1123.78        2960.75           1366         188.00       802.11
 1123.81        2961.00           1369         210.00       898.02
 1123.84        2961.25           1372         240.00      1028.80
 1123.87        2961.50           1376         312.00      1342.69
 1123.90        2961.75           1379         444.00      1918.16
 1123.93        2962.00           1382        1048.00      4551.62
 1123.96        2962.25           1386        2439.00     10618.03
 1123.99        2962.50           1389        3642.00     15866.31
 1124.03        2962.75           1392        4822.00     21015.86
 1124.06        2963.00           1396        6316.00     27538.00
 1124.09        2963.25           1399        7500.00     32708.63
 1124.12        2963.50           1402        8600.00     37513.86
 1124.15        2963.75           1406       10255.00     44746.17
 1124.18        2964.00           1409       11412.00     49804.09
 1124.21        2964.25           1412       12551.00     54784.83
 1124.24        2964.50           1416       14265.00     62282.80
 1124.27        2964.75           1419       15400.00     67249.75
 1124.31        2965.00           1422       16617.00     72577.22
 1124.34        2965.25           1426       18196.00     79491.88
 1124.37        2965.50           1429       19529.00     85331.51
 1124.40        2965.75           1432       20796.00     90883.91
 1124.43        2966.00           1436       22264.00     97319.47
 1124.46        2966.25           1439       23243.00    101612.70
 1124.49        2966.50           1442       24470.00    106995.00
 1124.52        2966.75           1446       25414.00    111137.10
 1124.55        2967.00           1449       25935.00    113423.70
 1124.59        2967.25           1452       25751.00    112616.10
 1124.62        2967.50           1456       25880.00    113182.30
 1124.65        2967.75           1459       25820.00    112918.90
 1124.68        2968.00           1462       25705.00    112414.20
 1124.71        2968.25           1466       24670.00    107872.50
 1124.74        2968.50           1469       23658.00    103432.90
 1124.77        2968.75           1472       22514.00     98415.69
 1124.80        2969.00           1476       21000.00     91778.07
 1124.83        2969.25           1479       19782.00     86440.09
 1124.87        2969.50           1482       18701.00     81703.95
 1124.90        2969.75           1486       17105.00     74713.93
 1124.93        2970.00           1489       16092.00     70278.80
 1124.96        2970.25           1492       14715.00     64251.89
 1124.99        2970.50           1496       13203.00     57636.63
 1125.02        2970.75           1499       12115.00     52878.07
 1125.05        2971.00           1502       10957.00     47814.84
 1125.08        2971.25           1506        9232.00     40275.31
 1125.11        2971.50           1509        7955.00     34696.08
 1125.15        2971.75           1513        6465.00     28188.61
 1125.18        2972.00           1516        5234.00     22814.21
 1125.21        2972.25           1519        4115.00     17930.31
 1125.24        2972.50           1523        2541.00     11062.96
 1125.27        2972.75           1526        1453.00      6317.68
 1125.30        2973.00           1529         649.00      2811.92
 1125.33        2973.25           1533         328.00      1412.44
 1125.36        2973.50           1536         250.00      1072.40
 1125.39        2973.75           1539         220.00       941.61
 1125.42        2974.00           1543         185.00       789.03
 1125.45        2974.25           1546         144.00       610.30
 1125.49        2974.50           1549         113.00       475.16
 1125.52        2974.75           1553          76.00       313.87
 1125.55        2975.00           1556          67.00       274.63
 1125.58        2975.25           1559          60.00       244.12
 1125.61        2975.50           1563          51.00       204.88
 1125.64        2975.75           1566          62.00       252.84
 1125.67        2976.00           1569          49.00       196.17
 1125.70        2976.25           1573          48.00       191.81
 1125.73        2976.50           1576          48.00       191.81
 1125.76        2976.75           1579          44.00       174.37
 1125.79        2977.00           1583          57.00       231.04
 1125.82        2977.25           1586          46.00       183.09
 1125.85        2977.50           1590          51.00       204.88
 1125.88        2977.75           1593          48.00       191.81
 1125.92        2978.00           1596          46.00       183.09
 1125.95        2978.25           1600          47.00       187.45
 1125.98        2978.50           1603          43.00       170.01
 1126.01        2978.75           1606          46.00       183.09
 1126.04        2979.00           1610          41.00       161.29
 1126.07        2979.25           1613          39.00       152.57
 1126.10        2979.50           1616          54.00       217.96
 1126.13        2979.75           1620          51.00       204.88
 1126.16        2980.00           1623          43.00       170.01
 1126.19        2980.25           1626          42.00       165.65
 1126.22        2980.50           1630          46.00       183.09
 1126.26        2980.75           1633          44.00       174.37
 1126.29        2981.00           1637          56.00       226.68
 1126.32        2981.25           1640          48.00       191.81
 1126.35        2981.50           1643          44.00       174.37
 1126.38        2981.75           1647          47.00       187.45
 1126.41        2982.00           1650          40.00       156.93
 1126.44        2982.25           1653          38.00       148.21
 1126.47        2982.50           1657          42.00       165.65
 1126.50        2982.75           1660          47.00       187.45
 1126.54        2983.00           1663          50.00       200.52
 1126.57        2983.25           1667          43.00       170.01
 1126.60        2983.50           1670          43.00       170.01
 1126.63        2983.75           1673          41.00       161.29
 1126.66        2984.00           1677          45.00       178.73
HS scan finished at 18:46:52
end
