************************************************************
  HS Scan of (1) Internal mercury lamp
************************************************************
Integration time is 0.2294 seconds per sample
dh270917Manchester 53.47 2.23 2.804185pr1000
************************************************************
Dead Time -------------------------  3E-08 
Number of Cycles Used -------------  4 
Starting Wavelength (Angstroms) ---  2950 
Final Wavelength (Angstoms) -------  2984 
Wavelength Increment (Angstroms) --  .25 
Filter Wheel #1 Position ---------- (1) Ground quartz diffuser (ND=2.32)
Filter Wheel #2 Position ---------- (1) Neutral Density 0.494



************************************************************
HS scan start time = 03:00:22
Dark Count =  4.7 


Time (GMT)  Wavelength (Ang)  Step Number  Raw Counts  Counts/Second

  180.74        2950.00           1222          77.00       315.17
  180.81        2950.25           1226          73.00       297.74
  180.84        2950.50           1229          75.00       306.45
  180.87        2950.75           1232          77.00       315.17
  180.90        2951.00           1236          71.00       289.02
  180.93        2951.25           1239          75.00       306.45
  180.96        2951.50           1242          69.00       280.30
  180.99        2951.75           1246          68.00       275.94
  181.02        2952.00           1249          69.00       280.30
  181.05        2952.25           1252          75.00       306.45
  181.08        2952.50           1256          76.00       310.81
  181.12        2952.75           1259          71.00       289.02
  181.15        2953.00           1262          73.00       297.74
  181.18        2953.25           1266          73.00       297.74
  181.21        2953.50           1269          69.00       280.30
  181.24        2953.75           1272          78.00       319.53
  181.27        2954.00           1276          66.00       267.22
  181.30        2954.25           1279          79.00       323.89
  181.33        2954.50           1282          76.00       310.81
  181.36        2954.75           1286          64.00       258.50
  181.39        2955.00           1289          66.00       267.22
  181.43        2955.25           1292          74.00       302.10
  181.46        2955.50           1296          77.00       315.17
  181.49        2955.75           1299          73.00       297.74
  181.52        2956.00           1302          69.00       280.30
  181.55        2956.25           1306          71.00       289.02
  181.58        2956.50           1309          71.00       289.02
  181.61        2956.75           1312          73.00       297.74
  181.64        2957.00           1316          71.00       289.02
  181.67        2957.25           1319          69.00       280.30
  181.70        2957.50           1322          64.00       258.50
  181.73        2957.75           1326          69.00       280.30
  181.76        2958.00           1329          72.00       293.38
  181.79        2958.25           1332          77.00       315.17
  181.83        2958.50           1336          67.00       271.58
  181.86        2958.75           1339          65.00       262.86
  181.89        2959.00           1342          65.00       262.86
  181.92        2959.25           1346          80.00       328.25
  181.95        2959.50           1349          78.00       319.53
  181.98        2959.75           1352          96.00       398.00
  182.01        2960.00           1356         137.00       576.73
  182.04        2960.25           1359         156.00       659.56
  182.07        2960.50           1362         200.00       851.37
  182.10        2960.75           1366         230.00       982.16
  182.14        2961.00           1369         286.00      1226.29
  182.17        2961.25           1372         330.00      1418.11
  182.20        2961.50           1376         437.00      1884.59
  182.23        2961.75           1379         610.00      2638.83
  182.26        2962.00           1382        1203.00      5224.45
  182.29        2962.25           1386        2831.00     12324.96
  182.32        2962.50           1389        4357.00     18983.35
  182.35        2962.75           1392        5938.00     25884.52
  182.38        2963.00           1396        7979.00     34797.86
  182.41        2963.25           1399        9491.00     41404.06
  182.44        2963.50           1402       10751.00     46911.23
  182.48        2963.75           1406       13045.00     56942.44
  182.51        2964.00           1409       14530.00     63439.28
  182.54        2964.25           1412       16489.00     72013.74
  182.57        2964.50           1416       18600.00     81258.45
  182.60        2964.75           1419       20295.00     88685.08
  182.63        2965.00           1422       21870.00     95588.90
  182.66        2965.25           1426       23864.00    104333.50
  182.69        2965.50           1429       25497.00    111498.30
  182.72        2965.75           1432       27099.00    118530.20
  182.76        2966.00           1436       29308.00    128231.30
  182.79        2966.25           1439       30529.00    133595.80
  182.82        2966.50           1442       31815.00    139247.90
  182.85        2966.75           1446       33608.00    147131.40
  182.88        2967.00           1449       34020.00    148943.50
  182.91        2967.25           1452       34158.00    149550.50
  182.94        2967.50           1456       34064.00    149137.00
  182.97        2967.75           1459       33898.00    148406.90
  183.00        2968.00           1462       33999.00    148851.10
  183.04        2968.25           1466       33001.00    144462.10
  183.07        2968.50           1469       31901.00    139625.90
  183.10        2968.75           1472       30583.00    133833.10
  183.13        2969.00           1476       28464.00    124524.10
  183.16        2969.25           1479       27103.00    118547.70
  183.19        2969.50           1482       25473.00    111393.00
  183.22        2969.75           1486       23310.00    101903.50
  183.25        2970.00           1489       21836.00     95439.84
  183.28        2970.25           1492       20258.00     88522.92
  183.32        2970.50           1496       18132.00     79208.49
  183.35        2970.75           1499       16496.00     72044.38
  183.38        2971.00           1502       14945.00     65255.35
  183.41        2971.25           1506       12740.00     55608.39
  183.44        2971.50           1509       11165.00     48721.12
  183.47        2971.75           1513        9200.00     40132.42
  183.50        2972.00           1516        7692.00     33544.20
  183.53        2972.25           1519        6185.00     26962.95
  183.56        2972.50           1523        4273.00     18616.76
  183.60        2972.75           1526        2846.00     12390.40
  183.63        2973.00           1529        1503.00      6532.67
  183.66        2973.25           1533         533.00      2303.12
  183.69        2973.50           1536         369.00      1588.13
  183.72        2973.75           1539         296.00      1269.88
  183.75        2974.00           1543         242.00      1034.47
  183.78        2974.25           1546         192.00       816.50
  183.81        2974.50           1549         129.00       541.86
  183.84        2974.75           1553         109.00       454.67
  183.87        2975.00           1556          83.00       341.33
  183.90        2975.25           1559          78.00       319.53
  183.93        2975.50           1563          85.00       350.05
  183.96        2975.75           1566          73.00       297.74
  183.99        2976.00           1569          70.00       284.66
  184.02        2976.25           1573          66.00       267.22
  184.06        2976.50           1576          63.00       254.14
  184.09        2976.75           1579          68.00       275.94
  184.12        2977.00           1583          64.00       258.50
  184.15        2977.25           1586          68.00       275.94
  184.18        2977.50           1590          63.00       254.14
  184.21        2977.75           1593          67.00       271.58
  184.24        2978.00           1596          69.00       280.30
  184.27        2978.25           1600          67.00       271.58
  184.30        2978.50           1603          67.00       271.58
  184.33        2978.75           1606          68.00       275.94
  184.36        2979.00           1610          73.00       297.74
  184.39        2979.25           1613          61.00       245.42
  184.43        2979.50           1616          66.00       267.22
  184.46        2979.75           1620          61.00       245.42
  184.49        2980.00           1623          71.00       289.02
  184.52        2980.25           1626          65.00       262.86
  184.55        2980.50           1630          72.00       293.38
  184.58        2980.75           1633          68.00       275.94
  184.61        2981.00           1637          61.00       245.42
  184.64        2981.25           1640          68.00       275.94
  184.67        2981.50           1643          70.00       284.66
  184.70        2981.75           1647          61.00       245.42
  184.73        2982.00           1650          63.00       254.14
  184.77        2982.25           1653          59.00       236.71
  184.80        2982.50           1657          66.00       267.22
  184.83        2982.75           1660          64.00       258.50
  184.86        2983.00           1663          63.00       254.14
  184.89        2983.25           1667          58.00       232.35
  184.92        2983.50           1670          58.00       232.35
  184.95        2983.75           1673          52.00       206.19
  184.98        2984.00           1677          78.00       319.53
HS scan finished at 03:05:12
end
************************************************************
  HS Scan of (1) Internal mercury lamp
************************************************************
Integration time is 0.2294 seconds per sample
dh270917Manchester 53.47 2.23 2.804185pr1000
************************************************************
Dead Time -------------------------  3E-08 
Number of Cycles Used -------------  4 
Starting Wavelength (Angstroms) ---  2950 
Final Wavelength (Angstoms) -------  2984 
Wavelength Increment (Angstroms) --  .25 
Filter Wheel #1 Position ---------- (1) Ground quartz diffuser (ND=2.32)
Filter Wheel #2 Position ---------- (1) Neutral Density 0.494



************************************************************
HS scan start time = 18:41:59
Dark Count =  5.9 


Time (GMT)  Wavelength (Ang)  Step Number  Raw Counts  Counts/Second

 1122.35        2950.00           1222          75.00       301.22
 1122.42        2950.25           1226          66.00       261.99
 1122.45        2950.50           1229          72.00       288.15
 1122.48        2950.75           1232          71.00       283.79
 1122.51        2951.00           1236          85.00       344.82
 1122.54        2951.25           1239          70.00       279.43
 1122.57        2951.50           1242          75.00       301.22
 1122.60        2951.75           1246          71.00       283.79
 1122.63        2952.00           1249          70.00       279.43
 1122.66        2952.25           1252          73.00       292.50
 1122.69        2952.50           1256          75.00       301.22
 1122.73        2952.75           1259          73.00       292.50
 1122.76        2953.00           1262          71.00       283.79
 1122.79        2953.25           1266          71.00       283.79
 1122.82        2953.50           1269          75.00       301.22
 1122.85        2953.75           1272          76.00       305.58
 1122.88        2954.00           1276          69.00       275.07
 1122.91        2954.25           1279          78.00       314.30
 1122.94        2954.50           1282          71.00       283.79
 1122.97        2954.75           1286          74.00       296.86
 1123.00        2955.00           1289          70.00       279.43
 1123.03        2955.25           1292          74.00       296.86
 1123.07        2955.50           1296          70.00       279.43
 1123.10        2955.75           1299          68.00       270.71
 1123.13        2956.00           1302          72.00       288.15
 1123.16        2956.25           1306          73.00       292.50
 1123.19        2956.50           1309          67.00       266.35
 1123.22        2956.75           1312          66.00       261.99
 1123.25        2957.00           1316          69.00       275.07
 1123.28        2957.25           1319          73.00       292.50
 1123.31        2957.50           1322          64.00       253.27
 1123.34        2957.75           1326          70.00       279.43
 1123.37        2958.00           1329          71.00       283.79
 1123.40        2958.25           1332          76.00       305.58
 1123.44        2958.50           1336          69.00       275.07
 1123.47        2958.75           1339          78.00       314.30
 1123.50        2959.00           1342          71.00       283.79
 1123.53        2959.25           1346          77.00       309.94
 1123.56        2959.50           1349          72.00       288.15
 1123.59        2959.75           1352          88.00       357.89
 1123.62        2960.00           1356         120.00       497.39
 1123.65        2960.25           1359         149.00       623.81
 1123.68        2960.50           1362         166.00       697.92
 1123.71        2960.75           1366         223.00       946.41
 1123.74        2961.00           1369         281.00      1199.26
 1123.77        2961.25           1372         308.00      1316.97
 1123.80        2961.50           1376         378.00      1622.14
 1123.84        2961.75           1379         473.00      2036.31
 1123.87        2962.00           1382         974.00      4220.67
 1123.90        2962.25           1386        2623.00     11412.37
 1123.93        2962.50           1389        4085.00     17791.10
 1123.96        2962.75           1392        5469.00     23831.77
 1123.99        2963.00           1396        7454.00     32499.42
 1124.02        2963.25           1399        8900.00     38816.31
 1124.05        2963.50           1402       10440.00     45546.50
 1124.08        2963.75           1406       12411.00     54164.23
 1124.11        2964.00           1409       13932.00     60817.49
 1124.14        2964.25           1412       15700.00     68554.53
 1124.17        2964.50           1416       17824.00     77854.26
 1124.20        2964.75           1419       19268.00     84179.62
 1124.24        2965.00           1422       21033.00     91914.39
 1124.27        2965.25           1426       23230.00    101547.30
 1124.30        2965.50           1429       24727.00    108114.30
 1124.33        2965.75           1432       26344.00    115210.50
 1124.36        2966.00           1436       28390.00    124193.80
 1124.39        2966.25           1439       29664.00    129789.90
 1124.42        2966.50           1442       31273.00    136860.30
 1124.45        2966.75           1446       32996.00    144434.90
 1124.48        2967.00           1449       33809.00    148010.20
 1124.51        2967.25           1452       33935.00    148564.40
 1124.55        2967.50           1456       34059.00    149109.80
 1124.58        2967.75           1459       33819.00    148054.10
 1124.61        2968.00           1462       33906.00    148436.80
 1124.64        2968.25           1466       33189.00    145283.60
 1124.67        2968.50           1469       32212.00    140987.80
 1124.70        2968.75           1472       30787.00    134724.30
 1124.73        2969.00           1476       28646.00    125318.10
 1124.76        2969.25           1479       27174.00    118854.20
 1124.79        2969.50           1482       25436.00    111225.40
 1124.83        2969.75           1486       23510.00    102775.40
 1124.86        2970.00           1489       22134.00     96741.12
 1124.89        2970.25           1492       20560.00     89841.21
 1124.92        2970.50           1496       18568.00     81113.01
 1124.95        2970.75           1499       16959.00     74066.31
 1124.98        2971.00           1502       15183.00     66291.69
 1125.01        2971.25           1506       13030.00     56871.58
 1125.04        2971.50           1509       11421.00     49835.14
 1125.07        2971.75           1513        9429.00     41127.87
 1125.10        2972.00           1516        7763.00     33849.09
 1125.14        2972.25           1519        6246.00     27224.06
 1125.17        2972.50           1523        4201.00     18297.31
 1125.20        2972.75           1526        2744.00     11940.20
 1125.23        2973.00           1529        1431.00      6213.45
 1125.26        2973.25           1533         527.00      2271.73
 1125.29        2973.50           1536         373.00      1600.34
 1125.32        2973.75           1539         314.00      1343.12
 1125.35        2974.00           1543         259.00      1103.35
 1125.38        2974.25           1546         203.00       859.22
 1125.41        2974.50           1549         149.00       623.81
 1125.44        2974.75           1553         115.00       475.60
 1125.48        2975.00           1556          87.00       353.53
 1125.51        2975.25           1559          77.00       309.94
 1125.54        2975.50           1563          77.00       309.94
 1125.57        2975.75           1566          67.00       266.35
 1125.60        2976.00           1569          70.00       279.43
 1125.63        2976.25           1573          74.00       296.86
 1125.66        2976.50           1576          63.00       248.91
 1125.69        2976.75           1579          67.00       266.35
 1125.72        2977.00           1583          70.00       279.43
 1125.75        2977.25           1586          65.00       257.63
 1125.78        2977.50           1590          87.00       353.53
 1125.82        2977.75           1593          73.00       292.50
 1125.85        2978.00           1596          63.00       248.91
 1125.88        2978.25           1600          70.00       279.43
 1125.91        2978.50           1603          75.00       301.22
 1125.94        2978.75           1606          73.00       292.50
 1125.97        2979.00           1610          71.00       283.79
 1126.00        2979.25           1613          77.00       309.94
 1126.03        2979.50           1616          71.00       283.79
 1126.06        2979.75           1620          69.00       275.07
 1126.09        2980.00           1623          63.00       248.91
 1126.12        2980.25           1626          67.00       266.35
 1126.15        2980.50           1630          80.00       323.02
 1126.18        2980.75           1633          58.00       227.12
 1126.22        2981.00           1637          76.00       305.58
 1126.25        2981.25           1640          63.00       248.91
 1126.28        2981.50           1643          71.00       283.79
 1126.31        2981.75           1647          61.00       240.19
 1126.34        2982.00           1650          66.00       261.99
 1126.37        2982.25           1653          54.00       209.68
 1126.40        2982.50           1657          61.00       240.19
 1126.43        2982.75           1660          65.00       257.63
 1126.46        2983.00           1663          66.00       261.99
 1126.49        2983.25           1667          64.00       253.27
 1126.52        2983.50           1670          65.00       257.63
 1126.55        2983.75           1673          55.00       214.04
 1126.59        2984.00           1677          65.00       257.63
HS scan finished at 18:46:48
end
