************************************************************
  HS Scan of (1) Internal mercury lamp
************************************************************
Integration time is 0.2294 seconds per sample
dh300917Manchester 53.47 2.23 2.804185pr1000
************************************************************
Dead Time -------------------------  3E-08 
Number of Cycles Used -------------  4 
Starting Wavelength (Angstroms) ---  2950 
Final Wavelength (Angstoms) -------  2984 
Wavelength Increment (Angstroms) --  .25 
Filter Wheel #1 Position ---------- (1) Ground quartz diffuser (ND=2.32)
Filter Wheel #2 Position ---------- (1) Neutral Density 0.494



************************************************************
HS scan start time = 03:09:27
Dark Count =  7.7 


Time (GMT)  Wavelength (Ang)  Step Number  Raw Counts  Counts/Second

  189.82        2950.00           1222          73.00       284.66
  189.88        2950.25           1226          71.00       275.94
  189.91        2950.50           1229          78.00       306.45
  189.94        2950.75           1232          68.00       262.86
  189.97        2951.00           1236          76.00       297.74
  190.01        2951.25           1239          75.00       293.38
  190.04        2951.50           1242          67.00       258.50
  190.07        2951.75           1246          76.00       297.74
  190.10        2952.00           1249          91.00       363.13
  190.13        2952.25           1252          69.00       267.22
  190.16        2952.50           1256          67.00       258.50
  190.19        2952.75           1259          70.00       271.58
  190.22        2953.00           1262          81.00       319.53
  190.25        2953.25           1266          70.00       271.58
  190.28        2953.50           1269          67.00       258.50
  190.31        2953.75           1272          64.00       245.42
  190.34        2954.00           1276          70.00       271.58
  190.37        2954.25           1279          69.00       267.22
  190.41        2954.50           1282          74.00       289.02
  190.44        2954.75           1286          73.00       284.66
  190.47        2955.00           1289          70.00       271.58
  190.50        2955.25           1292          76.00       297.74
  190.53        2955.50           1296          76.00       297.74
  190.56        2955.75           1299          69.00       267.22
  190.59        2956.00           1302          71.00       275.94
  190.62        2956.25           1306          71.00       275.94
  190.65        2956.50           1309          71.00       275.94
  190.68        2956.75           1312          72.00       280.30
  190.72        2957.00           1316          65.00       249.78
  190.75        2957.25           1319          65.00       249.78
  190.78        2957.50           1322          72.00       280.30
  190.81        2957.75           1326          76.00       297.74
  190.84        2958.00           1329          68.00       262.86
  190.87        2958.25           1332          65.00       249.78
  190.90        2958.50           1336          79.00       310.81
  190.93        2958.75           1339          70.00       271.58
  190.96        2959.00           1342          74.00       289.02
  190.99        2959.25           1346          70.00       271.58
  191.02        2959.50           1349          89.00       354.41
  191.06        2959.75           1352          95.00       380.56
  191.09        2960.00           1356         130.00       533.14
  191.12        2960.25           1359         165.00       685.72
  191.15        2960.50           1362         201.00       842.65
  191.18        2960.75           1366         241.00      1017.03
  191.21        2961.00           1369         288.00      1221.93
  191.24        2961.25           1372         323.00      1374.51
  191.27        2961.50           1376         390.00      1666.60
  191.30        2961.75           1379         473.00      2028.46
  191.33        2962.00           1382         908.00      3925.05
  191.36        2962.25           1386        2418.00     10510.29
  191.39        2962.50           1389        3838.00     16705.41
  191.43        2962.75           1392        5322.00     23182.20
  191.46        2963.00           1396        7326.00     31932.50
  191.49        2963.25           1399        8774.00     38257.92
  191.52        2963.50           1402       10393.00     45333.19
  191.55        2963.75           1406       12526.00     54659.31
  191.58        2964.00           1409       14023.00     61207.76
  191.61        2964.25           1412       15890.00     69378.35
  191.64        2964.50           1416       17967.00     78472.68
  191.67        2964.75           1419       19455.00     84991.06
  191.71        2965.00           1422       21065.00     92046.77
  191.74        2965.25           1426       23219.00    101491.20
  191.77        2965.50           1429       24883.00    108790.90
  191.80        2965.75           1432       26553.00    116120.00
  191.83        2966.00           1436       28625.00    125218.00
  191.86        2966.25           1439       30193.00    132106.20
  191.89        2966.50           1442       31564.00    138131.40
  191.92        2966.75           1446       33421.00    146295.90
  191.95        2967.00           1449       33924.00    148508.10
  191.99        2967.25           1452       33942.00    148587.20
  192.02        2967.50           1456       34022.00    148939.10
  192.05        2967.75           1459       34044.00    149035.80
  192.08        2968.00           1462       34007.00    148873.10
  192.11        2968.25           1466       33273.00    145645.00
  192.14        2968.50           1469       32383.00    141731.70
  192.17        2968.75           1472       30903.00    135226.20
  192.20        2969.00           1476       28809.00    126026.20
  192.23        2969.25           1479       27323.00    119500.50
  192.27        2969.50           1482       25961.00    113521.50
  192.30        2969.75           1486       23808.00    104074.70
  192.33        2970.00           1489       22289.00     97412.87
  192.36        2970.25           1492       20674.00     90332.97
  192.39        2970.50           1496       18658.00     81499.38
  192.42        2970.75           1499       17085.00     74610.15
  192.45        2971.00           1502       15514.00     67732.53
  192.48        2971.25           1506       13290.00     58001.01
  192.51        2971.50           1509       11796.00     51466.94
  192.55        2971.75           1513        9893.00     43147.80
  192.58        2972.00           1516        8330.00     36318.11
  192.61        2972.25           1519        6754.00     29434.44
  192.64        2972.50           1523        4816.00     20973.52
  192.67        2972.75           1526        3277.00     14257.62
  192.70        2973.00           1529        1832.00      7954.38
  192.73        2973.25           1533         616.00      2651.91
  192.76        2973.50           1536         397.00      1697.12
  192.79        2973.75           1539         299.00      1269.88
  192.83        2974.00           1543         261.00      1104.22
  192.86        2974.25           1546         192.00       803.42
  192.89        2974.50           1549         145.00       598.53
  192.92        2974.75           1553         107.00       432.87
  192.95        2975.00           1556          82.00       323.89
  192.98        2975.25           1559          74.00       289.02
  193.01        2975.50           1563          64.00       245.42
  193.04        2975.75           1566          70.00       271.58
  193.07        2976.00           1569          71.00       275.94
  193.10        2976.25           1573          67.00       258.50
  193.13        2976.50           1576          71.00       275.94
  193.16        2976.75           1579          64.00       245.42
  193.19        2977.00           1583          72.00       280.30
  193.23        2977.25           1586          67.00       258.50
  193.26        2977.50           1590          64.00       245.42
  193.29        2977.75           1593          70.00       271.58
  193.32        2978.00           1596          64.00       245.42
  193.35        2978.25           1600          65.00       249.78
  193.38        2978.50           1603          61.00       232.35
  193.41        2978.75           1606          74.00       289.02
  193.44        2979.00           1610          72.00       280.30
  193.47        2979.25           1613          74.00       289.02
  193.50        2979.50           1616          61.00       232.35
  193.53        2979.75           1620          69.00       267.22
  193.56        2980.00           1623          67.00       258.50
  193.59        2980.25           1626          58.00       219.27
  193.63        2980.50           1630          65.00       249.78
  193.66        2980.75           1633          63.00       241.07
  193.69        2981.00           1637          61.00       232.35
  193.72        2981.25           1640          67.00       258.50
  193.75        2981.50           1643          62.00       236.71
  193.78        2981.75           1647          71.00       275.94
  193.81        2982.00           1650          69.00       267.22
  193.84        2982.25           1653          58.00       219.27
  193.87        2982.50           1657          66.00       254.14
  193.90        2982.75           1660          58.00       219.27
  193.93        2983.00           1663          61.00       232.35
  193.96        2983.25           1667          60.00       227.99
  193.99        2983.50           1670          56.00       210.55
  194.03        2983.75           1673          62.00       236.71
  194.06        2984.00           1677          68.00       262.86
HS scan finished at 03:14:16
end
************************************************************
  HS Scan of (1) Internal mercury lamp
************************************************************
Integration time is 0.2294 seconds per sample
dh300917Manchester 53.47 2.23 2.804185pr1000
************************************************************
Dead Time -------------------------  3E-08 
Number of Cycles Used -------------  4 
Starting Wavelength (Angstroms) ---  2950 
Final Wavelength (Angstoms) -------  2984 
Wavelength Increment (Angstroms) --  .25 
Filter Wheel #1 Position ---------- (1) Ground quartz diffuser (ND=2.32)
Filter Wheel #2 Position ---------- (1) Neutral Density 0.494



************************************************************
HS scan start time = 18:42:03
Dark Count =  6.3 


Time (GMT)  Wavelength (Ang)  Step Number  Raw Counts  Counts/Second

 1122.42        2950.00           1222          81.00       325.64
 1122.49        2950.25           1226          76.00       303.84
 1122.52        2950.50           1229          66.00       260.25
 1122.55        2950.75           1232          74.00       295.12
 1122.58        2951.00           1236          74.00       295.12
 1122.61        2951.25           1239          70.00       277.68
 1122.64        2951.50           1242          74.00       295.12
 1122.67        2951.75           1246          71.00       282.04
 1122.70        2952.00           1249          74.00       295.12
 1122.74        2952.25           1252          68.00       268.96
 1122.77        2952.50           1256          68.00       268.96
 1122.80        2952.75           1259          66.00       260.25
 1122.83        2953.00           1262          75.00       299.48
 1122.86        2953.25           1266          67.00       264.61
 1122.89        2953.50           1269          79.00       316.92
 1122.92        2953.75           1272          62.00       242.81
 1122.95        2954.00           1276          77.00       308.20
 1122.98        2954.25           1279          79.00       316.92
 1123.01        2954.50           1282          74.00       295.12
 1123.04        2954.75           1286          65.00       255.89
 1123.07        2955.00           1289          71.00       282.04
 1123.10        2955.25           1292          67.00       264.61
 1123.14        2955.50           1296          71.00       282.04
 1123.17        2955.75           1299          73.00       290.76
 1123.20        2956.00           1302          70.00       277.68
 1123.23        2956.25           1306          69.00       273.32
 1123.26        2956.50           1309          67.00       264.61
 1123.29        2956.75           1312          62.00       242.81
 1123.32        2957.00           1316          74.00       295.12
 1123.35        2957.25           1319          70.00       277.68
 1123.38        2957.50           1322          69.00       273.32
 1123.41        2957.75           1326          76.00       303.84
 1123.44        2958.00           1329          80.00       321.28
 1123.48        2958.25           1332          85.00       343.07
 1123.51        2958.50           1336          72.00       286.40
 1123.54        2958.75           1339          71.00       282.04
 1123.57        2959.00           1342          68.00       268.96
 1123.60        2959.25           1346          74.00       295.12
 1123.63        2959.50           1349          87.00       351.79
 1123.66        2959.75           1352          91.00       369.23
 1123.69        2960.00           1356         113.00       465.13
 1123.72        2960.25           1359         155.00       648.23
 1123.75        2960.50           1362         201.00       848.76
 1123.78        2960.75           1366         252.00      1071.09
 1123.82        2961.00           1369         295.00      1258.55
 1123.85        2961.25           1372         327.00      1398.05
 1123.88        2961.50           1376         411.00      1764.26
 1123.91        2961.75           1379         578.00      2492.34
 1123.94        2962.00           1382        1185.00      5138.98
 1123.97        2962.25           1386        2900.00     12618.99
 1124.00        2962.50           1389        4361.00     18993.82
 1124.03        2962.75           1392        5808.00     25309.97
 1124.06        2963.00           1396        7834.00     34157.48
 1124.09        2963.25           1399        9440.00     41174.20
 1124.13        2963.50           1402       11061.00     48259.45
 1124.16        2963.75           1406       13105.00     57197.90
 1124.19        2964.00           1409       14762.00     64447.50
 1124.22        2964.25           1412       16342.00     71363.18
 1124.25        2964.50           1416       18371.00     80248.31
 1124.28        2964.75           1419       19973.00     87266.96
 1124.31        2965.00           1422       21519.00     94043.06
 1124.34        2965.25           1426       23611.00    103216.70
 1124.37        2965.50           1429       25207.00    110218.70
 1124.40        2965.75           1432       26663.00    116609.10
 1124.44        2966.00           1436       28762.00    125825.90
 1124.47        2966.25           1439       30287.00    132525.40
 1124.50        2966.50           1442       31803.00    139188.10
 1124.53        2966.75           1446       33580.00    147001.30
 1124.56        2967.00           1449       33790.00    147924.80
 1124.59        2967.25           1452       33947.00    148615.40
 1124.62        2967.50           1456       33847.00    148175.50
 1124.65        2967.75           1459       33777.00    147867.70
 1124.69        2968.00           1462       33624.00    147194.80
 1124.72        2968.25           1466       32803.00    143584.50
 1124.75        2968.50           1469       31456.00    137662.80
 1124.78        2968.75           1472       29869.00    130688.80
 1124.81        2969.00           1476       27837.00    121763.50
 1124.84        2969.25           1479       26280.00    114927.80
 1124.87        2969.50           1482       24840.00    108608.30
 1124.90        2969.75           1486       22603.00     98795.88
 1124.93        2970.00           1489       21206.00     92670.97
 1124.97        2970.25           1492       19810.00     86552.71
 1125.00        2970.50           1496       17791.00     77707.97
 1125.03        2970.75           1499       16112.00     70356.28
 1125.06        2971.00           1502       14468.00     63160.98
 1125.09        2971.25           1506       12546.00     54752.90
 1125.12        2971.50           1509       11022.00     48088.95
 1125.15        2971.75           1513        8855.00     38617.95
 1125.18        2972.00           1516        7272.00     31702.76
 1125.21        2972.25           1519        5658.00     24655.11
 1125.24        2972.50           1523        3655.00     15913.00
 1125.27        2972.75           1526        2179.00      9473.92
 1125.30        2973.00           1529         936.00      4053.24
 1125.33        2973.25           1533         411.00      1764.26
 1125.37        2973.50           1536         319.00      1363.18
 1125.40        2973.75           1539         279.00      1188.80
 1125.43        2974.00           1543         252.00      1071.09
 1125.46        2974.25           1546         192.00       809.52
 1125.49        2974.50           1549         151.00       630.79
 1125.52        2974.75           1553         114.00       469.49
 1125.55        2975.00           1556          91.00       369.23
 1125.58        2975.25           1559          87.00       351.79
 1125.61        2975.50           1563          74.00       295.12
 1125.64        2975.75           1566          74.00       295.12
 1125.68        2976.00           1569          62.00       242.81
 1125.71        2976.25           1573          73.00       290.76
 1125.74        2976.50           1576          66.00       260.25
 1125.77        2976.75           1579          61.00       238.45
 1125.80        2977.00           1583          61.00       238.45
 1125.83        2977.25           1586          58.00       225.37
 1125.86        2977.50           1590          59.00       229.73
 1125.89        2977.75           1593          58.00       225.37
 1125.92        2978.00           1596          65.00       255.89
 1125.95        2978.25           1600          66.00       260.25
 1125.98        2978.50           1603          58.00       225.37
 1126.02        2978.75           1606          64.00       251.53
 1126.05        2979.00           1610          63.00       247.17
 1126.08        2979.25           1613          63.00       247.17
 1126.11        2979.50           1616          63.00       247.17
 1126.14        2979.75           1620          72.00       286.40
 1126.17        2980.00           1623          68.00       268.96
 1126.20        2980.25           1626          75.00       299.48
 1126.23        2980.50           1630          67.00       264.61
 1126.26        2980.75           1633          69.00       273.32
 1126.29        2981.00           1637          66.00       260.25
 1126.32        2981.25           1640          66.00       260.25
 1126.35        2981.50           1643          67.00       264.61
 1126.38        2981.75           1647          64.00       251.53
 1126.42        2982.00           1650          67.00       264.61
 1126.45        2982.25           1653          68.00       268.96
 1126.48        2982.50           1657          72.00       286.40
 1126.51        2982.75           1660          65.00       255.89
 1126.54        2983.00           1663          61.00       238.45
 1126.57        2983.25           1667          71.00       282.04
 1126.60        2983.50           1670          59.00       229.73
 1126.63        2983.75           1673          64.00       251.53
 1126.66        2984.00           1677          63.00       247.17
HS scan finished at 18:46:53
end
