************************************************************
  HS Scan of (1) Internal mercury lamp
************************************************************
Integration time is 0.2294 seconds per sample
dh041017Manchester 53.47 2.23 2.804185pr1000
************************************************************
Dead Time -------------------------  3E-08 
Number of Cycles Used -------------  4 
Starting Wavelength (Angstroms) ---  2950 
Final Wavelength (Angstoms) -------  2984 
Wavelength Increment (Angstroms) --  .25 
Filter Wheel #1 Position ---------- (1) Ground quartz diffuser (ND=2.32)
Filter Wheel #2 Position ---------- (1) Neutral Density 0.494



************************************************************
HS scan start time = 03:20:28
Dark Count =  8.100001 


Time (GMT)  Wavelength (Ang)  Step Number  Raw Counts  Counts/Second

  200.84        2950.00           1222          71.00       274.20
  200.91        2950.25           1226          61.00       230.60
  200.94        2950.50           1229          82.00       322.15
  200.97        2950.75           1232          74.00       287.27
  201.00        2951.00           1236          70.00       269.84
  201.03        2951.25           1239          75.00       291.63
  201.06        2951.50           1242          73.00       282.91
  201.09        2951.75           1246          64.00       243.68
  201.12        2952.00           1249          71.00       274.20
  201.15        2952.25           1252          77.00       300.35
  201.18        2952.50           1256          81.00       317.79
  201.22        2952.75           1259          66.00       252.40
  201.25        2953.00           1262          71.00       274.20
  201.28        2953.25           1266          71.00       274.20
  201.31        2953.50           1269          71.00       274.20
  201.34        2953.75           1272          73.00       282.91
  201.37        2954.00           1276          68.00       261.12
  201.40        2954.25           1279          68.00       261.12
  201.43        2954.50           1282          70.00       269.84
  201.46        2954.75           1286          68.00       261.12
  201.49        2955.00           1289          72.00       278.56
  201.52        2955.25           1292          60.00       226.24
  201.55        2955.50           1296          71.00       274.20
  201.58        2955.75           1299          74.00       287.27
  201.61        2956.00           1302          77.00       300.35
  201.65        2956.25           1306          64.00       243.68
  201.68        2956.50           1309          77.00       300.35
  201.71        2956.75           1312          62.00       234.96
  201.74        2957.00           1316          72.00       278.56
  201.77        2957.25           1319          65.00       248.04
  201.80        2957.50           1322          63.00       239.32
  201.83        2957.75           1326          67.00       256.76
  201.86        2958.00           1329          70.00       269.84
  201.89        2958.25           1332          73.00       282.91
  201.92        2958.50           1336          78.00       304.71
  201.95        2958.75           1339          70.00       269.84
  201.99        2959.00           1342          72.00       278.56
  202.02        2959.25           1346          70.00       269.84
  202.05        2959.50           1349          80.00       313.43
  202.08        2959.75           1352          99.00       396.26
  202.11        2960.00           1356         133.00       544.47
  202.14        2960.25           1359         164.00       679.61
  202.17        2960.50           1362         208.00       871.43
  202.20        2960.75           1366         254.00      1071.96
  202.23        2961.00           1369         294.00      1246.34
  202.26        2961.25           1372         330.00      1403.28
  202.29        2961.50           1376         413.00      1765.13
  202.32        2961.75           1379         599.00      2576.05
  202.36        2962.00           1382        1201.00      5200.90
  202.39        2962.25           1386        2752.00     11965.50
  202.42        2962.50           1389        4398.00     19147.44
  202.45        2962.75           1392        5903.00     25716.87
  202.48        2963.00           1396        7776.00     33896.27
  202.51        2963.25           1399        9298.00     40545.81
  202.54        2963.50           1402       10979.00     47893.09
  202.57        2963.75           1406       12950.00     56512.03
  202.60        2964.00           1409       14494.00     63266.88
  202.63        2964.25           1412       16228.00     70856.22
  202.67        2964.50           1416       18320.00     80017.06
  202.70        2964.75           1419       19822.00     86597.40
  202.73        2965.00           1422       21223.00     92737.61
  202.76        2965.25           1426       23445.00    102480.70
  202.79        2965.50           1429       24935.00    109017.30
  202.82        2965.75           1432       26422.00    115543.20
  202.85        2966.00           1436       28668.00    125405.10
  202.88        2966.25           1439       30199.00    132130.80
  202.91        2966.50           1442       31434.00    137558.20
  202.95        2966.75           1446       33116.00    144952.90
  202.98        2967.00           1449       33625.00    147191.30
  203.01        2967.25           1452       33854.00    148198.40
  203.04        2967.50           1456       34013.00    148897.70
  203.07        2967.75           1459       33861.00    148229.20
  203.10        2968.00           1462       33756.00    147767.40
  203.13        2968.25           1466       33042.00    144627.50
  203.16        2968.50           1469       31520.00    137936.20
  203.19        2968.75           1472       30188.00    132082.50
  203.22        2969.00           1476       28089.00    122862.20
  203.25        2969.25           1479       26521.00    115977.80
  203.29        2969.50           1482       24952.00    109091.90
  203.32        2969.75           1486       23115.00    101033.30
  203.35        2970.00           1489       21342.00     93259.24
  203.38        2970.25           1492       19972.00     87254.69
  203.41        2970.50           1496       18097.00     79040.31
  203.44        2970.75           1499       16486.00     71985.72
  203.47        2971.00           1502       15008.00     65516.18
  203.50        2971.25           1506       12834.00     56004.66
  203.53        2971.50           1509       11330.00     49427.65
  203.56        2971.75           1513        9130.00     39811.69
  203.59        2972.00           1516        7563.00     32965.89
  203.62        2972.25           1519        6057.00     26389.24
  203.65        2972.50           1523        3982.00     17332.03
  203.69        2972.75           1526        2487.00     10809.52
  203.72        2973.00           1529        1147.00      4965.43
  203.75        2973.25           1533         459.00      1965.68
  203.78        2973.50           1536         339.00      1442.52
  203.81        2973.75           1539         290.00      1228.90
  203.84        2974.00           1543         255.00      1076.32
  203.87        2974.25           1546         191.00       797.32
  203.90        2974.50           1549         161.00       666.53
  203.93        2974.75           1553         105.00       422.41
  203.96        2975.00           1556          96.00       383.18
  203.99        2975.25           1559          83.00       326.51
  204.02        2975.50           1563          62.00       234.96
  204.05        2975.75           1566          65.00       248.04
  204.09        2976.00           1569          71.00       274.20
  204.12        2976.25           1573          70.00       269.84
  204.15        2976.50           1576          61.00       230.60
  204.18        2976.75           1579          69.00       265.48
  204.21        2977.00           1583          69.00       265.48
  204.24        2977.25           1586          71.00       274.20
  204.27        2977.50           1590          60.00       226.24
  204.30        2977.75           1593          72.00       278.56
  204.33        2978.00           1596          66.00       252.40
  204.36        2978.25           1600          71.00       274.20
  204.39        2978.50           1603          66.00       252.40
  204.42        2978.75           1606          64.00       243.68
  204.46        2979.00           1610          66.00       252.40
  204.49        2979.25           1613          64.00       243.68
  204.52        2979.50           1616          61.00       230.60
  204.55        2979.75           1620          66.00       252.40
  204.58        2980.00           1623          66.00       252.40
  204.61        2980.25           1626          68.00       261.12
  204.64        2980.50           1630          62.00       234.96
  204.67        2980.75           1633          62.00       234.96
  204.70        2981.00           1637          67.00       256.76
  204.73        2981.25           1640          65.00       248.04
  204.77        2981.50           1643          65.00       248.04
  204.80        2981.75           1647          67.00       256.76
  204.83        2982.00           1650          66.00       252.40
  204.86        2982.25           1653          61.00       230.60
  204.89        2982.50           1657          65.00       248.04
  204.92        2982.75           1660          67.00       256.76
  204.95        2983.00           1663          60.00       226.24
  204.98        2983.25           1667          67.00       256.76
  205.01        2983.50           1670          62.00       234.96
  205.04        2983.75           1673          55.00       204.45
  205.07        2984.00           1677          66.00       252.40
HS scan finished at 03:25:17
end
************************************************************
  HS Scan of (1) Internal mercury lamp
************************************************************
Integration time is 0.2294 seconds per sample
dh041017Manchester 53.47 2.23 2.804185pr1000
************************************************************
Dead Time -------------------------  3E-08 
Number of Cycles Used -------------  4 
Starting Wavelength (Angstroms) ---  2950 
Final Wavelength (Angstoms) -------  2984 
Wavelength Increment (Angstroms) --  .25 
Filter Wheel #1 Position ---------- (1) Ground quartz diffuser (ND=2.32)
Filter Wheel #2 Position ---------- (1) Neutral Density 0.494



************************************************************
HS scan start time = 18:42:03
Dark Count =  6.2 


Time (GMT)  Wavelength (Ang)  Step Number  Raw Counts  Counts/Second

 1122.41        2950.00           1222          62.00       243.25
 1122.48        2950.25           1226          75.00       299.92
 1122.51        2950.50           1229          72.00       286.84
 1122.54        2950.75           1232          69.00       273.76
 1122.57        2951.00           1236          70.00       278.12
 1122.61        2951.25           1239          72.00       286.84
 1122.64        2951.50           1242          67.00       265.04
 1122.67        2951.75           1246          74.00       295.56
 1122.70        2952.00           1249          60.00       234.53
 1122.73        2952.25           1252          74.00       295.56
 1122.76        2952.50           1256          70.00       278.12
 1122.79        2952.75           1259          67.00       265.04
 1122.82        2953.00           1262          69.00       273.76
 1122.85        2953.25           1266          68.00       269.40
 1122.89        2953.50           1269          85.00       343.51
 1122.92        2953.75           1272          68.00       269.40
 1122.95        2954.00           1276          66.00       260.68
 1122.98        2954.25           1279          73.00       291.20
 1123.01        2954.50           1282          72.00       286.84
 1123.04        2954.75           1286          70.00       278.12
 1123.07        2955.00           1289          66.00       260.68
 1123.10        2955.25           1292          67.00       265.04
 1123.13        2955.50           1296          72.00       286.84
 1123.16        2955.75           1299          67.00       265.04
 1123.19        2956.00           1302          72.00       286.84
 1123.23        2956.25           1306          81.00       326.07
 1123.26        2956.50           1309          76.00       304.27
 1123.29        2956.75           1312          75.00       299.92
 1123.32        2957.00           1316          68.00       269.40
 1123.35        2957.25           1319          75.00       299.92
 1123.38        2957.50           1322          69.00       273.76
 1123.41        2957.75           1326          67.00       265.04
 1123.44        2958.00           1329          71.00       282.48
 1123.47        2958.25           1332          70.00       278.12
 1123.50        2958.50           1336          67.00       265.04
 1123.54        2958.75           1339          75.00       299.92
 1123.57        2959.00           1342          74.00       295.56
 1123.60        2959.25           1346          74.00       295.56
 1123.63        2959.50           1349          83.00       334.79
 1123.66        2959.75           1352          92.00       374.02
 1123.69        2960.00           1356         112.00       461.21
 1123.72        2960.25           1359         158.00       661.74
 1123.75        2960.50           1362         182.00       766.36
 1123.78        2960.75           1366         227.00       962.54
 1123.81        2961.00           1369         283.00      1206.67
 1123.84        2961.25           1372         340.00      1455.16
 1123.88        2961.50           1376         402.00      1725.46
 1123.91        2961.75           1379         590.00      2545.09
 1123.94        2962.00           1382        1252.00      5431.57
 1123.97        2962.25           1386        2943.00     12807.01
 1124.00        2962.50           1389        4386.00     19103.36
 1124.03        2962.75           1392        5954.00     25947.83
 1124.06        2963.00           1396        7976.00     34778.20
 1124.09        2963.25           1399        9713.00     42367.68
 1124.12        2963.50           1402       11296.00     49287.30
 1124.15        2963.75           1406       13354.00     58287.54
 1124.18        2964.00           1409       14874.00     64938.07
 1124.22        2964.25           1412       16624.00     72598.23
 1124.25        2964.50           1416       18737.00     81852.02
 1124.28        2964.75           1419       20307.00     88731.09
 1124.31        2965.00           1422       21765.00     95121.98
 1124.34        2965.25           1426       23902.00    104493.60
 1124.37        2965.50           1429       25775.00    112711.80
 1124.40        2965.75           1432       27045.00    118286.50
 1124.43        2966.00           1436       29366.00    128479.40
 1124.46        2966.25           1439       30813.00    134837.30
 1124.49        2966.50           1442       32132.00    140634.80
 1124.53        2966.75           1446       33515.00    146715.90
 1124.56        2967.00           1449       33533.00    146795.00
 1124.59        2967.25           1452       33766.00    147819.70
 1124.62        2967.50           1456       33834.00    148118.80
 1124.65        2967.75           1459       33626.00    147204.00
 1124.68        2968.00           1462       33444.00    146403.60
 1124.71        2968.25           1466       32418.00    141892.20
 1124.74        2968.50           1469       30702.00    134349.50
 1124.77        2968.75           1472       29196.00    127732.70
 1124.80        2969.00           1476       27104.00    118545.50
 1124.84        2969.25           1479       25498.00    111496.10
 1124.87        2969.50           1482       24222.00    105897.40
 1124.90        2969.75           1486       22050.00     96371.52
 1124.93        2970.00           1489       20435.00     89292.06
 1124.96        2970.25           1492       19015.00     83069.88
 1124.99        2970.50           1496       16981.00     74161.33
 1125.02        2970.75           1499       15392.00     67205.11
 1125.05        2971.00           1502       13822.00     60334.92
 1125.09        2971.25           1506       11756.00     51298.59
 1125.12        2971.50           1509       10405.00     45392.20
 1125.15        2971.75           1513        8496.00     37049.88
 1125.18        2972.00           1516        6973.00     30397.37
 1125.21        2972.25           1519        5352.00     23319.71
 1125.24        2972.50           1523        3406.00     14827.00
 1125.27        2972.75           1526        2004.00      8711.08
 1125.30        2973.00           1529         867.00      3752.82
 1125.33        2973.25           1533         417.00      1790.85
 1125.36        2973.50           1536         316.00      1350.53
 1125.39        2973.75           1539         268.00      1141.28
 1125.42        2974.00           1543         215.00       910.23
 1125.46        2974.25           1546         162.00       679.18
 1125.49        2974.50           1549         130.00       539.68
 1125.52        2974.75           1553          86.00       347.87
 1125.55        2975.00           1556          78.00       312.99
 1125.58        2975.25           1559          76.00       304.27
 1125.61        2975.50           1563          74.00       295.56
 1125.64        2975.75           1566          71.00       282.48
 1125.67        2976.00           1569          70.00       278.12
 1125.70        2976.25           1573          60.00       234.53
 1125.73        2976.50           1576          68.00       269.40
 1125.76        2976.75           1579          68.00       269.40
 1125.79        2977.00           1583          70.00       278.12
 1125.83        2977.25           1586          70.00       278.12
 1125.86        2977.50           1590          71.00       282.48
 1125.89        2977.75           1593          68.00       269.40
 1125.92        2978.00           1596          69.00       273.76
 1125.95        2978.25           1600          62.00       243.25
 1125.98        2978.50           1603          73.00       291.20
 1126.01        2978.75           1606          64.00       251.96
 1126.04        2979.00           1610          66.00       260.68
 1126.07        2979.25           1613          71.00       282.48
 1126.10        2979.50           1616          69.00       273.76
 1126.13        2979.75           1620          64.00       251.96
 1126.17        2980.00           1623          68.00       269.40
 1126.20        2980.25           1626          73.00       291.20
 1126.23        2980.50           1630          67.00       265.04
 1126.26        2980.75           1633          58.00       225.81
 1126.29        2981.00           1637          71.00       282.48
 1126.32        2981.25           1640          58.00       225.81
 1126.35        2981.50           1643          67.00       265.04
 1126.38        2981.75           1647          61.00       238.89
 1126.41        2982.00           1650          59.00       230.17
 1126.44        2982.25           1653          60.00       234.53
 1126.48        2982.50           1657          68.00       269.40
 1126.51        2982.75           1660          67.00       265.04
 1126.54        2983.00           1663          54.00       208.37
 1126.57        2983.25           1667          64.00       251.96
 1126.60        2983.50           1670          61.00       238.89
 1126.63        2983.75           1673          62.00       243.25
 1126.66        2984.00           1677          58.00       225.81
HS scan finished at 18:46:53
end
