************************************************************
  HS Scan of (1) Internal mercury lamp
************************************************************
Integration time is 0.2294 seconds per sample
dh031017Manchester 53.47 2.23 2.804185pr1000
************************************************************
Dead Time -------------------------  3E-08 
Number of Cycles Used -------------  4 
Starting Wavelength (Angstroms) ---  2950 
Final Wavelength (Angstoms) -------  2984 
Wavelength Increment (Angstroms) --  .25 
Filter Wheel #1 Position ---------- (1) Ground quartz diffuser (ND=2.32)
Filter Wheel #2 Position ---------- (1) Neutral Density 0.494



************************************************************
HS scan start time = 03:17:48
Dark Count =  4.4 


Time (GMT)  Wavelength (Ang)  Step Number  Raw Counts  Counts/Second

  198.17        2950.00           1222          77.00       316.48
  198.23        2950.25           1226          75.00       307.76
  198.26        2950.50           1229          78.00       320.84
  198.30        2950.75           1232          79.00       325.20
  198.33        2951.00           1236          76.00       312.12
  198.36        2951.25           1239          69.00       281.61
  198.39        2951.50           1242          67.00       272.89
  198.42        2951.75           1246          72.00       294.68
  198.45        2952.00           1249          65.00       264.17
  198.48        2952.25           1252          78.00       320.84
  198.51        2952.50           1256          65.00       264.17
  198.54        2952.75           1259          73.00       299.04
  198.57        2953.00           1262          73.00       299.04
  198.60        2953.25           1266          64.00       259.81
  198.63        2953.50           1269          72.00       294.68
  198.66        2953.75           1272          73.00       299.04
  198.70        2954.00           1276          72.00       294.68
  198.73        2954.25           1279          66.00       268.53
  198.76        2954.50           1282          74.00       303.40
  198.79        2954.75           1286          71.00       290.33
  198.82        2955.00           1289          76.00       312.12
  198.85        2955.25           1292          69.00       281.61
  198.88        2955.50           1296          80.00       329.56
  198.91        2955.75           1299          70.00       285.97
  198.94        2956.00           1302          74.00       303.40
  198.97        2956.25           1306          77.00       316.48
  199.00        2956.50           1309          67.00       272.89
  199.03        2956.75           1312          71.00       290.33
  199.07        2957.00           1316          66.00       268.53
  199.10        2957.25           1319          66.00       268.53
  199.13        2957.50           1322          75.00       307.76
  199.16        2957.75           1326          71.00       290.33
  199.19        2958.00           1329          71.00       290.33
  199.22        2958.25           1332          69.00       281.61
  199.25        2958.50           1336          62.00       251.09
  199.28        2958.75           1339          69.00       281.61
  199.31        2959.00           1342          67.00       272.89
  199.34        2959.25           1346          71.00       290.33
  199.37        2959.50           1349          79.00       325.20
  199.40        2959.75           1352         107.00       447.26
  199.43        2960.00           1356         139.00       586.76
  199.47        2960.25           1359         166.00       704.46
  199.50        2960.50           1362         200.00       852.68
  199.53        2960.75           1366         273.00      1170.92
  199.56        2961.00           1369         287.00      1231.96
  199.59        2961.25           1372         327.00      1406.34
  199.62        2961.50           1376         372.00      1602.52
  199.65        2961.75           1379         451.00      1946.93
  199.68        2962.00           1382         665.00      2879.93
  199.71        2962.25           1386        1894.00      8239.18
  199.75        2962.50           1389        3266.00     14224.03
  199.78        2962.75           1392        4924.00     21459.32
  199.81        2963.00           1396        6888.00     30034.03
  199.84        2963.25           1399        8353.00     36433.00
  199.87        2963.50           1402        9812.00     42808.21
  199.90        2963.75           1406       11955.00     52176.64
  199.93        2964.00           1409       13704.00     59826.55
  199.96        2964.25           1412       15284.00     66740.30
  199.99        2964.50           1416       17319.00     75649.25
  200.02        2964.75           1419       18936.00     82731.68
  200.06        2965.00           1422       20509.00     89624.26
  200.09        2965.25           1426       22343.00     97664.11
  200.12        2965.50           1429       24357.00    106497.50
  200.15        2965.75           1432       25659.00    112210.60
  200.18        2966.00           1436       27837.00    121771.90
  200.21        2966.25           1439       29498.00    129067.20
  200.24        2966.50           1442       30912.00    135280.30
  200.27        2966.75           1446       32696.00    143122.40
  200.30        2967.00           1449       33508.00    146693.00
  200.33        2967.25           1452       33807.00    148008.00
  200.36        2967.50           1456       33900.00    148417.00
  200.40        2967.75           1459       34088.00    149243.90
  200.43        2968.00           1462       33896.00    148399.40
  200.46        2968.25           1466       33505.00    146679.80
  200.49        2968.50           1469       32862.00    143852.30
  200.52        2968.75           1472       31267.00    136840.50
  200.55        2969.00           1476       29420.00    128724.60
  200.58        2969.25           1479       27666.00    121021.00
  200.61        2969.50           1482       26143.00    114334.80
  200.64        2969.75           1486       24034.00    105080.50
  200.68        2970.00           1489       22538.00     98519.18
  200.71        2970.25           1492       21096.00     92197.12
  200.74        2970.50           1496       18924.00     82679.10
  200.77        2970.75           1499       17242.00     75312.07
  200.80        2971.00           1502       15862.00     69270.22
  200.83        2971.25           1506       13630.00     59502.82
  200.86        2971.50           1509       12037.00     52535.22
  200.89        2971.75           1513        9991.00     43590.53
  200.92        2972.00           1516        8432.00     36778.13
  200.95        2972.25           1519        6812.00     29702.13
  200.98        2972.50           1523        4959.00     21612.09
  201.02        2972.75           1526        3422.00     14904.66
  201.05        2973.00           1529        1903.00      8278.43
  201.08        2973.25           1533         706.00      3058.69
  201.11        2973.50           1536         378.00      1628.68
  201.14        2973.75           1539         303.00      1301.71
  201.17        2974.00           1543         243.00      1040.14
  201.20        2974.25           1546         173.00       734.98
  201.23        2974.50           1549         144.00       608.56
  201.26        2974.75           1553         101.00       421.10
  201.29        2975.00           1556          89.00       368.79
  201.33        2975.25           1559          72.00       294.68
  201.36        2975.50           1563          69.00       281.61
  201.39        2975.75           1566          69.00       281.61
  201.42        2976.00           1569          64.00       259.81
  201.45        2976.25           1573          67.00       272.89
  201.48        2976.50           1576          68.00       277.25
  201.51        2976.75           1579          70.00       285.97
  201.54        2977.00           1583          65.00       264.17
  201.57        2977.25           1586          71.00       290.33
  201.60        2977.50           1590          72.00       294.68
  201.63        2977.75           1593          63.00       255.45
  201.66        2978.00           1596          65.00       264.17
  201.69        2978.25           1600          58.00       233.65
  201.73        2978.50           1603          66.00       268.53
  201.76        2978.75           1606          73.00       299.04
  201.79        2979.00           1610          57.00       229.30
  201.82        2979.25           1613          66.00       268.53
  201.85        2979.50           1616          65.00       264.17
  201.88        2979.75           1620          63.00       255.45
  201.91        2980.00           1623          65.00       264.17
  201.94        2980.25           1626          60.00       242.37
  201.97        2980.50           1630          67.00       272.89
  202.00        2980.75           1633          66.00       268.53
  202.03        2981.00           1637          58.00       233.65
  202.06        2981.25           1640          65.00       264.17
  202.09        2981.50           1643          64.00       259.81
  202.13        2981.75           1647          70.00       285.97
  202.16        2982.00           1650          53.00       211.86
  202.19        2982.25           1653          64.00       259.81
  202.22        2982.50           1657          63.00       255.45
  202.25        2982.75           1660          64.00       259.81
  202.28        2983.00           1663          63.00       255.45
  202.31        2983.25           1667          62.00       251.09
  202.34        2983.50           1670          66.00       268.53
  202.37        2983.75           1673          60.00       242.37
  202.40        2984.00           1677          64.00       259.81
HS scan finished at 03:22:37
end
************************************************************
  HS Scan of (1) Internal mercury lamp
************************************************************
Integration time is 0.2294 seconds per sample
dh031017Manchester 53.47 2.23 2.804185pr1000
************************************************************
Dead Time -------------------------  3E-08 
Number of Cycles Used -------------  4 
Starting Wavelength (Angstroms) ---  2950 
Final Wavelength (Angstoms) -------  2984 
Wavelength Increment (Angstroms) --  .25 
Filter Wheel #1 Position ---------- (1) Ground quartz diffuser (ND=2.32)
Filter Wheel #2 Position ---------- (1) Neutral Density 0.494



************************************************************
HS scan start time = 18:42:00
Dark Count =  6.4 


Time (GMT)  Wavelength (Ang)  Step Number  Raw Counts  Counts/Second

 1122.37        2950.00           1222          71.00       281.61
 1122.44        2950.25           1226          71.00       281.61
 1122.47        2950.50           1229          68.00       268.53
 1122.50        2950.75           1232          74.00       294.68
 1122.53        2951.00           1236          72.00       285.97
 1122.56        2951.25           1239          74.00       294.68
 1122.59        2951.50           1242          69.00       272.89
 1122.62        2951.75           1246          69.00       272.89
 1122.65        2952.00           1249          68.00       268.53
 1122.69        2952.25           1252          84.00       338.28
 1122.72        2952.50           1256          74.00       294.68
 1122.75        2952.75           1259          66.00       259.81
 1122.78        2953.00           1262          79.00       316.48
 1122.81        2953.25           1266          69.00       272.89
 1122.84        2953.50           1269          71.00       281.61
 1122.87        2953.75           1272          77.00       307.76
 1122.90        2954.00           1276          71.00       281.61
 1122.93        2954.25           1279          68.00       268.53
 1122.96        2954.50           1282          76.00       303.40
 1122.99        2954.75           1286          62.00       242.37
 1123.02        2955.00           1289          65.00       255.45
 1123.05        2955.25           1292          70.00       277.25
 1123.08        2955.50           1296          67.00       264.17
 1123.11        2955.75           1299          79.00       316.48
 1123.14        2956.00           1302          65.00       255.45
 1123.18        2956.25           1306          78.00       312.12
 1123.21        2956.50           1309          65.00       255.45
 1123.24        2956.75           1312          63.00       246.73
 1123.27        2957.00           1316          63.00       246.73
 1123.30        2957.25           1319          75.00       299.04
 1123.33        2957.50           1322          81.00       325.20
 1123.36        2957.75           1326          77.00       307.76
 1123.39        2958.00           1329          76.00       303.40
 1123.42        2958.25           1332          70.00       277.25
 1123.45        2958.50           1336          74.00       294.68
 1123.49        2958.75           1339          76.00       303.40
 1123.52        2959.00           1342          70.00       277.25
 1123.55        2959.25           1346          71.00       281.61
 1123.58        2959.50           1349          81.00       325.20
 1123.61        2959.75           1352         111.00       455.98
 1123.64        2960.00           1356         129.00       534.45
 1123.67        2960.25           1359         154.00       643.43
 1123.70        2960.50           1362         190.00       800.37
 1123.73        2960.75           1366         236.00      1000.90
 1123.76        2961.00           1369         281.00      1197.08
 1123.80        2961.25           1372         339.00      1449.93
 1123.83        2961.50           1376         406.00      1742.03
 1123.86        2961.75           1379         650.00      2805.82
 1123.89        2962.00           1382        1391.00      6036.84
 1123.92        2962.25           1386        3227.00     14045.15
 1123.95        2962.50           1389        4821.00     21001.02
 1123.98        2962.75           1392        6330.00     27588.65
 1124.01        2963.00           1396        8303.00     36205.82
 1124.04        2963.25           1399        9841.00     42926.22
 1124.07        2963.50           1402       11479.00     50086.54
 1124.10        2963.75           1406       13462.00     58759.11
 1124.13        2964.00           1409       14941.00     65230.41
 1124.17        2964.25           1412       16711.00     72978.26
 1124.20        2964.50           1416       18758.00     81943.13
 1124.23        2964.75           1419       20425.00     89247.35
 1124.26        2965.00           1422       22004.00     96168.94
 1124.29        2965.25           1426       24207.00    105830.70
 1124.32        2965.50           1429       25531.00    111640.10
 1124.35        2965.75           1432       27098.00    118518.30
 1124.38        2966.00           1436       29113.00    127367.20
 1124.41        2966.25           1439       30548.00    133671.90
 1124.44        2966.50           1442       31673.00    138616.20
 1124.48        2966.75           1446       33430.00    146341.20
 1124.51        2967.00           1449       33785.00    147902.40
 1124.54        2967.25           1452       33742.00    147713.30
 1124.57        2967.50           1456       33834.00    148117.90
 1124.60        2967.75           1459       33575.00    146978.90
 1124.63        2968.00           1462       33299.00    145765.10
 1124.66        2968.25           1466       32358.00    141627.50
 1124.69        2968.50           1469       30842.00    134963.90
 1124.72        2968.75           1472       29319.00    128272.10
 1124.76        2969.00           1476       27455.00    120085.70
 1124.79        2969.25           1479       25863.00    113097.10
 1124.82        2969.50           1482       24455.00    106918.70
 1124.85        2969.75           1486       22522.00     98440.25
 1124.88        2970.00           1489       20874.00     91215.28
 1124.91        2970.25           1492       19367.00     84611.19
 1124.94        2970.50           1496       17364.00     75837.56
 1124.97        2970.75           1499       15663.00     68390.40
 1125.00        2971.00           1502       13947.00     60880.93
 1125.04        2971.25           1506       11905.00     51949.25
 1125.07        2971.50           1509       10322.00     45028.53
 1125.10        2971.75           1513        8312.00     36245.14
 1125.13        2972.00           1516        6845.00     29837.51
 1125.16        2972.25           1519        5365.00     23375.59
 1125.19        2972.50           1523        3403.00     14813.03
 1125.22        2972.75           1526        1892.00      8221.73
 1125.25        2973.00           1529         779.00      3368.26
 1125.28        2973.25           1533         432.00      1855.38
 1125.31        2973.50           1536         339.00      1449.93
 1125.35        2973.75           1539         294.00      1253.75
 1125.38        2974.00           1543         248.00      1053.22
 1125.41        2974.25           1546         188.00       791.65
 1125.44        2974.50           1549         148.00       617.27
 1125.47        2974.75           1553         105.00       429.82
 1125.50        2975.00           1556          81.00       325.20
 1125.53        2975.25           1559          76.00       303.40
 1125.56        2975.50           1563          72.00       285.97
 1125.59        2975.75           1566          66.00       259.81
 1125.62        2976.00           1569          69.00       272.89
 1125.66        2976.25           1573          67.00       264.17
 1125.69        2976.50           1576          65.00       255.45
 1125.72        2976.75           1579          65.00       255.45
 1125.75        2977.00           1583          60.00       233.65
 1125.78        2977.25           1586          72.00       285.97
 1125.81        2977.50           1590          64.00       251.09
 1125.84        2977.75           1593          72.00       285.97
 1125.87        2978.00           1596          64.00       251.09
 1125.90        2978.25           1600          60.00       233.65
 1125.93        2978.50           1603          75.00       299.04
 1125.96        2978.75           1606          66.00       259.81
 1125.99        2979.00           1610          66.00       259.81
 1126.02        2979.25           1613          68.00       268.53
 1126.05        2979.50           1616          65.00       255.45
 1126.08        2979.75           1620          63.00       246.73
 1126.11        2980.00           1623          70.00       277.25
 1126.15        2980.25           1626          64.00       251.09
 1126.18        2980.50           1630          55.00       211.86
 1126.21        2980.75           1633          60.00       233.65
 1126.24        2981.00           1637          68.00       268.53
 1126.27        2981.25           1640          60.00       233.65
 1126.30        2981.50           1643          65.00       255.45
 1126.33        2981.75           1647          70.00       277.25
 1126.36        2982.00           1650          61.00       238.01
 1126.39        2982.25           1653          61.00       238.01
 1126.42        2982.50           1657          54.00       207.50
 1126.45        2982.75           1660          58.00       224.94
 1126.48        2983.00           1663          74.00       294.68
 1126.51        2983.25           1667          57.00       220.58
 1126.54        2983.50           1670          59.00       229.30
 1126.58        2983.75           1673          72.00       285.97
 1126.61        2984.00           1677          65.00       255.45
HS scan finished at 18:46:49
end
