************************************************************
  HS Scan of (1) Internal mercury lamp
************************************************************
Integration time is 0.2294 seconds per sample
dh021018Manchester 53.47 2.23 2.804185pr1000
************************************************************
Dead Time -------------------------  3E-08 
Number of Cycles Used -------------  4 
Starting Wavelength (Angstroms) ---  2950 
Final Wavelength (Angstoms) -------  2984 
Wavelength Increment (Angstroms) --  .25 
Filter Wheel #1 Position ---------- (1) Ground quartz diffuser (ND=2.32)
Filter Wheel #2 Position ---------- (1) Neutral Density 0.494



************************************************************
HS scan start time = 03:14:27
Dark Count =  5.8 


Time (GMT)  Wavelength (Ang)  Step Number  Raw Counts  Counts/Second

  194.82        2950.00           1222          49.00       188.32
  194.89        2950.25           1226          57.00       223.19
  194.92        2950.50           1229          57.00       223.19
  194.95        2950.75           1232          49.00       188.32
  194.98        2951.00           1236          62.00       244.99
  195.01        2951.25           1239          53.00       205.76
  195.04        2951.50           1242          45.00       170.88
  195.07        2951.75           1246          45.00       170.88
  195.10        2952.00           1249          61.00       240.63
  195.13        2952.25           1252          48.00       183.96
  195.16        2952.50           1256          53.00       205.76
  195.19        2952.75           1259          45.00       170.88
  195.23        2953.00           1262          53.00       205.76
  195.26        2953.25           1266          42.00       157.80
  195.29        2953.50           1269          40.00       149.09
  195.32        2953.75           1272          52.00       201.40
  195.35        2954.00           1276          54.00       210.11
  195.38        2954.25           1279          55.00       214.47
  195.41        2954.50           1282          56.00       218.83
  195.44        2954.75           1286          51.00       197.04
  195.47        2955.00           1289          53.00       205.76
  195.50        2955.25           1292          51.00       197.04
  195.53        2955.50           1296          51.00       197.04
  195.56        2955.75           1299          50.00       192.68
  195.59        2956.00           1302          54.00       210.11
  195.63        2956.25           1306          52.00       201.40
  195.66        2956.50           1309          52.00       201.40
  195.69        2956.75           1312          51.00       197.04
  195.72        2957.00           1316          49.00       188.32
  195.75        2957.25           1319          51.00       197.04
  195.78        2957.50           1322          49.00       188.32
  195.81        2957.75           1326          52.00       201.40
  195.84        2958.00           1329          45.00       170.88
  195.87        2958.25           1332          48.00       183.96
  195.90        2958.50           1336          48.00       183.96
  195.94        2958.75           1339          44.00       166.52
  195.97        2959.00           1342          51.00       197.04
  196.00        2959.25           1346          50.00       192.68
  196.03        2959.50           1349          51.00       197.04
  196.06        2959.75           1352          68.00       271.14
  196.09        2960.00           1356          83.00       336.53
  196.12        2960.25           1359         101.00       415.00
  196.15        2960.50           1362         124.00       515.27
  196.18        2960.75           1366         173.00       728.87
  196.21        2961.00           1369         200.00       846.58
  196.24        2961.25           1372         233.00       990.44
  196.28        2961.50           1376         298.00      1273.81
  196.31        2961.75           1379         477.00      2054.18
  196.34        2962.00           1382        1117.00      4844.64
  196.37        2962.25           1386        2498.00     10867.54
  196.40        2962.50           1389        3534.00     15387.22
  196.43        2962.75           1392        4747.00     20680.66
  196.46        2963.00           1396        6300.00     27460.28
  196.49        2963.25           1399        7394.00     32237.79
  196.52        2963.50           1402        8574.00     37392.40
  196.55        2963.75           1406       10333.00     45079.24
  196.59        2964.00           1409       11399.00     49739.39
  196.62        2964.25           1412       12725.00     55537.97
  196.65        2964.50           1416       14412.00     62918.13
  196.68        2964.75           1419       15451.00     67465.10
  196.71        2965.00           1422       16669.00     72797.00
  196.74        2965.25           1426       18322.00     80035.88
  196.77        2965.50           1429       19407.00     84789.07
  196.80        2965.75           1432       20708.00     90490.31
  196.84        2966.00           1436       22215.00     97096.72
  196.87        2966.25           1439       23178.00    101319.70
  196.90        2966.50           1442       24335.00    106394.90
  196.93        2966.75           1446       25544.00    111699.70
  196.96        2967.00           1449       25895.00    113240.20
  196.99        2967.25           1452       25832.00    112963.70
  197.02        2967.50           1456       25858.00    113077.80
  197.05        2967.75           1459       25818.00    112902.20
  197.08        2968.00           1462       25753.00    112617.00
  197.11        2968.25           1466       24914.00    108935.20
  197.15        2968.50           1469       23942.00    104670.80
  197.18        2968.75           1472       22838.00     99828.60
  197.21        2969.00           1476       21291.00     93045.76
  197.24        2969.25           1479       20055.00     87628.49
  197.27        2969.50           1482       18859.00     82388.21
  197.30        2969.75           1486       17228.00     75244.63
  197.33        2970.00           1489       16106.00     70332.21
  197.36        2970.25           1492       15051.00     65714.43
  197.39        2970.50           1496       13496.00     58910.48
  197.42        2970.75           1499       12318.00     53757.95
  197.45        2971.00           1502       11053.00     48226.66
  197.49        2971.25           1506        9424.00     41106.46
  197.52        2971.50           1509        8344.00     36387.57
  197.55        2971.75           1513        6729.00     29333.56
  197.58        2972.00           1516        5579.00     24312.41
  197.61        2972.25           1519        4407.00     19196.75
  197.64        2972.50           1523        2777.00     12084.59
  197.67        2972.75           1526        1615.00      7016.30
  197.70        2973.00           1529         749.00      3240.07
  197.73        2973.25           1533         350.00      1500.50
  197.77        2973.50           1536         277.00      1182.26
  197.80        2973.75           1539         222.00       942.49
  197.83        2974.00           1543         202.00       855.30
  197.86        2974.25           1546         157.00       659.12
  197.89        2974.50           1549         107.00       441.16
  197.92        2974.75           1553          79.00       319.10
  197.95        2975.00           1556          65.00       258.07
  197.98        2975.25           1559          50.00       192.68
  198.02        2975.50           1563          52.00       201.40
  198.05        2975.75           1566          46.00       175.24
  198.08        2976.00           1569          45.00       170.88
  198.11        2976.25           1573          50.00       192.68
  198.14        2976.50           1576          51.00       197.04
  198.17        2976.75           1579          42.00       157.80
  198.20        2977.00           1583          46.00       175.24
  198.23        2977.25           1586          48.00       183.96
  198.26        2977.50           1590          41.00       153.44
  198.30        2977.75           1593          46.00       175.24
  198.33        2978.00           1596          54.00       210.11
  198.36        2978.25           1600          53.00       205.76
  198.39        2978.50           1603          47.00       179.60
  198.42        2978.75           1606          43.00       162.16
  198.45        2979.00           1610          51.00       197.04
  198.48        2979.25           1613          46.00       175.24
  198.51        2979.50           1616          52.00       201.40
  198.54        2979.75           1620          52.00       201.40
  198.57        2980.00           1623          44.00       166.52
  198.60        2980.25           1626          44.00       166.52
  198.63        2980.50           1630          46.00       175.24
  198.66        2980.75           1633          44.00       166.52
  198.69        2981.00           1637          48.00       183.96
  198.72        2981.25           1640          42.00       157.80
  198.76        2981.50           1643          44.00       166.52
  198.79        2981.75           1647          47.00       179.60
  198.82        2982.00           1650          43.00       162.16
  198.85        2982.25           1653          45.00       170.88
  198.88        2982.50           1657          46.00       175.24
  198.91        2982.75           1660          49.00       188.32
  198.94        2983.00           1663          42.00       157.80
  198.97        2983.25           1667          47.00       179.60
  199.00        2983.50           1670          50.00       192.68
  199.03        2983.75           1673          48.00       183.96
  199.06        2984.00           1677          45.00       170.88
HS scan finished at 03:19:17
end
************************************************************
  HS Scan of (1) Internal mercury lamp
************************************************************
Integration time is 0.2294 seconds per sample
dh021018Manchester 53.47 2.23 2.804185pr1000
************************************************************
Dead Time -------------------------  3E-08 
Number of Cycles Used -------------  4 
Starting Wavelength (Angstroms) ---  2950 
Final Wavelength (Angstoms) -------  2984 
Wavelength Increment (Angstroms) --  .25 
Filter Wheel #1 Position ---------- (1) Ground quartz diffuser (ND=2.32)
Filter Wheel #2 Position ---------- (1) Neutral Density 0.494



************************************************************
HS scan start time = 18:42:02
Dark Count =  6.9 


Time (GMT)  Wavelength (Ang)  Step Number  Raw Counts  Counts/Second

 1122.40        2950.00           1222          48.00       179.16
 1122.46        2950.25           1226          47.00       174.80
 1122.49        2950.50           1229          46.00       170.45
 1122.52        2950.75           1232          54.00       205.32
 1122.55        2951.00           1236          46.00       170.45
 1122.58        2951.25           1239          43.00       157.37
 1122.62        2951.50           1242          53.00       200.96
 1122.65        2951.75           1246          59.00       227.12
 1122.68        2952.00           1249          51.00       192.24
 1122.71        2952.25           1252          44.00       161.73
 1122.74        2952.50           1256          50.00       187.88
 1122.77        2952.75           1259          58.00       222.76
 1122.80        2953.00           1262          50.00       187.88
 1122.83        2953.25           1266          51.00       192.24
 1122.86        2953.50           1269          47.00       174.80
 1122.89        2953.75           1272          48.00       179.16
 1122.92        2954.00           1276          52.00       196.60
 1122.95        2954.25           1279          51.00       192.24
 1122.99        2954.50           1282          48.00       179.16
 1123.02        2954.75           1286          50.00       187.88
 1123.05        2955.00           1289          50.00       187.88
 1123.08        2955.25           1292          56.00       214.04
 1123.11        2955.50           1296          43.00       157.37
 1123.14        2955.75           1299          50.00       187.88
 1123.17        2956.00           1302          43.00       157.37
 1123.20        2956.25           1306          55.00       209.68
 1123.23        2956.50           1309          49.00       183.52
 1123.26        2956.75           1312          57.00       218.40
 1123.29        2957.00           1316          49.00       183.52
 1123.32        2957.25           1319          54.00       205.32
 1123.35        2957.50           1322          46.00       170.45
 1123.38        2957.75           1326          46.00       170.45
 1123.42        2958.00           1329          58.00       222.76
 1123.45        2958.25           1332          54.00       205.32
 1123.48        2958.50           1336          47.00       174.80
 1123.51        2958.75           1339          46.00       170.45
 1123.54        2959.00           1342          62.00       240.19
 1123.57        2959.25           1346          59.00       227.12
 1123.60        2959.50           1349          69.00       270.71
 1123.63        2959.75           1352          63.00       244.55
 1123.66        2960.00           1356          86.00       344.82
 1123.69        2960.25           1359         115.00       471.24
 1123.72        2960.50           1362         124.00       510.47
 1123.75        2960.75           1366         165.00       689.20
 1123.78        2961.00           1369         191.00       802.55
 1123.82        2961.25           1372         234.00       990.00
 1123.85        2961.50           1376         306.00      1303.89
 1123.88        2961.75           1379         470.00      2018.87
 1123.91        2962.00           1382        1116.00      4835.49
 1123.94        2962.25           1386        2537.00     11032.86
 1123.97        2962.50           1389        3652.00     15897.29
 1124.00        2962.75           1392        4808.00     20942.10
 1124.03        2963.00           1396        6385.00     27826.62
 1124.06        2963.25           1399        7569.00     32997.34
 1124.09        2963.50           1402        8717.00     38012.38
 1124.12        2963.75           1406       10363.00     45205.56
 1124.15        2964.00           1409       11468.00     50036.26
 1124.19        2964.25           1412       12690.00     55380.08
 1124.22        2964.50           1416       14438.00     63027.08
 1124.25        2964.75           1419       15567.00     67968.00
 1124.28        2965.00           1422       16934.00     73952.46
 1124.31        2965.25           1426       18540.00     80985.98
 1124.34        2965.50           1429       19729.00     86195.14
 1124.37        2965.75           1432       20773.00     90770.38
 1124.40        2966.00           1436       22531.00     98477.51
 1124.43        2966.25           1439       23708.00    103639.50
 1124.46        2966.50           1442       24750.00    108210.80
 1124.50        2966.75           1446       25742.00    112563.90
 1124.53        2967.00           1449       25636.00    112098.70
 1124.56        2967.25           1452       25762.00    112651.70
 1124.59        2967.50           1456       25629.00    112068.00
 1124.62        2967.75           1459       25795.00    112796.50
 1124.65        2968.00           1462       25456.00    111308.70
 1124.68        2968.25           1466       24459.00    106934.10
 1124.71        2968.50           1469       23289.00    101801.70
 1124.74        2968.75           1472       22328.00     97587.38
 1124.78        2969.00           1476       20873.00     91208.69
 1124.81        2969.25           1479       19531.00     85327.56
 1124.84        2969.50           1482       18544.00     81003.50
 1124.87        2969.75           1486       17069.00     74543.58
 1124.90        2970.00           1489       15760.00     68812.79
 1124.93        2970.25           1492       14877.00     64948.14
 1124.96        2970.50           1496       13103.00     57186.52
 1124.99        2970.75           1499       11937.00     52086.99
 1125.02        2971.00           1502       10662.00     46512.55
 1125.06        2971.25           1506        9162.00     39956.76
 1125.09        2971.50           1509        7846.00     34207.28
 1125.12        2971.75           1513        6369.00     27756.76
 1125.15        2972.00           1516        5023.00     21880.53
 1125.18        2972.25           1519        4035.00     17568.54
 1125.21        2972.50           1523        2417.00     10509.42
 1125.24        2972.75           1526        1347.00      5842.79
 1125.27        2973.00           1529         601.00      2590.00
 1125.30        2973.25           1533         316.00      1347.48
 1125.33        2973.50           1536         272.00      1155.66
 1125.37        2973.75           1539         234.00       990.00
 1125.40        2974.00           1543         192.00       806.91
 1125.43        2974.25           1546         150.00       623.81
 1125.46        2974.50           1549         112.00       458.16
 1125.49        2974.75           1553          81.00       323.02
 1125.52        2975.00           1556          64.00       248.91
 1125.55        2975.25           1559          56.00       214.04
 1125.58        2975.50           1563          42.00       153.01
 1125.61        2975.75           1566          57.00       218.40
 1125.64        2976.00           1569          50.00       187.88
 1125.67        2976.25           1573          51.00       192.24
 1125.70        2976.50           1576          47.00       174.80
 1125.74        2976.75           1579          46.00       170.45
 1125.77        2977.00           1583          44.00       161.73
 1125.80        2977.25           1586          48.00       179.16
 1125.83        2977.50           1590          46.00       170.45
 1125.86        2977.75           1593          52.00       196.60
 1125.89        2978.00           1596          44.00       161.73
 1125.92        2978.25           1600          45.00       166.09
 1125.95        2978.50           1603          44.00       161.73
 1125.98        2978.75           1606          46.00       170.45
 1126.01        2979.00           1610          52.00       196.60
 1126.04        2979.25           1613          45.00       166.09
 1126.07        2979.50           1616          52.00       196.60
 1126.10        2979.75           1620          47.00       174.80
 1126.13        2980.00           1623          41.00       148.65
 1126.17        2980.25           1626          45.00       166.09
 1126.20        2980.50           1630          44.00       161.73
 1126.23        2980.75           1633          44.00       161.73
 1126.26        2981.00           1637          40.00       144.29
 1126.29        2981.25           1640          51.00       192.24
 1126.32        2981.50           1643          47.00       174.80
 1126.35        2981.75           1647          40.00       144.29
 1126.38        2982.00           1650          52.00       196.60
 1126.41        2982.25           1653          44.00       161.73
 1126.44        2982.50           1657          41.00       148.65
 1126.47        2982.75           1660          44.00       161.73
 1126.51        2983.00           1663          45.00       166.09
 1126.54        2983.25           1667          42.00       153.01
 1126.57        2983.50           1670          43.00       157.37
 1126.60        2983.75           1673          44.00       161.73
 1126.63        2984.00           1677          46.00       170.45
HS scan finished at 18:46:51
end
