************************************************************
  HS Scan of (1) Internal mercury lamp
************************************************************
Integration time is 0.2294 seconds per sample
dh270918Manchester 53.47 2.23 2.857833pr1000
************************************************************
Dead Time -------------------------  3E-08 
Number of Cycles Used -------------  4 
Starting Wavelength (Angstroms) ---  2950 
Final Wavelength (Angstoms) -------  2984 
Wavelength Increment (Angstroms) --  .25 
Filter Wheel #1 Position ---------- (1) Ground quartz diffuser (ND=2.32)
Filter Wheel #2 Position ---------- (1) Neutral Density 0.494



************************************************************
HS scan start time = 03:00:54
Dark Count =  7.5 


Time (GMT)  Wavelength (Ang)  Step Number  Raw Counts  Counts/Second

  181.27        2950.00           1222          47.00       172.19
  181.34        2950.25           1226          51.00       189.63
  181.37        2950.50           1229          49.00       180.91
  181.40        2950.75           1232          43.00       154.75
  181.43        2951.00           1236          51.00       189.63
  181.46        2951.25           1239          51.00       189.63
  181.49        2951.50           1242          52.00       193.99
  181.52        2951.75           1246          55.00       207.06
  181.55        2952.00           1249          52.00       193.99
  181.58        2952.25           1252          52.00       193.99
  181.61        2952.50           1256          47.00       172.19
  181.64        2952.75           1259          49.00       180.91
  181.67        2953.00           1262          49.00       180.91
  181.70        2953.25           1266          47.00       172.19
  181.74        2953.50           1269          54.00       202.70
  181.77        2953.75           1272          49.00       180.91
  181.80        2954.00           1276          44.00       159.11
  181.83        2954.25           1279          50.00       185.27
  181.86        2954.50           1282          45.00       163.47
  181.89        2954.75           1286          53.00       198.34
  181.92        2955.00           1289          45.00       163.47
  181.95        2955.25           1292          57.00       215.78
  181.98        2955.50           1296          54.00       202.70
  182.01        2955.75           1299          51.00       189.63
  182.04        2956.00           1302          49.00       180.91
  182.07        2956.25           1306          51.00       189.63
  182.10        2956.50           1309          46.00       167.83
  182.14        2956.75           1312          46.00       167.83
  182.17        2957.00           1316          52.00       193.99
  182.20        2957.25           1319          50.00       185.27
  182.23        2957.50           1322          50.00       185.27
  182.26        2957.75           1326          51.00       189.63
  182.29        2958.00           1329          50.00       185.27
  182.32        2958.25           1332          52.00       193.99
  182.35        2958.50           1336          56.00       211.42
  182.38        2958.75           1339          48.00       176.55
  182.41        2959.00           1342          42.00       150.39
  182.44        2959.25           1346          52.00       193.99
  182.47        2959.50           1349          51.00       189.63
  182.50        2959.75           1352          53.00       198.34
  182.53        2960.00           1356          71.00       276.81
  182.56        2960.25           1359          91.00       364.00
  182.59        2960.50           1362         121.00       494.78
  182.63        2960.75           1366         158.00       656.07
  182.66        2961.00           1369         196.00       821.73
  182.69        2961.25           1372         224.00       943.79
  182.72        2961.50           1376         269.00      1139.97
  182.75        2961.75           1379         343.00      1462.58
  182.78        2962.00           1382         615.00      2648.42
  182.81        2962.25           1386        1756.00      7623.80
  182.84        2962.50           1389        2964.00     12892.95
  182.87        2962.75           1392        4138.00     18015.40
  182.90        2963.00           1396        5667.00     24689.16
  182.93        2963.25           1399        6932.00     30212.64
  182.96        2963.50           1402        8174.00     35637.47
  182.99        2963.75           1406        9855.00     42982.60
  183.03        2964.00           1409       11168.00     48721.99
  183.06        2964.25           1412       12562.00     54817.63
  183.09        2964.50           1416       14020.00     61195.50
  183.12        2964.75           1419       15402.00     67243.18
  183.15        2965.00           1422       16638.00     72653.83
  183.18        2965.25           1426       18187.00     79437.13
  183.21        2965.50           1429       19626.00     85741.19
  183.24        2965.75           1432       20886.00     91263.05
  183.27        2966.00           1436       22419.00     97983.77
  183.31        2966.25           1439       23689.00    103553.60
  183.34        2966.50           1442       24722.00    108085.30
  183.37        2966.75           1446       26289.00    114962.10
  183.40        2967.00           1449       26692.00    116731.10
  183.43        2967.25           1452       26699.00    116761.80
  183.46        2967.50           1456       26637.00    116489.70
  183.49        2967.75           1459       26869.00    117508.10
  183.52        2968.00           1462       26800.00    117205.20
  183.55        2968.25           1466       26258.00    114826.00
  183.58        2968.50           1469       25236.00    110340.70
  183.61        2968.75           1472       24121.00    105448.60
  183.64        2969.00           1476       22423.00     98001.31
  183.68        2969.25           1479       21361.00     93345.16
  183.71        2969.50           1482       20189.00     88208.28
  183.74        2969.75           1486       18506.00     80834.41
  183.77        2970.00           1489       17254.00     75351.05
  183.80        2970.25           1492       16110.00     70342.27
  183.83        2970.50           1496       14357.00     62670.03
  183.86        2970.75           1499       13230.00     57739.42
  183.89        2971.00           1502       11928.00     52045.02
  183.92        2971.25           1506       10350.00     45146.11
  183.96        2971.50           1509        9091.00     39643.90
  183.99        2971.75           1513        7604.00     33147.60
  184.02        2972.00           1516        6381.00     27806.54
  184.05        2972.25           1519        5042.00     21960.85
  184.08        2972.50           1523        3473.00     15113.65
  184.11        2972.75           1526        2303.00     10009.54
  184.14        2973.00           1529        1144.00      4954.97
  184.17        2973.25           1533         477.00      2046.77
  184.20        2973.50           1536         314.00      1336.15
  184.23        2973.75           1539         273.00      1157.41
  184.26        2974.00           1543         238.00      1004.83
  184.30        2974.25           1546         190.00       795.57
  184.33        2974.50           1549         150.00       621.20
  184.36        2974.75           1553         109.00       442.46
  184.39        2975.00           1556          77.00       302.97
  184.42        2975.25           1559          64.00       246.30
  184.45        2975.50           1563          55.00       207.06
  184.48        2975.75           1566          46.00       167.83
  184.51        2976.00           1569          48.00       176.55
  184.54        2976.25           1573          48.00       176.55
  184.57        2976.50           1576          45.00       163.47
  184.60        2976.75           1579          52.00       193.99
  184.63        2977.00           1583          48.00       176.55
  184.66        2977.25           1586          43.00       154.75
  184.70        2977.50           1590          50.00       185.27
  184.73        2977.75           1593          53.00       198.34
  184.76        2978.00           1596          43.00       154.75
  184.79        2978.25           1600          42.00       150.39
  184.82        2978.50           1603          49.00       180.91
  184.85        2978.75           1606          45.00       163.47
  184.88        2979.00           1610          51.00       189.63
  184.91        2979.25           1613          40.00       141.67
  184.94        2979.50           1616          50.00       185.27
  184.97        2979.75           1620          59.00       224.50
  185.00        2980.00           1623          50.00       185.27
  185.04        2980.25           1626          48.00       176.55
  185.07        2980.50           1630          45.00       163.47
  185.10        2980.75           1633          41.00       146.03
  185.13        2981.00           1637          40.00       141.67
  185.16        2981.25           1640          46.00       167.83
  185.19        2981.50           1643          43.00       154.75
  185.22        2981.75           1647          41.00       146.03
  185.25        2982.00           1650          45.00       163.47
  185.28        2982.25           1653          51.00       189.63
  185.31        2982.50           1657          52.00       193.99
  185.34        2982.75           1660          48.00       176.55
  185.38        2983.00           1663          43.00       154.75
  185.41        2983.25           1667          46.00       167.83
  185.44        2983.50           1670          47.00       172.19
  185.47        2983.75           1673          48.00       176.55
  185.50        2984.00           1677          42.00       150.39
HS scan finished at 03:05:43
end
************************************************************
  HS Scan of (1) Internal mercury lamp
************************************************************
Integration time is 0.2294 seconds per sample
dh270918Manchester 53.47 2.23 2.857833pr1000
************************************************************
Dead Time -------------------------  3E-08 
Number of Cycles Used -------------  4 
Starting Wavelength (Angstroms) ---  2950 
Final Wavelength (Angstoms) -------  2984 
Wavelength Increment (Angstroms) --  .25 
Filter Wheel #1 Position ---------- (1) Ground quartz diffuser (ND=2.32)
Filter Wheel #2 Position ---------- (1) Neutral Density 0.494



************************************************************
HS scan start time = 18:42:04
Dark Count =  7.5 


Time (GMT)  Wavelength (Ang)  Step Number  Raw Counts  Counts/Second

 1122.43        2950.00           1222          50.00       185.27
 1122.50        2950.25           1226          53.00       198.34
 1122.53        2950.50           1229          50.00       185.27
 1122.56        2950.75           1232          56.00       211.42
 1122.59        2951.00           1236          52.00       193.99
 1122.62        2951.25           1239          49.00       180.91
 1122.65        2951.50           1242          49.00       180.91
 1122.68        2951.75           1246          50.00       185.27
 1122.72        2952.00           1249          54.00       202.70
 1122.75        2952.25           1252          61.00       233.22
 1122.78        2952.50           1256          45.00       163.47
 1122.81        2952.75           1259          63.00       241.94
 1122.84        2953.00           1262          56.00       211.42
 1122.87        2953.25           1266          47.00       172.19
 1122.90        2953.50           1269          51.00       189.63
 1122.93        2953.75           1272          49.00       180.91
 1122.96        2954.00           1276          50.00       185.27
 1122.99        2954.25           1279          52.00       193.99
 1123.03        2954.50           1282          39.00       137.32
 1123.06        2954.75           1286          43.00       154.75
 1123.09        2955.00           1289          49.00       180.91
 1123.12        2955.25           1292          62.00       237.58
 1123.15        2955.50           1296          47.00       172.19
 1123.18        2955.75           1299          45.00       163.47
 1123.21        2956.00           1302          46.00       167.83
 1123.24        2956.25           1306          54.00       202.70
 1123.27        2956.50           1309          50.00       185.27
 1123.30        2956.75           1312          53.00       198.34
 1123.33        2957.00           1316          54.00       202.70
 1123.36        2957.25           1319          50.00       185.27
 1123.39        2957.50           1322          58.00       220.14
 1123.43        2957.75           1326          50.00       185.27
 1123.46        2958.00           1329          54.00       202.70
 1123.49        2958.25           1332          48.00       176.55
 1123.52        2958.50           1336          53.00       198.34
 1123.55        2958.75           1339          46.00       167.83
 1123.58        2959.00           1342          52.00       193.99
 1123.61        2959.25           1346          55.00       207.06
 1123.64        2959.50           1349          61.00       233.22
 1123.67        2959.75           1352          67.00       259.37
 1123.70        2960.00           1356          90.00       359.64
 1123.73        2960.25           1359         117.00       477.34
 1123.77        2960.50           1362         127.00       520.93
 1123.80        2960.75           1366         176.00       734.54
 1123.83        2961.00           1369         213.00       895.84
 1123.86        2961.25           1372         246.00      1039.70
 1123.89        2961.50           1376         290.00      1231.52
 1123.92        2961.75           1379         370.00      1580.28
 1123.95        2962.00           1382         677.00      2918.74
 1123.98        2962.25           1386        1783.00      7741.55
 1124.01        2962.50           1389        3057.00     13298.68
 1124.04        2962.75           1392        4266.00     18573.99
 1124.07        2963.00           1396        5937.00     25867.93
 1124.11        2963.25           1399        6968.00     30369.85
 1124.14        2963.50           1402        8161.00     35580.68
 1124.17        2963.75           1406        9699.00     42300.82
 1124.20        2964.00           1409       11071.00     48297.92
 1124.23        2964.25           1412       12320.00     53759.26
 1124.26        2964.50           1416       13955.00     60911.12
 1124.29        2964.75           1419       15069.00     65785.77
 1124.32        2965.00           1422       16366.00     71462.99
 1124.35        2965.25           1426       17927.00     78298.35
 1124.38        2965.50           1429       19333.00     84457.40
 1124.42        2965.75           1432       20428.00     89255.68
 1124.45        2966.00           1436       22187.00     96966.50
 1124.48        2966.25           1439       23219.00    101492.10
 1124.51        2966.50           1442       24363.00    106510.20
 1124.54        2966.75           1446       25625.00    112047.80
 1124.57        2967.00           1449       25896.00    113237.10
 1124.60        2967.25           1452       25827.00    112934.30
 1124.63        2967.50           1456       26031.00    113829.60
 1124.66        2967.75           1459       26065.00    113978.90
 1124.70        2968.00           1462       25771.00    112688.50
 1124.73        2968.25           1466       25401.00    111064.70
 1124.76        2968.50           1469       24340.00    106409.30
 1124.79        2968.75           1472       23108.00    101005.30
 1124.82        2969.00           1476       21576.00     94287.69
 1124.85        2969.25           1479       20474.00     89457.28
 1124.88        2969.50           1482       19369.00     84615.12
 1124.91        2969.75           1486       17683.00     77229.74
 1124.94        2970.00           1489       16495.00     72027.75
 1124.97        2970.25           1492       15369.00     67098.75
 1125.00        2970.50           1496       13941.00     60849.87
 1125.03        2970.75           1499       12594.00     54957.58
 1125.07        2971.00           1502       11497.00     50160.43
 1125.10        2971.25           1506        9904.00     43196.75
 1125.13        2971.50           1509        8472.00     36939.35
 1125.16        2971.75           1513        6951.00     30295.62
 1125.19        2972.00           1516        5776.00     25165.02
 1125.22        2972.25           1519        4556.00     19839.62
 1125.25        2972.50           1523        3188.00     13870.20
 1125.28        2972.75           1526        2027.00      8805.73
 1125.31        2973.00           1529        1051.00      4549.44
 1125.35        2973.25           1533         403.00      1724.15
 1125.38        2973.50           1536         265.00      1122.53
 1125.41        2973.75           1539         223.00       939.43
 1125.44        2974.00           1543         188.00       786.85
 1125.47        2974.25           1546         157.00       651.71
 1125.50        2974.50           1549         116.00       472.98
 1125.53        2974.75           1553          85.00       337.84
 1125.56        2975.00           1556          65.00       250.66
 1125.59        2975.25           1559          62.00       237.58
 1125.62        2975.50           1563          48.00       176.55
 1125.65        2975.75           1566          52.00       193.99
 1125.69        2976.00           1569          45.00       163.47
 1125.72        2976.25           1573          43.00       154.75
 1125.75        2976.50           1576          43.00       154.75
 1125.78        2976.75           1579          47.00       172.19
 1125.81        2977.00           1583          45.00       163.47
 1125.84        2977.25           1586          49.00       180.91
 1125.87        2977.50           1590          48.00       176.55
 1125.90        2977.75           1593          53.00       198.34
 1125.93        2978.00           1596          45.00       163.47
 1125.96        2978.25           1600          51.00       189.63
 1126.00        2978.50           1603          44.00       159.11
 1126.03        2978.75           1606          41.00       146.03
 1126.06        2979.00           1610          50.00       185.27
 1126.09        2979.25           1613          50.00       185.27
 1126.12        2979.50           1616          52.00       193.99
 1126.15        2979.75           1620          54.00       202.70
 1126.18        2980.00           1623          41.00       146.03
 1126.21        2980.25           1626          53.00       198.34
 1126.24        2980.50           1630          41.00       146.03
 1126.27        2980.75           1633          45.00       163.47
 1126.30        2981.00           1637          49.00       180.91
 1126.34        2981.25           1640          41.00       146.03
 1126.37        2981.50           1643          46.00       167.83
 1126.40        2981.75           1647          48.00       176.55
 1126.43        2982.00           1650          45.00       163.47
 1126.46        2982.25           1653          52.00       193.99
 1126.49        2982.50           1657          47.00       172.19
 1126.52        2982.75           1660          44.00       159.11
 1126.55        2983.00           1663          45.00       163.47
 1126.58        2983.25           1667          44.00       159.11
 1126.61        2983.50           1670          43.00       154.75
 1126.64        2983.75           1673          44.00       159.11
 1126.68        2984.00           1677          38.00       132.96
HS scan finished at 18:46:54
end
