************************************************************
  HS Scan of (1) Internal mercury lamp
************************************************************
Integration time is 0.2294 seconds per sample
dh011018Manchester 53.47 2.23 2.804185pr1000
************************************************************
Dead Time -------------------------  3E-08 
Number of Cycles Used -------------  4 
Starting Wavelength (Angstroms) ---  2950 
Final Wavelength (Angstoms) -------  2984 
Wavelength Increment (Angstroms) --  .25 
Filter Wheel #1 Position ---------- (1) Ground quartz diffuser (ND=2.32)
Filter Wheel #2 Position ---------- (1) Neutral Density 0.494



************************************************************
HS scan start time = 03:11:36
Dark Count =  5 


Time (GMT)  Wavelength (Ang)  Step Number  Raw Counts  Counts/Second

  191.97        2950.00           1222          55.00       217.96
  192.03        2950.25           1226          45.00       174.37
  192.07        2950.50           1229          51.00       200.52
  192.10        2950.75           1232          55.00       217.96
  192.13        2951.00           1236          51.00       200.52
  192.16        2951.25           1239          47.00       183.09
  192.19        2951.50           1242          55.00       217.96
  192.22        2951.75           1246          56.00       222.32
  192.25        2952.00           1249          49.00       191.81
  192.28        2952.25           1252          46.00       178.73
  192.31        2952.50           1256          51.00       200.52
  192.34        2952.75           1259          48.00       187.45
  192.37        2953.00           1262          49.00       191.81
  192.40        2953.25           1266          51.00       200.52
  192.43        2953.50           1269          44.00       170.01
  192.46        2953.75           1272          45.00       174.37
  192.50        2954.00           1276          54.00       213.60
  192.53        2954.25           1279          49.00       191.81
  192.56        2954.50           1282          48.00       187.45
  192.59        2954.75           1286          51.00       200.52
  192.62        2955.00           1289          45.00       174.37
  192.65        2955.25           1292          45.00       174.37
  192.68        2955.50           1296          50.00       196.17
  192.71        2955.75           1299          48.00       187.45
  192.74        2956.00           1302          50.00       196.17
  192.77        2956.25           1306          41.00       156.93
  192.80        2956.50           1309          43.00       165.65
  192.83        2956.75           1312          50.00       196.17
  192.86        2957.00           1316          62.00       248.48
  192.89        2957.25           1319          45.00       174.37
  192.92        2957.50           1322          53.00       209.24
  192.96        2957.75           1326          48.00       187.45
  192.99        2958.00           1329          48.00       187.45
  193.02        2958.25           1332          46.00       178.73
  193.05        2958.50           1336          54.00       213.60
  193.08        2958.75           1339          53.00       209.24
  193.11        2959.00           1342          51.00       200.52
  193.14        2959.25           1346          56.00       222.32
  193.17        2959.50           1349          54.00       213.60
  193.20        2959.75           1352          53.00       209.24
  193.23        2960.00           1356          61.00       244.12
  193.26        2960.25           1359          88.00       361.82
  193.29        2960.50           1362         119.00       496.96
  193.32        2960.75           1366         166.00       701.85
  193.35        2961.00           1369         210.00       893.66
  193.39        2961.25           1372         196.00       832.63
  193.42        2961.50           1376         272.00      1163.95
  193.45        2961.75           1379         373.00      1604.26
  193.48        2962.00           1382         701.00      3034.28
  193.51        2962.25           1386        1991.00      8659.62
  193.54        2962.50           1389        3061.00     13327.04
  193.57        2962.75           1392        4175.00     18187.78
  193.60        2963.00           1396        5929.00     25843.92
  193.63        2963.25           1399        7088.00     30904.84
  193.66        2963.50           1402        8215.00     35827.51
  193.69        2963.75           1406        9796.00     42735.67
  193.73        2964.00           1409       10986.00     47937.24
  193.76        2964.25           1412       12260.00     53507.80
  193.79        2964.50           1416       13840.00     60418.92
  193.82        2964.75           1419       15058.00     65748.56
  193.85        2965.00           1422       16379.00     71530.85
  193.88        2965.25           1426       18044.00     78821.75
  193.91        2965.50           1429       19330.00     84455.21
  193.94        2965.75           1432       20493.00     89551.52
  193.97        2966.00           1436       21991.00     96118.09
  194.00        2966.25           1439       23100.00    100981.10
  194.03        2966.50           1442       24060.00    105191.90
  194.07        2966.75           1446       25487.00    111453.10
  194.10        2967.00           1449       25887.00    113208.60
  194.13        2967.25           1452       25773.00    112708.30
  194.16        2967.50           1456       25733.00    112532.70
  194.19        2967.75           1459       25917.00    113340.30
  194.22        2968.00           1462       25734.00    112537.10
  194.25        2968.25           1466       24941.00    109057.20
  194.28        2968.50           1469       24006.00    104955.10
  194.31        2968.75           1472       22831.00     99801.41
  194.34        2969.00           1476       21321.00     93180.78
  194.37        2969.25           1479       20082.00     87750.31
  194.41        2969.50           1482       18975.00     82899.90
  194.44        2969.75           1486       17414.00     76062.66
  194.47        2970.00           1489       16172.00     70624.63
  194.50        2970.25           1492       14950.00     65275.92
  194.53        2970.50           1496       13383.00     58419.65
  194.56        2970.75           1499       12109.00     52847.46
  194.59        2971.00           1502       10932.00     47701.17
  194.62        2971.25           1506        9309.00     40607.42
  194.65        2971.50           1509        8188.00     35709.55
  194.68        2971.75           1513        6500.00     28337.07
  194.71        2972.00           1516        5369.00     23399.16
  194.75        2972.25           1519        4236.00     18453.98
  194.78        2972.50           1523        2691.00     11712.92
  194.81        2972.75           1526        1646.00      7154.98
  194.84        2973.00           1529         779.00      3374.36
  194.87        2973.25           1533         367.00      1578.10
  194.90        2973.50           1536         271.00      1159.59
  194.93        2973.75           1539         245.00      1046.24
  194.96        2974.00           1543         189.00       802.11
  195.00        2974.25           1546         161.00       680.05
  195.03        2974.50           1549         125.00       523.11
  195.06        2974.75           1553          92.00       379.25
  195.09        2975.00           1556          70.00       283.35
  195.12        2975.25           1559          53.00       209.24
  195.15        2975.50           1563          60.00       239.76
  195.18        2975.75           1566          55.00       217.96
  195.21        2976.00           1569          48.00       187.45
  195.24        2976.25           1573          51.00       200.52
  195.27        2976.50           1576          46.00       178.73
  195.30        2976.75           1579          48.00       187.45
  195.33        2977.00           1583          45.00       174.37
  195.36        2977.25           1586          47.00       183.09
  195.40        2977.50           1590          61.00       244.12
  195.43        2977.75           1593          49.00       191.81
  195.46        2978.00           1596          46.00       178.73
  195.49        2978.25           1600          53.00       209.24
  195.52        2978.50           1603          50.00       196.17
  195.55        2978.75           1606          49.00       191.81
  195.58        2979.00           1610          47.00       183.09
  195.61        2979.25           1613          47.00       183.09
  195.64        2979.50           1616          48.00       187.45
  195.67        2979.75           1620          48.00       187.45
  195.70        2980.00           1623          44.00       170.01
  195.74        2980.25           1626          57.00       226.68
  195.77        2980.50           1630          47.00       183.09
  195.80        2980.75           1633          45.00       174.37
  195.83        2981.00           1637          45.00       174.37
  195.86        2981.25           1640          47.00       183.09
  195.89        2981.50           1643          41.00       156.93
  195.92        2981.75           1647          44.00       170.01
  195.95        2982.00           1650          44.00       170.01
  195.98        2982.25           1653          39.00       148.21
  196.01        2982.50           1657          43.00       165.65
  196.04        2982.75           1660          44.00       170.01
  196.07        2983.00           1663          41.00       156.93
  196.10        2983.25           1667          44.00       170.01
  196.13        2983.50           1670          41.00       156.93
  196.17        2983.75           1673          42.00       161.29
  196.20        2984.00           1677          48.00       187.45
HS scan finished at 03:16:25
end
************************************************************
  HS Scan of (1) Internal mercury lamp
************************************************************
Integration time is 0.2294 seconds per sample
dh011018Manchester 53.47 2.23 2.804185pr1000
************************************************************
Dead Time -------------------------  3E-08 
Number of Cycles Used -------------  4 
Starting Wavelength (Angstroms) ---  2950 
Final Wavelength (Angstoms) -------  2984 
Wavelength Increment (Angstroms) --  .25 
Filter Wheel #1 Position ---------- (1) Ground quartz diffuser (ND=2.32)
Filter Wheel #2 Position ---------- (1) Neutral Density 0.494



************************************************************
HS scan start time = 18:42:03
Dark Count =  5.7 


Time (GMT)  Wavelength (Ang)  Step Number  Raw Counts  Counts/Second

 1122.42        2950.00           1222          52.00       201.83
 1122.48        2950.25           1226          55.00       214.91
 1122.52        2950.50           1229          47.00       180.04
 1122.55        2950.75           1232          55.00       214.91
 1122.58        2951.00           1236          43.00       162.60
 1122.61        2951.25           1239          66.00       262.86
 1122.64        2951.50           1242          59.00       232.35
 1122.67        2951.75           1246          47.00       180.04
 1122.70        2952.00           1249          45.00       171.32
 1122.73        2952.25           1252          53.00       206.19
 1122.76        2952.50           1256          49.00       188.75
 1122.79        2952.75           1259          51.00       197.47
 1122.82        2953.00           1262          52.00       201.83
 1122.85        2953.25           1266          48.00       184.40
 1122.88        2953.50           1269          52.00       201.83
 1122.91        2953.75           1272          58.00       227.99
 1122.95        2954.00           1276          56.00       219.27
 1122.98        2954.25           1279          56.00       219.27
 1123.01        2954.50           1282          57.00       223.63
 1123.04        2954.75           1286          54.00       210.55
 1123.07        2955.00           1289          49.00       188.75
 1123.10        2955.25           1292          50.00       193.11
 1123.13        2955.50           1296          49.00       188.75
 1123.16        2955.75           1299          47.00       180.04
 1123.19        2956.00           1302          51.00       197.47
 1123.22        2956.25           1306          53.00       206.19
 1123.25        2956.50           1309          47.00       180.04
 1123.28        2956.75           1312          48.00       184.40
 1123.31        2957.00           1316          47.00       180.04
 1123.35        2957.25           1319          48.00       184.40
 1123.38        2957.50           1322          44.00       166.96
 1123.41        2957.75           1326          43.00       162.60
 1123.44        2958.00           1329          48.00       184.40
 1123.47        2958.25           1332          63.00       249.78
 1123.50        2958.50           1336          44.00       166.96
 1123.53        2958.75           1339          50.00       193.11
 1123.56        2959.00           1342          54.00       210.55
 1123.59        2959.25           1346          61.00       241.07
 1123.62        2959.50           1349          58.00       227.99
 1123.65        2959.75           1352          75.00       302.10
 1123.69        2960.00           1356         110.00       454.67
 1123.72        2960.25           1359         120.00       498.26
 1123.75        2960.50           1362         158.00       663.92
 1123.78        2960.75           1366         185.00       781.62
 1123.81        2961.00           1369         234.00       995.23
 1123.84        2961.25           1372         246.00      1047.55
 1123.87        2961.50           1376         302.00      1291.68
 1123.90        2961.75           1379         379.00      1627.37
 1123.93        2962.00           1382         783.00      3388.75
 1123.96        2962.25           1386        2006.00      8721.99
 1123.99        2962.50           1389        3241.00     14109.28
 1124.02        2962.75           1392        4364.00     19009.53
 1124.06        2963.00           1396        5946.00     25915.08
 1124.09        2963.25           1399        7012.00     30569.87
 1124.12        2963.50           1402        8421.00     36724.40
 1124.15        2963.75           1406        9925.00     43296.39
 1124.18        2964.00           1409       11119.00     48515.64
 1124.21        2964.25           1412       12333.00     53823.98
 1124.24        2964.50           1416       13894.00     60652.11
 1124.27        2964.75           1419       15044.00     65684.24
 1124.30        2965.00           1422       16384.00     71549.66
 1124.33        2965.25           1426       17931.00     78323.76
 1124.37        2965.50           1429       19131.00     83580.28
 1124.40        2965.75           1432       20288.00     88650.02
 1124.43        2966.00           1436       21825.00     95387.22
 1124.46        2966.25           1439       22893.00    100070.20
 1124.49        2966.50           1442       23972.00    104802.80
 1124.52        2966.75           1446       25277.00    110528.50
 1124.55        2967.00           1449       25831.00    112959.70
 1124.58        2967.25           1452       25780.00    112735.90
 1124.61        2967.50           1456       25835.00    112977.30
 1124.64        2967.75           1459       25957.00    113512.80
 1124.67        2968.00           1462       25667.00    112240.00
 1124.71        2968.25           1466       25120.00    109839.60
 1124.74        2968.50           1469       24118.00    105443.30
 1124.77        2968.75           1472       22973.00    100421.10
 1124.80        2969.00           1476       21575.00     94291.21
 1124.83        2969.25           1479       20355.00     88943.64
 1124.86        2969.50           1482       19071.00     83317.43
 1124.89        2969.75           1486       17533.00     76580.71
 1124.92        2970.00           1489       16421.00     71711.66
 1124.96        2970.25           1492       15201.00     66371.35
 1124.99        2970.50           1496       13825.00     60350.23
 1125.02        2970.75           1499       12561.00     54821.13
 1125.05        2971.00           1502       11347.00     49512.46
 1125.08        2971.25           1506        9590.00     41832.33
 1125.11        2971.50           1509        8443.00     36820.51
 1125.14        2971.75           1513        7021.00     30609.18
 1125.17        2972.00           1516        5763.00     25116.13
 1125.20        2972.25           1519        4613.00     20096.25
 1125.23        2972.50           1523        3061.00     13323.98
 1125.26        2972.75           1526        1973.00      8578.06
 1125.30        2973.00           1529         958.00      4151.78
 1125.33        2973.25           1533         351.00      1505.30
 1125.36        2973.50           1536         248.00      1056.27
 1125.39        2973.75           1539         206.00       873.17
 1125.42        2974.00           1543         182.00       768.54
 1125.45        2974.25           1546         134.00       559.29
 1125.48        2974.50           1549          87.00       354.41
 1125.51        2974.75           1553          76.00       306.45
 1125.54        2975.00           1556          50.00       193.11
 1125.57        2975.25           1559          62.00       245.42
 1125.61        2975.50           1563          42.00       158.24
 1125.64        2975.75           1566          48.00       184.40
 1125.67        2976.00           1569          45.00       171.32
 1125.70        2976.25           1573          52.00       201.83
 1125.73        2976.50           1576          47.00       180.04
 1125.76        2976.75           1579          50.00       193.11
 1125.79        2977.00           1583          49.00       188.75
 1125.82        2977.25           1586          55.00       214.91
 1125.85        2977.50           1590          48.00       184.40
 1125.88        2977.75           1593          49.00       188.75
 1125.91        2978.00           1596          53.00       206.19
 1125.94        2978.25           1600          48.00       184.40
 1125.97        2978.50           1603          41.00       153.88
 1126.00        2978.75           1606          47.00       180.04
 1126.03        2979.00           1610          45.00       171.32
 1126.07        2979.25           1613          47.00       180.04
 1126.10        2979.50           1616          52.00       201.83
 1126.13        2979.75           1620          42.00       158.24
 1126.16        2980.00           1623          48.00       184.40
 1126.19        2980.25           1626          47.00       180.04
 1126.22        2980.50           1630          47.00       180.04
 1126.25        2980.75           1633          43.00       162.60
 1126.28        2981.00           1637          47.00       180.04
 1126.31        2981.25           1640          49.00       188.75
 1126.34        2981.50           1643          48.00       184.40
 1126.37        2981.75           1647          47.00       180.04
 1126.41        2982.00           1650          48.00       184.40
 1126.44        2982.25           1653          46.00       175.68
 1126.47        2982.50           1657          45.00       171.32
 1126.50        2982.75           1660          41.00       153.88
 1126.53        2983.00           1663          47.00       180.04
 1126.56        2983.25           1667          40.00       149.52
 1126.59        2983.50           1670          46.00       175.68
 1126.62        2983.75           1673          48.00       184.40
 1126.65        2984.00           1677          48.00       184.40
HS scan finished at 18:46:52
end
