************************************************************
  HS Scan of (1) Internal mercury lamp
************************************************************
Integration time is 0.2294 seconds per sample
dh041018Manchester 53.47 2.23 2.804185pr1000
************************************************************
Dead Time -------------------------  3E-08 
Number of Cycles Used -------------  4 
Starting Wavelength (Angstroms) ---  2950 
Final Wavelength (Angstoms) -------  2984 
Wavelength Increment (Angstroms) --  .25 
Filter Wheel #1 Position ---------- (1) Ground quartz diffuser (ND=2.32)
Filter Wheel #2 Position ---------- (1) Neutral Density 0.494



************************************************************
HS scan start time = 03:21:01
Dark Count =  7.7 


Time (GMT)  Wavelength (Ang)  Step Number  Raw Counts  Counts/Second

  201.38        2950.00           1222          51.00       188.75
  201.45        2950.25           1226          51.00       188.75
  201.48        2950.50           1229          51.00       188.75
  201.51        2950.75           1232          46.00       166.96
  201.54        2951.00           1236          49.00       180.04
  201.57        2951.25           1239          49.00       180.04
  201.60        2951.50           1242          48.00       175.68
  201.63        2951.75           1246          52.00       193.11
  201.66        2952.00           1249          41.00       145.16
  201.70        2952.25           1252          49.00       180.04
  201.73        2952.50           1256          55.00       206.19
  201.76        2952.75           1259          55.00       206.19
  201.79        2953.00           1262          55.00       206.19
  201.82        2953.25           1266          51.00       188.75
  201.85        2953.50           1269          44.00       158.24
  201.88        2953.75           1272          54.00       201.83
  201.91        2954.00           1276          52.00       193.11
  201.94        2954.25           1279          51.00       188.75
  201.97        2954.50           1282          43.00       153.88
  202.00        2954.75           1286          50.00       184.40
  202.03        2955.00           1289          59.00       223.63
  202.06        2955.25           1292          49.00       180.04
  202.10        2955.50           1296          55.00       206.19
  202.13        2955.75           1299          46.00       166.96
  202.16        2956.00           1302          54.00       201.83
  202.19        2956.25           1306          50.00       184.40
  202.22        2956.50           1309          46.00       166.96
  202.25        2956.75           1312          46.00       166.96
  202.28        2957.00           1316          54.00       201.83
  202.31        2957.25           1319          47.00       171.32
  202.34        2957.50           1322          55.00       206.19
  202.37        2957.75           1326          49.00       180.04
  202.41        2958.00           1329          47.00       171.32
  202.44        2958.25           1332          48.00       175.68
  202.47        2958.50           1336          52.00       193.11
  202.50        2958.75           1339          52.00       193.11
  202.53        2959.00           1342          56.00       210.55
  202.56        2959.25           1346          58.00       219.27
  202.59        2959.50           1349          65.00       249.78
  202.62        2959.75           1352          72.00       280.30
  202.65        2960.00           1356          91.00       363.13
  202.68        2960.25           1359         121.00       493.90
  202.71        2960.50           1362         143.00       589.81
  202.74        2960.75           1366         173.00       720.59
  202.77        2961.00           1369         214.00       899.33
  202.80        2961.25           1372         261.00      1104.22
  202.83        2961.50           1376         298.00      1265.52
  202.86        2961.75           1379         361.00      1540.18
  202.90        2962.00           1382         561.00      2412.12
  202.93        2962.25           1386        1465.00      6353.87
  202.96        2962.50           1389        2591.00     11264.92
  202.99        2962.75           1392        3762.00     16373.78
  203.02        2963.00           1396        5292.00     23051.25
  203.05        2963.25           1399        6582.00     28683.35
  203.08        2963.50           1402        7711.00     33614.10
  203.11        2963.75           1406        9462.00     41264.22
  203.14        2964.00           1409       10600.00     46238.03
  203.17        2964.25           1412       11805.00     51506.29
  203.20        2964.50           1416       13471.00     58792.80
  203.23        2964.75           1419       14697.00     64156.93
  203.27        2965.00           1422       15913.00     69479.02
  203.30        2965.25           1426       17506.00     76453.71
  203.33        2965.50           1429       18674.00     81569.47
  203.36        2965.75           1432       19919.00     87024.21
  203.39        2966.00           1436       21552.00     94181.60
  203.42        2966.25           1439       22832.00     99793.97
  203.45        2966.50           1442       23824.00    104144.80
  203.48        2966.75           1446       24990.00    109260.40
  203.51        2967.00           1449       25742.00    112560.40
  203.54        2967.25           1452       25878.00    113157.30
  203.57        2967.50           1456       25815.00    112880.80
  203.61        2967.75           1459       25886.00    113192.40
  203.64        2968.00           1462       25957.00    113504.00
  203.67        2968.25           1466       25492.00    111463.20
  203.70        2968.50           1469       24683.00    107913.30
  203.73        2968.75           1472       23550.00    102943.00
  203.76        2969.00           1476       21978.00     96049.25
  203.79        2969.25           1479       20709.00     90486.38
  203.82        2969.50           1482       19727.00     86182.88
  203.85        2969.75           1486       18038.00     78783.63
  203.89        2970.00           1489       16792.00     73327.23
  203.92        2970.25           1492       15711.00     68594.81
  203.95        2970.50           1496       14034.00     61255.89
  203.98        2970.75           1499       13008.00     56767.48
  204.01        2971.00           1502       11728.00     51169.60
  204.04        2971.25           1506       10215.00     44555.16
  204.07        2971.50           1509        8904.00     38825.93
  204.10        2971.75           1513        7473.00     32574.54
  204.13        2972.00           1516        6288.00     27399.58
  204.16        2972.25           1519        4932.00     21479.84
  204.20        2972.50           1523        3351.00     14580.48
  204.23        2972.75           1526        2247.00      9764.41
  204.26        2973.00           1529        1148.00      4971.54
  204.29        2973.25           1533         431.00      1845.35
  204.32        2973.50           1536         280.00      1187.05
  204.35        2973.75           1539         218.00       916.76
  204.38        2974.00           1543         179.00       746.75
  204.41        2974.25           1546         137.00       563.65
  204.44        2974.50           1549         102.00       411.08
  204.47        2974.75           1553          76.00       297.74
  204.50        2975.00           1556          74.00       289.02
  204.54        2975.25           1559          47.00       171.32
  204.57        2975.50           1563          49.00       180.04
  204.60        2975.75           1566          46.00       166.96
  204.63        2976.00           1569          43.00       153.88
  204.66        2976.25           1573          54.00       201.83
  204.69        2976.50           1576          57.00       214.91
  204.72        2976.75           1579          51.00       188.75
  204.75        2977.00           1583          50.00       184.40
  204.78        2977.25           1586          47.00       171.32
  204.81        2977.50           1590          46.00       166.96
  204.84        2977.75           1593          46.00       166.96
  204.87        2978.00           1596          55.00       206.19
  204.90        2978.25           1600          47.00       171.32
  204.93        2978.50           1603          45.00       162.60
  204.96        2978.75           1606          44.00       158.24
  204.99        2979.00           1610          42.00       149.52
  205.02        2979.25           1613          47.00       171.32
  205.06        2979.50           1616          44.00       158.24
  205.09        2979.75           1620          45.00       162.60
  205.12        2980.00           1623          45.00       162.60
  205.15        2980.25           1626          42.00       149.52
  205.18        2980.50           1630          48.00       175.68
  205.21        2980.75           1633          40.00       140.80
  205.24        2981.00           1637          45.00       162.60
  205.27        2981.25           1640          46.00       166.96
  205.30        2981.50           1643          42.00       149.52
  205.33        2981.75           1647          46.00       166.96
  205.36        2982.00           1650          52.00       193.11
  205.40        2982.25           1653          46.00       166.96
  205.43        2982.50           1657          47.00       171.32
  205.46        2982.75           1660          46.00       166.96
  205.49        2983.00           1663          37.00       127.72
  205.52        2983.25           1667          44.00       158.24
  205.55        2983.50           1670          45.00       162.60
  205.58        2983.75           1673          41.00       145.16
  205.61        2984.00           1677          38.00       132.08
HS scan finished at 03:25:50
end
************************************************************
  HS Scan of (1) Internal mercury lamp
************************************************************
Integration time is 0.2294 seconds per sample
dh041018Manchester 53.47 2.23 2.857833pr1000
************************************************************
Dead Time -------------------------  3E-08 
Number of Cycles Used -------------  4 
Starting Wavelength (Angstroms) ---  2950 
Final Wavelength (Angstoms) -------  2984 
Wavelength Increment (Angstroms) --  .25 
Filter Wheel #1 Position ---------- (1) Ground quartz diffuser (ND=2.32)
Filter Wheel #2 Position ---------- (1) Neutral Density 0.494



************************************************************
HS scan start time = 18:41:59
Dark Count =  8 


Time (GMT)  Wavelength (Ang)  Step Number  Raw Counts  Counts/Second

 1122.36        2950.00           1222          55.00       204.88
 1122.42        2950.25           1226          59.00       222.32
 1122.45        2950.50           1229          58.00       217.96
 1122.48        2950.75           1232          50.00       183.09
 1122.51        2951.00           1236          51.00       187.45
 1122.55        2951.25           1239          48.00       174.37
 1122.58        2951.50           1242          55.00       204.88
 1122.61        2951.75           1246          41.00       143.85
 1122.64        2952.00           1249          58.00       217.96
 1122.67        2952.25           1252          53.00       196.17
 1122.70        2952.50           1256          56.00       209.24
 1122.73        2952.75           1259          49.00       178.73
 1122.76        2953.00           1262          54.00       200.52
 1122.79        2953.25           1266          47.00       170.01
 1122.82        2953.50           1269          57.00       213.60
 1122.85        2953.75           1272          55.00       204.88
 1122.88        2954.00           1276          48.00       174.37
 1122.92        2954.25           1279          46.00       165.65
 1122.95        2954.50           1282          51.00       187.45
 1122.98        2954.75           1286          51.00       187.45
 1123.01        2955.00           1289          49.00       178.73
 1123.04        2955.25           1292          55.00       204.88
 1123.07        2955.50           1296          54.00       200.52
 1123.10        2955.75           1299          50.00       183.09
 1123.13        2956.00           1302          50.00       183.09
 1123.16        2956.25           1306          41.00       143.85
 1123.19        2956.50           1309          47.00       170.01
 1123.22        2956.75           1312          52.00       191.81
 1123.25        2957.00           1316          48.00       174.37
 1123.28        2957.25           1319          51.00       187.45
 1123.31        2957.50           1322          48.00       174.37
 1123.34        2957.75           1326          47.00       170.01
 1123.38        2958.00           1329          54.00       200.52
 1123.41        2958.25           1332          55.00       204.88
 1123.44        2958.50           1336          46.00       165.65
 1123.47        2958.75           1339          49.00       178.73
 1123.50        2959.00           1342          61.00       231.04
 1123.53        2959.25           1346          54.00       200.52
 1123.56        2959.50           1349          58.00       217.96
 1123.59        2959.75           1352          84.00       331.30
 1123.62        2960.00           1356         115.00       466.44
 1123.65        2960.25           1359         123.00       501.32
 1123.68        2960.50           1362         165.00       684.41
 1123.71        2960.75           1366         198.00       828.27
 1123.74        2961.00           1369         234.00       985.21
 1123.77        2961.25           1372         251.00      1059.32
 1123.80        2961.50           1376         309.00      1312.17
 1123.84        2961.75           1379         445.00      1905.08
 1123.87        2962.00           1382         935.00      4041.47
 1123.90        2962.25           1386        2287.00      9937.57
 1123.93        2962.50           1389        3538.00     15395.08
 1123.96        2962.75           1392        4626.00     20142.95
 1123.99        2963.00           1396        6137.00     26738.97
 1124.02        2963.25           1399        7331.00     31953.02
 1124.05        2963.50           1402        8645.00     37692.99
 1124.08        2963.75           1406       10165.00     44335.31
 1124.11        2964.00           1409       11532.00     50311.28
 1124.14        2964.25           1412       12816.00     55926.37
 1124.17        2964.50           1416       14412.00     62908.50
 1124.21        2964.75           1419       15772.00     68860.50
 1124.24        2965.00           1422       16910.00     73842.57
 1124.27        2965.25           1426       18482.00     80727.10
 1124.30        2965.50           1429       19742.00     86247.28
 1124.33        2965.75           1432       20826.00     90997.87
 1124.36        2966.00           1436       22446.00     98099.97
 1124.39        2966.25           1439       23734.00    103748.80
 1124.42        2966.50           1442       24604.00    107565.40
 1124.45        2966.75           1446       26083.00    114055.70
 1124.48        2967.00           1449       26432.00    115587.60
 1124.51        2967.25           1452       26508.00    115921.20
 1124.55        2967.50           1456       26537.00    116048.50
 1124.58        2967.75           1459       26399.00    115442.70
 1124.61        2968.00           1462       26373.00    115328.60
 1124.64        2968.25           1466       25679.00    112282.60
 1124.67        2968.50           1469       24403.00    106683.50
 1124.70        2968.75           1472       23583.00    103086.40
 1124.73        2969.00           1476       21969.00     96008.49
 1124.76        2969.25           1479       20772.00     90761.18
 1124.79        2969.50           1482       19638.00     85791.58
 1124.83        2969.75           1486       17927.00     78296.16
 1124.86        2970.00           1489       16735.00     73076.33
 1124.89        2970.25           1492       15389.00     67184.10
 1124.92        2970.50           1496       13801.00     60235.17
 1124.95        2970.75           1499       12642.00     55165.33
 1124.98        2971.00           1502       11440.00     49909.02
 1125.01        2971.25           1506        9860.00     43002.26
 1125.04        2971.50           1509        8610.00     37540.08
 1125.07        2971.75           1513        7032.00     30647.17
 1125.11        2972.00           1516        5887.00     25647.45
 1125.14        2972.25           1519        4650.00     20247.69
 1125.17        2972.50           1523        3100.00     13484.09
 1125.20        2972.75           1526        1939.00      8419.74
 1125.23        2973.00           1529         859.00      3710.09
 1125.26        2973.25           1533         346.00      1473.47
 1125.29        2973.50           1536         268.00      1133.43
 1125.32        2973.75           1539         218.00       915.46
 1125.35        2974.00           1543         177.00       736.72
 1125.38        2974.25           1546         127.00       518.75
 1125.41        2974.50           1549          94.00       374.90
 1125.44        2974.75           1553          81.00       318.22
 1125.48        2975.00           1556          59.00       222.32
 1125.51        2975.25           1559          45.00       161.29
 1125.54        2975.50           1563          49.00       178.73
 1125.57        2975.75           1566          58.00       217.96
 1125.60        2976.00           1569          45.00       161.29
 1125.63        2976.25           1573          49.00       178.73
 1125.66        2976.50           1576          50.00       183.09
 1125.69        2976.75           1579          43.00       152.57
 1125.72        2977.00           1583          54.00       200.52
 1125.75        2977.25           1586          52.00       191.81
 1125.78        2977.50           1590          50.00       183.09
 1125.81        2977.75           1593          43.00       152.57
 1125.85        2978.00           1596          59.00       222.32
 1125.88        2978.25           1600          46.00       165.65
 1125.91        2978.50           1603          51.00       187.45
 1125.94        2978.75           1606          46.00       165.65
 1125.97        2979.00           1610          50.00       183.09
 1126.00        2979.25           1613          46.00       165.65
 1126.03        2979.50           1616          45.00       161.29
 1126.06        2979.75           1620          46.00       165.65
 1126.09        2980.00           1623          41.00       143.85
 1126.12        2980.25           1626          42.00       148.21
 1126.15        2980.50           1630          47.00       170.01
 1126.18        2980.75           1633          41.00       143.85
 1126.21        2981.00           1637          48.00       174.37
 1126.24        2981.25           1640          50.00       183.09
 1126.28        2981.50           1643          39.00       135.14
 1126.31        2981.75           1647          46.00       165.65
 1126.34        2982.00           1650          50.00       183.09
 1126.37        2982.25           1653          50.00       183.09
 1126.40        2982.50           1657          44.00       156.93
 1126.43        2982.75           1660          44.00       156.93
 1126.46        2983.00           1663          46.00       165.65
 1126.49        2983.25           1667          43.00       152.57
 1126.52        2983.50           1670          50.00       183.09
 1126.55        2983.75           1673          41.00       143.85
 1126.58        2984.00           1677          43.00       152.57
HS scan finished at 18:46:48
end
