************************************************************
  HS Scan of (1) Internal mercury lamp
************************************************************
Integration time is 0.2294 seconds per sample
dh061018Manchester 53.47 2.23 2.804185pr1000
************************************************************
Dead Time -------------------------  3E-08 
Number of Cycles Used -------------  4 
Starting Wavelength (Angstroms) ---  2950 
Final Wavelength (Angstoms) -------  2984 
Wavelength Increment (Angstroms) --  .25 
Filter Wheel #1 Position ---------- (1) Ground quartz diffuser (ND=2.32)
Filter Wheel #2 Position ---------- (1) Neutral Density 0.494



************************************************************
HS scan start time = 03:25:01
Dark Count =  6.5 


Time (GMT)  Wavelength (Ang)  Step Number  Raw Counts  Counts/Second

  205.39        2950.00           1222          44.00       163.47
  205.46        2950.25           1226          49.00       185.27
  205.49        2950.50           1229          56.00       215.78
  205.52        2950.75           1232          55.00       211.42
  205.55        2951.00           1236          48.00       180.91
  205.58        2951.25           1239          46.00       172.19
  205.61        2951.50           1242          45.00       167.83
  205.64        2951.75           1246          50.00       189.63
  205.67        2952.00           1249          49.00       185.27
  205.70        2952.25           1252          49.00       185.27
  205.73        2952.50           1256          50.00       189.63
  205.76        2952.75           1259          54.00       207.06
  205.79        2953.00           1262          52.00       198.34
  205.83        2953.25           1266          57.00       220.14
  205.86        2953.50           1269          53.00       202.70
  205.89        2953.75           1272          53.00       202.70
  205.92        2954.00           1276          49.00       185.27
  205.95        2954.25           1279          50.00       189.63
  205.98        2954.50           1282          45.00       167.83
  206.01        2954.75           1286          46.00       172.19
  206.04        2955.00           1289          49.00       185.27
  206.07        2955.25           1292          49.00       185.27
  206.10        2955.50           1296          53.00       202.70
  206.13        2955.75           1299          45.00       167.83
  206.16        2956.00           1302          47.00       176.55
  206.19        2956.25           1306          56.00       215.78
  206.23        2956.50           1309          57.00       220.14
  206.26        2956.75           1312          51.00       193.99
  206.29        2957.00           1316          49.00       185.27
  206.32        2957.25           1319          48.00       180.91
  206.35        2957.50           1322          47.00       176.55
  206.38        2957.75           1326          48.00       180.91
  206.41        2958.00           1329          54.00       207.06
  206.44        2958.25           1332          52.00       198.34
  206.47        2958.50           1336          47.00       176.55
  206.50        2958.75           1339          48.00       180.91
  206.53        2959.00           1342          48.00       180.91
  206.56        2959.25           1346          50.00       189.63
  206.59        2959.50           1349          66.00       259.37
  206.62        2959.75           1352          64.00       250.66
  206.65        2960.00           1356          95.00       385.79
  206.68        2960.25           1359         108.00       442.46
  206.72        2960.50           1362         138.00       573.24
  206.75        2960.75           1366         180.00       756.34
  206.78        2961.00           1369         220.00       930.71
  206.81        2961.25           1372         234.00       991.75
  206.84        2961.50           1376         284.00      1209.72
  206.87        2961.75           1379         366.00      1567.21
  206.90        2962.00           1382         708.00      3058.26
  206.93        2962.25           1386        1859.00      8077.37
  206.96        2962.50           1389        2976.00     12949.67
  207.00        2962.75           1392        4073.00     17736.12
  207.03        2963.00           1396        5685.00     24772.11
  207.06        2963.25           1399        6925.00     30186.44
  207.09        2963.50           1402        8013.00     34938.52
  207.12        2963.75           1406        9706.00     42335.78
  207.15        2964.00           1409       10829.00     47244.34
  207.18        2964.25           1412       12230.00     53370.04
  207.21        2964.50           1416       13915.00     60740.49
  207.24        2964.75           1419       14888.00     64998.03
  207.28        2965.00           1422       16188.00     70688.10
  207.31        2965.25           1426       17682.00     77229.74
  207.34        2965.50           1429       18943.00     82753.15
  207.37        2965.75           1432       20165.00     88107.47
  207.40        2966.00           1436       21869.00     95576.62
  207.43        2966.25           1439       22886.00    100036.10
  207.46        2966.50           1442       23908.00    104518.60
  207.49        2966.75           1446       25290.00    110582.00
  207.52        2967.00           1449       25579.00    111850.30
  207.56        2967.25           1452       25922.00    113355.60
  207.59        2967.50           1456       25863.00    113096.70
  207.62        2967.75           1459       25856.00    113066.00
  207.65        2968.00           1462       25705.00    112403.30
  207.68        2968.25           1466       25147.00    109954.50
  207.71        2968.50           1469       24166.00    105650.40
  207.74        2968.75           1472       23061.00    100803.50
  207.77        2969.00           1476       21450.00     93739.71
  207.80        2969.25           1479       20404.00     89154.88
  207.83        2969.50           1482       19088.00     83388.40
  207.87        2969.75           1486       17586.00     76809.31
  207.90        2970.00           1489       16400.00     71616.22
  207.93        2970.25           1492       15202.00     66372.23
  207.96        2970.50           1496       13649.00     59576.74
  207.99        2970.75           1499       12585.00     54922.59
  208.02        2971.00           1502       11494.00     50151.69
  208.05        2971.25           1506        9962.00     43454.61
  208.08        2971.50           1509        8664.00     37782.56
  208.11        2971.75           1513        7151.00     31173.43
  208.14        2972.00           1516        5773.00     25156.29
  208.17        2972.25           1519        4545.00     19795.97
  208.20        2972.50           1523        3069.00     13355.40
  208.24        2972.75           1526        1974.00      8578.93
  208.27        2973.00           1529         998.00      4322.71
  208.30        2973.25           1533         361.00      1545.41
  208.33        2973.50           1536         272.00      1157.41
  208.36        2973.75           1539         226.00       956.87
  208.39        2974.00           1543         181.00       760.70
  208.42        2974.25           1546         138.00       573.24
  208.45        2974.50           1549         109.00       446.82
  208.48        2974.75           1553          72.00       285.53
  208.51        2975.00           1556          56.00       215.78
  208.54        2975.25           1559          60.00       233.22
  208.57        2975.50           1563          58.00       224.50
  208.61        2975.75           1566          48.00       180.91
  208.64        2976.00           1569          51.00       193.99
  208.67        2976.25           1573          48.00       180.91
  208.70        2976.50           1576          44.00       163.47
  208.73        2976.75           1579          46.00       172.19
  208.76        2977.00           1583          59.00       228.86
  208.79        2977.25           1586          50.00       189.63
  208.82        2977.50           1590          51.00       193.99
  208.85        2977.75           1593          48.00       180.91
  208.88        2978.00           1596          42.00       154.75
  208.91        2978.25           1600          46.00       172.19
  208.94        2978.50           1603          45.00       167.83
  208.97        2978.75           1606          53.00       202.70
  209.00        2979.00           1610          43.00       159.11
  209.03        2979.25           1613          49.00       185.27
  209.07        2979.50           1616          50.00       189.63
  209.10        2979.75           1620          47.00       176.55
  209.13        2980.00           1623          45.00       167.83
  209.16        2980.25           1626          45.00       167.83
  209.19        2980.50           1630          53.00       202.70
  209.22        2980.75           1633          51.00       193.99
  209.25        2981.00           1637          46.00       172.19
  209.28        2981.25           1640          41.00       150.39
  209.31        2981.50           1643          46.00       172.19
  209.34        2981.75           1647          43.00       159.11
  209.37        2982.00           1650          46.00       172.19
  209.40        2982.25           1653          45.00       167.83
  209.44        2982.50           1657          45.00       167.83
  209.47        2982.75           1660          46.00       172.19
  209.50        2983.00           1663          49.00       185.27
  209.53        2983.25           1667          49.00       185.27
  209.56        2983.50           1670          43.00       159.11
  209.59        2983.75           1673          50.00       189.63
  209.62        2984.00           1677          44.00       163.47
HS scan finished at 03:29:50
end
************************************************************
  HS Scan of (1) Internal mercury lamp
************************************************************
Integration time is 0.2294 seconds per sample
dh061018Manchester 53.47 2.23 2.804185pr1000
************************************************************
Dead Time -------------------------  3E-08 
Number of Cycles Used -------------  4 
Starting Wavelength (Angstroms) ---  2950 
Final Wavelength (Angstoms) -------  2984 
Wavelength Increment (Angstroms) --  .25 
Filter Wheel #1 Position ---------- (1) Ground quartz diffuser (ND=2.32)
Filter Wheel #2 Position ---------- (1) Neutral Density 0.494



************************************************************
HS scan start time = 18:42:01
Dark Count =  6.4 


Time (GMT)  Wavelength (Ang)  Step Number  Raw Counts  Counts/Second

 1122.38        2950.00           1222          43.00       159.55
 1122.45        2950.25           1226          50.00       190.06
 1122.48        2950.50           1229          53.00       203.14
 1122.51        2950.75           1232          49.00       185.70
 1122.54        2951.00           1236          52.00       198.78
 1122.57        2951.25           1239          48.00       181.34
 1122.60        2951.50           1242          43.00       159.55
 1122.63        2951.75           1246          53.00       203.14
 1122.66        2952.00           1249          63.00       246.73
 1122.69        2952.25           1252          48.00       181.34
 1122.72        2952.50           1256          42.00       155.19
 1122.75        2952.75           1259          55.00       211.86
 1122.79        2953.00           1262          48.00       181.34
 1122.82        2953.25           1266          49.00       185.70
 1122.85        2953.50           1269          52.00       198.78
 1122.88        2953.75           1272          50.00       190.06
 1122.91        2954.00           1276          45.00       168.27
 1122.94        2954.25           1279          58.00       224.94
 1122.97        2954.50           1282          49.00       185.70
 1123.00        2954.75           1286          49.00       185.70
 1123.03        2955.00           1289          49.00       185.70
 1123.06        2955.25           1292          50.00       190.06
 1123.09        2955.50           1296          50.00       190.06
 1123.12        2955.75           1299          53.00       203.14
 1123.15        2956.00           1302          49.00       185.70
 1123.18        2956.25           1306          51.00       194.42
 1123.22        2956.50           1309          45.00       168.27
 1123.25        2956.75           1312          51.00       194.42
 1123.28        2957.00           1316          53.00       203.14
 1123.31        2957.25           1319          42.00       155.19
 1123.34        2957.50           1322          47.00       176.98
 1123.37        2957.75           1326          48.00       181.34
 1123.40        2958.00           1329          51.00       194.42
 1123.43        2958.25           1332          47.00       176.98
 1123.46        2958.50           1336          53.00       203.14
 1123.49        2958.75           1339          47.00       176.98
 1123.52        2959.00           1342          49.00       185.70
 1123.55        2959.25           1346          49.00       185.70
 1123.59        2959.50           1349          55.00       211.86
 1123.62        2959.75           1352          62.00       242.37
 1123.65        2960.00           1356          82.00       329.56
 1123.68        2960.25           1359         115.00       473.42
 1123.71        2960.50           1362         128.00       530.09
 1123.74        2960.75           1366         174.00       730.62
 1123.77        2961.00           1369         200.00       843.96
 1123.80        2961.25           1372         251.00      1066.29
 1123.83        2961.50           1376         301.00      1284.27
 1123.86        2961.75           1379         474.00      2038.49
 1123.89        2962.00           1382        1121.00      4859.47
 1123.92        2962.25           1386        2496.00     10856.19
 1123.95        2962.50           1389        3623.00     15772.94
 1123.98        2962.75           1392        4746.00     20673.67
 1124.02        2963.00           1396        6210.00     27064.69
 1124.05        2963.25           1399        7338.00     31990.59
 1124.08        2963.50           1402        8551.00     37289.29
 1124.11        2963.75           1406       10031.00     43756.62
 1124.14        2964.00           1409       11222.00     48962.89
 1124.17        2964.25           1412       12363.00     53952.12
 1124.20        2964.50           1416       14004.00     61130.32
 1124.23        2964.75           1419       15182.00     66285.13
 1124.26        2965.00           1422       16282.00     71100.06
 1124.30        2965.25           1426       18104.00     79078.40
 1124.33        2965.50           1429       19533.00     85338.52
 1124.36        2965.75           1432       20434.00     89286.80
 1124.39        2966.00           1436       22232.00     97168.62
 1124.42        2966.25           1439       23336.00    102010.10
 1124.45        2966.50           1442       24195.00    105778.00
 1124.48        2966.75           1446       25196.00    110170.00
 1124.51        2967.00           1449       25665.00    112228.10
 1124.54        2967.25           1452       25727.00    112500.20
 1124.58        2967.50           1456       25741.00    112561.70
 1124.61        2967.75           1459       25660.00    112206.20
 1124.64        2968.00           1462       25369.00    110929.10
 1124.67        2968.25           1466       24742.00    108177.90
 1124.70        2968.50           1469       23583.00    103093.40
 1124.73        2968.75           1472       22505.00     98365.69
 1124.76        2969.00           1476       21151.00     92429.44
 1124.79        2969.25           1479       19882.00     86867.75
 1124.82        2969.50           1482       18754.00     81925.61
 1124.85        2969.75           1486       17199.00     75115.03
 1124.89        2970.00           1489       16056.00     70110.69
 1124.92        2970.25           1492       14738.00     64342.04
 1124.95        2970.50           1496       13280.00     57962.96
 1124.98        2970.75           1499       12137.00     52963.78
 1125.01        2971.00           1502       10819.00     47201.06
 1125.04        2971.25           1506        9306.00     40588.19
 1125.07        2971.50           1509        8062.00     35153.01
 1125.10        2971.75           1513        6486.00     28269.83
 1125.13        2972.00           1516        5264.00     22934.70
 1125.17        2972.25           1519        4109.00     17893.65
 1125.20        2972.50           1523        2602.00     11318.58
 1125.23        2972.75           1526        1607.00      6978.79
 1125.26        2973.00           1529         692.00      2988.93
 1125.29        2973.25           1533         342.00      1463.01
 1125.32        2973.50           1536         265.00      1127.33
 1125.35        2973.75           1539         237.00      1005.26
 1125.38        2974.00           1543         192.00       809.09
 1125.41        2974.25           1546         147.00       612.91
 1125.44        2974.50           1549         111.00       455.98
 1125.47        2974.75           1553          78.00       312.12
 1125.51        2975.00           1556          62.00       242.37
 1125.54        2975.25           1559          51.00       194.42
 1125.57        2975.50           1563          56.00       216.22
 1125.60        2975.75           1566          49.00       185.70
 1125.63        2976.00           1569          45.00       168.27
 1125.66        2976.25           1573          54.00       207.50
 1125.69        2976.50           1576          53.00       203.14
 1125.72        2976.75           1579          42.00       155.19
 1125.75        2977.00           1583          48.00       181.34
 1125.78        2977.25           1586          53.00       203.14
 1125.81        2977.50           1590          47.00       176.98
 1125.84        2977.75           1593          45.00       168.27
 1125.87        2978.00           1596          46.00       172.63
 1125.90        2978.25           1600          51.00       194.42
 1125.93        2978.50           1603          48.00       181.34
 1125.97        2978.75           1606          50.00       190.06
 1126.00        2979.00           1610          56.00       216.22
 1126.03        2979.25           1613          47.00       176.98
 1126.06        2979.50           1616          48.00       181.34
 1126.09        2979.75           1620          58.00       224.94
 1126.12        2980.00           1623          46.00       172.63
 1126.15        2980.25           1626          49.00       185.70
 1126.18        2980.50           1630          41.00       150.83
 1126.21        2980.75           1633          46.00       172.63
 1126.24        2981.00           1637          45.00       168.27
 1126.27        2981.25           1640          44.00       163.91
 1126.30        2981.50           1643          47.00       176.98
 1126.34        2981.75           1647          46.00       172.63
 1126.37        2982.00           1650          43.00       159.55
 1126.40        2982.25           1653          47.00       176.98
 1126.43        2982.50           1657          46.00       172.63
 1126.46        2982.75           1660          50.00       190.06
 1126.49        2983.00           1663          50.00       190.06
 1126.52        2983.25           1667          52.00       198.78
 1126.55        2983.50           1670          52.00       198.78
 1126.58        2983.75           1673          51.00       194.42
 1126.61        2984.00           1677          44.00       163.91
HS scan finished at 18:46:50
end
