************************************************************
  HS Scan of (1) Internal mercury lamp
************************************************************
Integration time is 0.2294 seconds per sample
dh290918Manchester 53.47 2.23 2.804185pr1000
************************************************************
Dead Time -------------------------  3E-08 
Number of Cycles Used -------------  4 
Starting Wavelength (Angstroms) ---  2950 
Final Wavelength (Angstoms) -------  2984 
Wavelength Increment (Angstroms) --  .25 
Filter Wheel #1 Position ---------- (1) Ground quartz diffuser (ND=2.32)
Filter Wheel #2 Position ---------- (1) Neutral Density 0.494



************************************************************
HS scan start time = 03:05:44
Dark Count =  5 


Time (GMT)  Wavelength (Ang)  Step Number  Raw Counts  Counts/Second

  186.10        2950.00           1222          53.00       209.24
  186.16        2950.25           1226          54.00       213.60
  186.19        2950.50           1229          54.00       213.60
  186.22        2950.75           1232          56.00       222.32
  186.25        2951.00           1236          45.00       174.37
  186.29        2951.25           1239          54.00       213.60
  186.32        2951.50           1242          42.00       161.29
  186.35        2951.75           1246          41.00       156.93
  186.38        2952.00           1249          43.00       165.65
  186.41        2952.25           1252          44.00       170.01
  186.44        2952.50           1256          50.00       196.17
  186.47        2952.75           1259          48.00       187.45
  186.50        2953.00           1262          56.00       222.32
  186.53        2953.25           1266          50.00       196.17
  186.56        2953.50           1269          54.00       213.60
  186.59        2953.75           1272          51.00       200.52
  186.63        2954.00           1276          57.00       226.68
  186.66        2954.25           1279          43.00       165.65
  186.69        2954.50           1282          44.00       170.01
  186.72        2954.75           1286          46.00       178.73
  186.75        2955.00           1289          45.00       174.37
  186.78        2955.25           1292          55.00       217.96
  186.81        2955.50           1296          52.00       204.88
  186.84        2955.75           1299          47.00       183.09
  186.87        2956.00           1302          46.00       178.73
  186.90        2956.25           1306          50.00       196.17
  186.93        2956.50           1309          54.00       213.60
  186.96        2956.75           1312          51.00       200.52
  187.00        2957.00           1316          47.00       183.09
  187.03        2957.25           1319          50.00       196.17
  187.06        2957.50           1322          57.00       226.68
  187.09        2957.75           1326          72.00       292.07
  187.12        2958.00           1329          45.00       174.37
  187.15        2958.25           1332          53.00       209.24
  187.18        2958.50           1336          52.00       204.88
  187.21        2958.75           1339          48.00       187.45
  187.24        2959.00           1342          58.00       231.04
  187.27        2959.25           1346          54.00       213.60
  187.30        2959.50           1349          57.00       226.68
  187.33        2959.75           1352          59.00       235.40
  187.37        2960.00           1356          87.00       357.46
  187.40        2960.25           1359         109.00       453.36
  187.43        2960.50           1362         131.00       549.27
  187.46        2960.75           1366         202.00       858.78
  187.49        2961.00           1369         204.00       867.50
  187.52        2961.25           1372         227.00       967.77
  187.55        2961.50           1376         275.00      1177.03
  187.58        2961.75           1379         326.00      1399.36
  187.61        2962.00           1382         485.00      2092.55
  187.64        2962.25           1386        1393.00      6051.67
  187.67        2962.50           1389        2391.00     10404.29
  187.71        2962.75           1392        3554.00     15477.98
  187.74        2963.00           1396        5150.00     22443.18
  187.77        2963.25           1399        6345.00     27660.26
  187.80        2963.50           1402        7498.00     32695.52
  187.83        2963.75           1406        9121.00     39785.91
  187.86        2964.00           1409       10265.00     44785.50
  187.89        2964.25           1412       11486.00     50123.27
  187.92        2964.50           1416       13094.00     57155.46
  187.95        2964.75           1419       14267.00     62287.17
  187.99        2965.00           1422       15491.00     67643.66
  188.02        2965.25           1426       17125.00     74797.12
  188.05        2965.50           1429       18433.00     80525.60
  188.08        2965.75           1432       19430.00     84893.35
  188.11        2966.00           1436       21103.00     92225.16
  188.14        2966.25           1439       22153.00     96828.38
  188.17        2966.50           1442       23241.00    101599.50
  188.20        2966.75           1446       24701.00    108004.10
  188.23        2967.00           1449       25479.00    111418.00
  188.26        2967.25           1452       25877.00    113164.70
  188.30        2967.50           1456       25829.00    112954.00
  188.33        2967.75           1459       25815.00    112892.60
  188.36        2968.00           1462       25967.00    113559.70
  188.39        2968.25           1466       25498.00    111501.40
  188.42        2968.50           1469       24962.00    109149.30
  188.45        2968.75           1472       24082.00    105288.50
  188.48        2969.00           1476       22718.00     99305.87
  188.51        2969.25           1479       21449.00     93741.89
  188.54        2969.50           1482       20213.00     88324.40
  188.57        2969.75           1486       18528.00     80941.73
  188.61        2970.00           1489       17598.00     76868.43
  188.64        2970.25           1492       16388.00     71570.25
  188.67        2970.50           1496       14565.00     63591.13
  188.70        2970.75           1499       13524.00     59036.47
  188.73        2971.00           1502       12216.00     53315.38
  188.76        2971.25           1506       10531.00     45948.21
  188.79        2971.50           1509        9488.00     41389.64
  188.82        2971.75           1513        7973.00     34770.34
  188.85        2972.00           1516        6770.00     29516.10
  188.88        2972.25           1519        5675.00     24735.00
  188.91        2972.50           1523        4101.00     17864.85
  188.95        2972.75           1526        2927.00     12742.45
  188.98        2973.00           1529        1764.00      7669.59
  189.01        2973.25           1533         623.00      2694.20
  189.04        2973.50           1536         313.00      1342.69
  189.07        2973.75           1539         247.00      1054.96
  189.10        2974.00           1543         198.00       841.35
  189.13        2974.25           1546         151.00       636.46
  189.16        2974.50           1549         117.00       488.24
  189.19        2974.75           1553          79.00       322.58
  189.22        2975.00           1556          62.00       248.48
  189.25        2975.25           1559          56.00       222.32
  189.29        2975.50           1563          50.00       196.17
  189.32        2975.75           1566          52.00       204.88
  189.35        2976.00           1569          54.00       213.60
  189.38        2976.25           1573          53.00       209.24
  189.41        2976.50           1576          48.00       187.45
  189.44        2976.75           1579          47.00       183.09
  189.47        2977.00           1583          47.00       183.09
  189.50        2977.25           1586          46.00       178.73
  189.53        2977.50           1590          40.00       152.57
  189.56        2977.75           1593          43.00       165.65
  189.59        2978.00           1596          45.00       174.37
  189.62        2978.25           1600          43.00       165.65
  189.66        2978.50           1603          51.00       200.52
  189.69        2978.75           1606          50.00       196.17
  189.72        2979.00           1610          46.00       178.73
  189.75        2979.25           1613          53.00       209.24
  189.78        2979.50           1616          50.00       196.17
  189.81        2979.75           1620          45.00       174.37
  189.84        2980.00           1623          44.00       170.01
  189.87        2980.25           1626          40.00       152.57
  189.90        2980.50           1630          44.00       170.01
  189.93        2980.75           1633          49.00       191.81
  189.96        2981.00           1637          45.00       174.37
  189.99        2981.25           1640          44.00       170.01
  190.03        2981.50           1643          48.00       187.45
  190.06        2981.75           1647          45.00       174.37
  190.09        2982.00           1650          50.00       196.17
  190.12        2982.25           1653          46.00       178.73
  190.15        2982.50           1657          47.00       183.09
  190.18        2982.75           1660          49.00       191.81
  190.21        2983.00           1663          43.00       165.65
  190.24        2983.25           1667          45.00       174.37
  190.27        2983.50           1670          47.00       183.09
  190.30        2983.75           1673          48.00       187.45
  190.34        2984.00           1677          44.00       170.01
HS scan finished at 03:10:33
end
************************************************************
  HS Scan of (1) Internal mercury lamp
************************************************************
Integration time is 0.2294 seconds per sample
dh290918Manchester 53.47 2.23 2.804185pr1000
************************************************************
Dead Time -------------------------  3E-08 
Number of Cycles Used -------------  4 
Starting Wavelength (Angstroms) ---  2950 
Final Wavelength (Angstoms) -------  2984 
Wavelength Increment (Angstroms) --  .25 
Filter Wheel #1 Position ---------- (1) Ground quartz diffuser (ND=2.32)
Filter Wheel #2 Position ---------- (1) Neutral Density 0.494



************************************************************
HS scan start time = 18:42:03
Dark Count =  6.5 


Time (GMT)  Wavelength (Ang)  Step Number  Raw Counts  Counts/Second

 1122.42        2950.00           1222          53.00       202.70
 1122.49        2950.25           1226          53.00       202.70
 1122.52        2950.50           1229          49.00       185.27
 1122.55        2950.75           1232          47.00       176.55
 1122.58        2951.00           1236          45.00       167.83
 1122.61        2951.25           1239          44.00       163.47
 1122.64        2951.50           1242          49.00       185.27
 1122.67        2951.75           1246          51.00       193.99
 1122.71        2952.00           1249          50.00       189.63
 1122.74        2952.25           1252          47.00       176.55
 1122.77        2952.50           1256          52.00       198.34
 1122.80        2952.75           1259          50.00       189.63
 1122.83        2953.00           1262          55.00       211.42
 1122.86        2953.25           1266          48.00       180.91
 1122.89        2953.50           1269          46.00       172.19
 1122.92        2953.75           1272          59.00       228.86
 1122.95        2954.00           1276          50.00       189.63
 1122.98        2954.25           1279          54.00       207.06
 1123.01        2954.50           1282          55.00       211.42
 1123.04        2954.75           1286          45.00       167.83
 1123.08        2955.00           1289          47.00       176.55
 1123.11        2955.25           1292          54.00       207.06
 1123.14        2955.50           1296          39.00       141.67
 1123.17        2955.75           1299          47.00       176.55
 1123.20        2956.00           1302          46.00       172.19
 1123.23        2956.25           1306          48.00       180.91
 1123.26        2956.50           1309          52.00       198.34
 1123.29        2956.75           1312          55.00       211.42
 1123.32        2957.00           1316          46.00       172.19
 1123.35        2957.25           1319          44.00       163.47
 1123.38        2957.50           1322          52.00       198.34
 1123.42        2957.75           1326          45.00       167.83
 1123.45        2958.00           1329          55.00       211.42
 1123.48        2958.25           1332          52.00       198.34
 1123.51        2958.50           1336          53.00       202.70
 1123.54        2958.75           1339          48.00       180.91
 1123.57        2959.00           1342          45.00       167.83
 1123.60        2959.25           1346          56.00       215.78
 1123.63        2959.50           1349          51.00       193.99
 1123.66        2959.75           1352          66.00       259.37
 1123.69        2960.00           1356          73.00       289.89
 1123.72        2960.25           1359         100.00       407.59
 1123.75        2960.50           1362         130.00       538.37
 1123.79        2960.75           1366         162.00       677.87
 1123.82        2961.00           1369         186.00       782.49
 1123.85        2961.25           1372         223.00       943.79
 1123.88        2961.50           1376         274.00      1166.13
 1123.91        2961.75           1379         402.00      1724.15
 1123.94        2962.00           1382         866.00      3747.15
 1123.97        2962.25           1386        2174.00      9451.24
 1124.00        2962.50           1389        3386.00     14738.43
 1124.03        2962.75           1392        4471.00     19473.01
 1124.06        2963.00           1396        6070.00     26452.98
 1124.09        2963.25           1399        7148.00     31160.33
 1124.12        2963.50           1402        8428.00     36751.49
 1124.16        2963.75           1406        9958.00     43437.12
 1124.19        2964.00           1409       11291.00     49264.13
 1124.22        2964.25           1412       12384.00     54043.53
 1124.25        2964.50           1416       13863.00     60512.98
 1124.28        2964.75           1419       15232.00     66503.52
 1124.31        2965.00           1422       16484.00     71983.97
 1124.34        2965.25           1426       17945.00     78381.57
 1124.37        2965.50           1429       18985.00     82937.15
 1124.40        2965.75           1432       20369.00     89001.49
 1124.43        2966.00           1436       22004.00     96168.52
 1124.46        2966.25           1439       23381.00    102207.00
 1124.49        2966.50           1442       24289.00    106190.00
 1124.52        2966.75           1446       25355.00    110867.30
 1124.56        2967.00           1449       25808.00    112855.30
 1124.59        2967.25           1452       25771.00    112692.90
 1124.62        2967.50           1456       25844.00    113013.30
 1124.65        2967.75           1459       25805.00    112842.10
 1124.68        2968.00           1462       25695.00    112359.40
 1124.71        2968.25           1466       25013.00    109366.50
 1124.74        2968.50           1469       23954.00    104720.40
 1124.77        2968.75           1472       22744.00     99413.32
 1124.81        2969.00           1476       21270.00     92950.63
 1124.84        2969.25           1479       20014.00     87445.76
 1124.87        2969.50           1482       18771.00     81999.65
 1124.90        2969.75           1486       17233.00     75263.47
 1124.93        2970.00           1489       16175.00     70631.21
 1124.96        2970.25           1492       14904.00     65068.05
 1124.99        2970.50           1496       13475.00     58815.55
 1125.02        2970.75           1499       12255.00     53479.37
 1125.05        2971.00           1502       11065.00     48276.06
 1125.09        2971.25           1506        9495.00     41413.67
 1125.12        2971.50           1509        8288.00     36139.86
 1125.15        2971.75           1513        6687.00     29147.10
 1125.18        2972.00           1516        5487.00     23907.73
 1125.21        2972.25           1519        4320.00     18814.02
 1125.24        2972.50           1523        2760.00     12007.38
 1125.27        2972.75           1526        1630.00      7078.66
 1125.30        2973.00           1529         734.00      3171.62
 1125.33        2973.25           1533         339.00      1449.50
 1125.36        2973.50           1536         262.00      1113.81
 1125.40        2973.75           1539         228.00       965.59
 1125.43        2974.00           1543         183.00       769.42
 1125.46        2974.25           1546         144.00       599.40
 1125.49        2974.50           1549         105.00       429.39
 1125.52        2974.75           1553          86.00       346.56
 1125.55        2975.00           1556          58.00       224.50
 1125.58        2975.25           1559          53.00       202.70
 1125.61        2975.50           1563          47.00       176.55
 1125.64        2975.75           1566          49.00       185.27
 1125.67        2976.00           1569          51.00       193.99
 1125.70        2976.25           1573          45.00       167.83
 1125.74        2976.50           1576          48.00       180.91
 1125.77        2976.75           1579          47.00       176.55
 1125.80        2977.00           1583          49.00       185.27
 1125.83        2977.25           1586          49.00       185.27
 1125.86        2977.50           1590          55.00       211.42
 1125.89        2977.75           1593          55.00       211.42
 1125.92        2978.00           1596          45.00       167.83
 1125.95        2978.25           1600          52.00       198.34
 1125.98        2978.50           1603          50.00       189.63
 1126.01        2978.75           1606          51.00       193.99
 1126.04        2979.00           1610          46.00       172.19
 1126.07        2979.25           1613          45.00       167.83
 1126.10        2979.50           1616          44.00       163.47
 1126.14        2979.75           1620          47.00       176.55
 1126.17        2980.00           1623          48.00       180.91
 1126.20        2980.25           1626          47.00       176.55
 1126.23        2980.50           1630          53.00       202.70
 1126.26        2980.75           1633          52.00       198.34
 1126.29        2981.00           1637          48.00       180.91
 1126.32        2981.25           1640          44.00       163.47
 1126.35        2981.50           1643          47.00       176.55
 1126.38        2981.75           1647          46.00       172.19
 1126.42        2982.00           1650          49.00       185.27
 1126.45        2982.25           1653          53.00       202.70
 1126.48        2982.50           1657          37.00       132.96
 1126.51        2982.75           1660          40.00       146.03
 1126.54        2983.00           1663          54.00       207.06
 1126.59        2983.25           1667          50.00       189.63
 1126.62        2983.50           1670          47.00       176.55
 1126.65        2983.75           1673          48.00       180.91
 1126.68        2984.00           1677          47.00       176.55
HS scan finished at 18:46:54
end
