************************************************************
  HS Scan of (1) Internal mercury lamp
************************************************************
Integration time is 0.2294 seconds per sample
dh071018Manchester 53.47 2.23 2.804185pr1000
************************************************************
Dead Time -------------------------  3E-08 
Number of Cycles Used -------------  4 
Starting Wavelength (Angstroms) ---  2950 
Final Wavelength (Angstoms) -------  2984 
Wavelength Increment (Angstroms) --  .25 
Filter Wheel #1 Position ---------- (1) Ground quartz diffuser (ND=2.32)
Filter Wheel #2 Position ---------- (1) Neutral Density 0.494



************************************************************
HS scan start time = 18:42:04
Dark Count =  5.3 


Time (GMT)  Wavelength (Ang)  Step Number  Raw Counts  Counts/Second

 1122.43        2950.00           1222          51.00       199.22
 1122.50        2950.25           1226          53.00       207.94
 1122.53        2950.50           1229          44.00       168.70
 1122.56        2950.75           1232          51.00       199.22
 1122.59        2951.00           1236          42.00       159.98
 1122.62        2951.25           1239          61.00       242.81
 1122.65        2951.50           1242          47.00       181.78
 1122.68        2951.75           1246          56.00       221.01
 1122.71        2952.00           1249          60.00       238.45
 1122.74        2952.25           1252          53.00       207.94
 1122.78        2952.50           1256          44.00       168.70
 1122.81        2952.75           1259          45.00       173.06
 1122.84        2953.00           1262          51.00       199.22
 1122.87        2953.25           1266          50.00       194.86
 1122.90        2953.50           1269          48.00       186.14
 1122.93        2953.75           1272          47.00       181.78
 1122.96        2954.00           1276          54.00       212.29
 1122.99        2954.25           1279          45.00       173.06
 1123.02        2954.50           1282          48.00       186.14
 1123.05        2954.75           1286          48.00       186.14
 1123.08        2955.00           1289          53.00       207.94
 1123.11        2955.25           1292          54.00       212.29
 1123.14        2955.50           1296          49.00       190.50
 1123.17        2955.75           1299          53.00       207.94
 1123.21        2956.00           1302          41.00       155.62
 1123.24        2956.25           1306          47.00       181.78
 1123.27        2956.50           1309          46.00       177.42
 1123.30        2956.75           1312          51.00       199.22
 1123.33        2957.00           1316          59.00       234.09
 1123.36        2957.25           1319          52.00       203.58
 1123.39        2957.50           1322          55.00       216.65
 1123.42        2957.75           1326          52.00       203.58
 1123.45        2958.00           1329          47.00       181.78
 1123.48        2958.25           1332          59.00       234.09
 1123.51        2958.50           1336          47.00       181.78
 1123.55        2958.75           1339          44.00       168.70
 1123.58        2959.00           1342          53.00       207.94
 1123.61        2959.25           1346          49.00       190.50
 1123.64        2959.50           1349          56.00       221.01
 1123.67        2959.75           1352          74.00       299.48
 1123.70        2960.00           1356          92.00       377.95
 1123.73        2960.25           1359         117.00       486.93
 1123.76        2960.50           1362         143.00       600.27
 1123.79        2960.75           1366         181.00       765.93
 1123.82        2961.00           1369         209.00       887.99
 1123.85        2961.25           1372         256.00      1092.89
 1123.88        2961.50           1376         313.00      1341.38
 1123.91        2961.75           1379         400.00      1720.66
 1123.94        2962.00           1382         877.00      3800.35
 1123.97        2962.25           1386        2256.00      9814.14
 1124.00        2962.50           1389        3388.00     14752.39
 1124.04        2962.75           1392        4498.00     19596.09
 1124.07        2963.00           1396        6073.00     26471.32
 1124.10        2963.25           1399        7249.00     31606.68
 1124.13        2963.50           1402        8393.00     36603.82
 1124.16        2963.75           1406        9968.00     43486.08
 1124.19        2964.00           1409       11280.00     49221.28
 1124.22        2964.25           1412       12663.00     55268.99
 1124.25        2964.50           1416       14301.00     62434.62
 1124.28        2964.75           1419       15349.00     67020.85
 1124.32        2965.00           1422       16760.00     73197.62
 1124.35        2965.25           1426       18209.00     79543.13
 1124.38        2965.50           1429       19584.00     85566.80
 1124.41        2965.75           1432       20778.00     90799.31
 1124.44        2966.00           1436       22325.00     97581.24
 1124.47        2966.25           1439       23504.00    102751.70
 1124.50        2966.50           1442       24575.00    107450.00
 1124.53        2966.75           1446       26041.00    113883.20
 1124.56        2967.00           1449       26347.00    115226.30
 1124.59        2967.25           1452       26358.00    115274.60
 1124.62        2967.50           1456       26330.00    115151.70
 1124.66        2967.75           1459       26320.00    115107.80
 1124.69        2968.00           1462       26280.00    114932.20
 1124.72        2968.25           1466       25678.00    112290.00
 1124.75        2968.50           1469       24614.00    107621.10
 1124.78        2968.75           1472       23484.00    102664.00
 1124.81        2969.00           1476       22031.00     96292.15
 1124.84        2969.25           1479       21024.00     91877.57
 1124.87        2969.50           1482       19619.00     85720.16
 1124.90        2969.75           1486       17840.00     77926.96
 1124.93        2970.00           1489       16698.00     72926.16
 1124.96        2970.25           1492       15574.00     68005.65
 1125.00        2970.50           1496       13882.00     60601.37
 1125.03        2970.75           1499       12584.00     54923.47
 1125.06        2971.00           1502       11369.00     49610.40
 1125.09        2971.25           1506        9817.00     42826.13
 1125.12        2971.50           1509        8537.00     37232.94
 1125.15        2971.75           1513        7099.00     30951.57
 1125.18        2972.00           1516        5890.00     25672.34
 1125.21        2972.25           1519        4720.00     20565.00
 1125.24        2972.50           1523        2949.00     12837.11
 1125.27        2972.75           1526        1877.00      8161.11
 1125.30        2973.00           1529         845.00      3660.82
 1125.33        2973.25           1533         372.00      1598.59
 1125.36        2973.50           1536         263.00      1123.40
 1125.40        2973.75           1539         239.00      1018.78
 1125.43        2974.00           1543         180.00       761.57
 1125.46        2974.25           1546         138.00       578.48
 1125.49        2974.50           1549         103.00       425.90
 1125.52        2974.75           1553          68.00       273.32
 1125.55        2975.00           1556          51.00       199.22
 1125.58        2975.25           1559          56.00       221.01
 1125.61        2975.50           1563          47.00       181.78
 1125.64        2975.75           1566          48.00       186.14
 1125.67        2976.00           1569          51.00       199.22
 1125.70        2976.25           1573          47.00       181.78
 1125.73        2976.50           1576          48.00       186.14
 1125.77        2976.75           1579          52.00       203.58
 1125.80        2977.00           1583          40.00       151.26
 1125.83        2977.25           1586          58.00       229.73
 1125.86        2977.50           1590          45.00       173.06
 1125.89        2977.75           1593          48.00       186.14
 1125.92        2978.00           1596          44.00       168.70
 1125.95        2978.25           1600          50.00       194.86
 1125.98        2978.50           1603          47.00       181.78
 1126.01        2978.75           1606          44.00       168.70
 1126.04        2979.00           1610          45.00       173.06
 1126.07        2979.25           1613          50.00       194.86
 1126.10        2979.50           1616          45.00       173.06
 1126.13        2979.75           1620          54.00       212.29
 1126.17        2980.00           1623          45.00       173.06
 1126.20        2980.25           1626          47.00       181.78
 1126.23        2980.50           1630          43.00       164.34
 1126.26        2980.75           1633          46.00       177.42
 1126.29        2981.00           1637          47.00       181.78
 1126.32        2981.25           1640          45.00       173.06
 1126.35        2981.50           1643          42.00       159.98
 1126.38        2981.75           1647          48.00       186.14
 1126.41        2982.00           1650          44.00       168.70
 1126.44        2982.25           1653          51.00       199.22
 1126.47        2982.50           1657          39.00       146.91
 1126.50        2982.75           1660          40.00       151.26
 1126.54        2983.00           1663          45.00       173.06
 1126.57        2983.25           1667          46.00       177.42
 1126.60        2983.50           1670          43.00       164.34
 1126.63        2983.75           1673          39.00       146.91
 1126.66        2984.00           1677          37.00       138.19
HS scan finished at 18:46:52
end
