************************************************************
  HS Scan of (1) Internal mercury lamp
************************************************************
Integration time is 0.2294 seconds per sample
dh121018Manchester 53.47 2.23 2.804185pr1000
************************************************************
Dead Time -------------------------  3E-08 
Number of Cycles Used -------------  4 
Starting Wavelength (Angstroms) ---  2950 
Final Wavelength (Angstoms) -------  2984 
Wavelength Increment (Angstroms) --  .25 
Filter Wheel #1 Position ---------- (1) Ground quartz diffuser (ND=2.32)
Filter Wheel #2 Position ---------- (1) Neutral Density 0.494



************************************************************
HS scan start time = 03:39:39
Dark Count =  6.2 


Time (GMT)  Wavelength (Ang)  Step Number  Raw Counts  Counts/Second

  220.02        2950.00           1222          51.00       195.29
  220.09        2950.25           1226          53.00       204.01
  220.12        2950.50           1229          56.00       217.09
  220.15        2950.75           1232          50.00       190.93
  220.18        2951.00           1236          46.00       173.50
  220.21        2951.25           1239          48.00       182.22
  220.24        2951.50           1242          52.00       199.65
  220.27        2951.75           1246          49.00       186.57
  220.30        2952.00           1249          52.00       199.65
  220.33        2952.25           1252          51.00       195.29
  220.36        2952.50           1256          55.00       212.73
  220.40        2952.75           1259          51.00       195.29
  220.43        2953.00           1262          56.00       217.09
  220.46        2953.25           1266          48.00       182.22
  220.49        2953.50           1269          45.00       169.14
  220.52        2953.75           1272          42.00       156.06
  220.55        2954.00           1276          50.00       190.93
  220.58        2954.25           1279          51.00       195.29
  220.61        2954.50           1282          42.00       156.06
  220.64        2954.75           1286          47.00       177.86
  220.67        2955.00           1289          45.00       169.14
  220.70        2955.25           1292          55.00       212.73
  220.74        2955.50           1296          52.00       199.65
  220.77        2955.75           1299          50.00       190.93
  220.80        2956.00           1302          50.00       190.93
  220.83        2956.25           1306          54.00       208.37
  220.86        2956.50           1309          50.00       190.93
  220.89        2956.75           1312          46.00       173.50
  220.92        2957.00           1316          48.00       182.22
  220.95        2957.25           1319          43.00       160.42
  220.98        2957.50           1322          47.00       177.86
  221.01        2957.75           1326          55.00       212.73
  221.04        2958.00           1329          52.00       199.65
  221.07        2958.25           1332          53.00       204.01
  221.10        2958.50           1336          49.00       186.57
  221.13        2958.75           1339          45.00       169.14
  221.17        2959.00           1342          45.00       169.14
  221.20        2959.25           1346          57.00       221.45
  221.23        2959.50           1349          45.00       169.14
  221.26        2959.75           1352          55.00       212.73
  221.29        2960.00           1356          79.00       317.35
  221.32        2960.25           1359          91.00       369.66
  221.35        2960.50           1362         125.00       517.88
  221.38        2960.75           1366         175.00       735.85
  221.41        2961.00           1369         189.00       796.88
  221.44        2961.25           1372         211.00       892.79
  221.47        2961.50           1376         282.00      1202.31
  221.50        2961.75           1379         355.00      1520.56
  221.53        2962.00           1382         674.00      2911.33
  221.56        2962.25           1386        1834.00      7969.65
  221.59        2962.50           1389        2903.00     12632.51
  221.63        2962.75           1392        4049.00     17632.69
  221.66        2963.00           1396        5686.00     24777.78
  221.69        2963.25           1399        6898.00     30069.84
  221.72        2963.50           1402        8131.00     35455.30
  221.75        2963.75           1406        9659.00     42131.68
  221.78        2964.00           1409       10951.00     47778.99
  221.81        2964.25           1412       12104.00     52820.34
  221.84        2964.50           1416       13748.00     60011.17
  221.87        2964.75           1419       15024.00     65594.52
  221.90        2965.00           1422       15997.00     69853.30
  221.94        2965.25           1426       17756.00     77555.13
  221.97        2965.50           1429       18734.00     81838.88
  222.00        2965.75           1432       20180.00     88174.52
  222.03        2966.00           1436       21732.00     94977.31
  222.06        2966.25           1439       22979.00    100445.20
  222.09        2966.50           1442       23984.00    104853.30
  222.12        2966.75           1446       25278.00    110530.70
  222.15        2967.00           1449       25530.00    111636.60
  222.18        2967.25           1452       25708.00    112417.70
  222.21        2967.50           1456       25761.00    112650.30
  222.25        2967.75           1459       25512.00    111557.60
  222.28        2968.00           1462       25666.00    112233.40
  222.31        2968.25           1466       24926.00    108986.10
  222.34        2968.50           1469       23942.00    104669.10
  222.37        2968.75           1472       22837.00     99822.48
  222.40        2969.00           1476       21262.00     92916.89
  222.43        2969.25           1479       20014.00     87447.08
  222.46        2969.50           1482       18987.00     82947.22
  222.49        2969.75           1486       17157.00     74931.99
  222.53        2970.00           1489       16039.00     70037.15
  222.56        2970.25           1492       14855.00     64854.92
  222.59        2970.50           1496       13254.00     57850.10
  222.62        2970.75           1499       12170.00     53108.96
  222.65        2971.00           1502       11080.00     48342.95
  222.68        2971.25           1506        9561.00     41703.41
  222.71        2971.50           1509        8225.00     35865.95
  222.74        2971.75           1513        6584.00     28698.63
  222.77        2972.00           1516        5395.00     23507.42
  222.80        2972.25           1519        4146.00     18055.99
  222.83        2972.50           1523        2538.00     11040.28
  222.86        2972.75           1526        1531.00      6648.23
  222.90        2973.00           1529         706.00      3050.85
  222.93        2973.25           1533         351.00      1503.12
  222.96        2973.50           1536         290.00      1237.19
  222.99        2973.75           1539         238.00      1010.49
  223.02        2974.00           1543         198.00       836.12
  223.05        2974.25           1546         154.00       644.30
  223.08        2974.50           1549         138.00       574.55
  223.11        2974.75           1553          95.00       387.10
  223.14        2975.00           1556          69.00       273.76
  223.17        2975.25           1559          56.00       217.09
  223.20        2975.50           1563          47.00       177.86
  223.24        2975.75           1566          51.00       195.29
  223.27        2976.00           1569          51.00       195.29
  223.30        2976.25           1573          41.00       151.70
  223.33        2976.50           1576          40.00       147.34
  223.36        2976.75           1579          46.00       173.50
  223.39        2977.00           1583          50.00       190.93
  223.42        2977.25           1586          49.00       186.57
  223.45        2977.50           1590          44.00       164.78
  223.48        2977.75           1593          47.00       177.86
  223.51        2978.00           1596          47.00       177.86
  223.54        2978.25           1600          49.00       186.57
  223.58        2978.50           1603          47.00       177.86
  223.61        2978.75           1606          46.00       173.50
  223.64        2979.00           1610          49.00       186.57
  223.67        2979.25           1613          44.00       164.78
  223.70        2979.50           1616          42.00       156.06
  223.73        2979.75           1620          52.00       199.65
  223.76        2980.00           1623          44.00       164.78
  223.79        2980.25           1626          55.00       212.73
  223.82        2980.50           1630          46.00       173.50
  223.85        2980.75           1633          48.00       182.22
  223.88        2981.00           1637          39.00       142.98
  223.92        2981.25           1640          39.00       142.98
  223.95        2981.50           1643          43.00       160.42
  223.98        2981.75           1647          45.00       169.14
  224.01        2982.00           1650          43.00       160.42
  224.04        2982.25           1653          48.00       182.22
  224.07        2982.50           1657          47.00       177.86
  224.10        2982.75           1660          45.00       169.14
  224.13        2983.00           1663          45.00       169.14
  224.16        2983.25           1667          48.00       182.22
  224.19        2983.50           1670          45.00       169.14
  224.22        2983.75           1673          50.00       190.93
  224.25        2984.00           1677          42.00       156.06
HS scan finished at 03:44:28
end
************************************************************
  HS Scan of (1) Internal mercury lamp
************************************************************
Integration time is 0.2294 seconds per sample
dh121018Manchester 53.47 2.23 2.965129pr1000
************************************************************
Dead Time -------------------------  3E-08 
Number of Cycles Used -------------  4 
Starting Wavelength (Angstroms) ---  2950 
Final Wavelength (Angstoms) -------  2984 
Wavelength Increment (Angstroms) --  .25 
Filter Wheel #1 Position ---------- (1) Ground quartz diffuser (ND=2.32)
Filter Wheel #2 Position ---------- (1) Neutral Density 0.494



************************************************************
HS scan start time = 18:12:01
Dark Count =  5.3 


Time (GMT)  Wavelength (Ang)  Step Number  Raw Counts  Counts/Second

 1092.38        2950.00           1222          52.00       203.58
 1092.45        2950.25           1226          49.00       190.50
 1092.48        2950.50           1229          53.00       207.94
 1092.51        2950.75           1232          49.00       190.50
 1092.54        2951.00           1236          47.00       181.78
 1092.57        2951.25           1239          53.00       207.94
 1092.60        2951.50           1242          45.00       173.06
 1092.63        2951.75           1246          56.00       221.01
 1092.66        2952.00           1249          51.00       199.22
 1092.69        2952.25           1252          50.00       194.86
 1092.73        2952.50           1256          44.00       168.70
 1092.76        2952.75           1259          50.00       194.86
 1092.79        2953.00           1262          47.00       181.78
 1092.82        2953.25           1266          53.00       207.94
 1092.85        2953.50           1269          44.00       168.70
 1092.88        2953.75           1272          45.00       173.06
 1092.91        2954.00           1276          43.00       164.34
 1092.94        2954.25           1279          51.00       199.22
 1092.97        2954.50           1282          51.00       199.22
 1093.00        2954.75           1286          48.00       186.14
 1093.04        2955.00           1289          51.00       199.22
 1093.07        2955.25           1292          49.00       190.50
 1093.10        2955.50           1296          58.00       229.73
 1093.13        2955.75           1299          51.00       199.22
 1093.16        2956.00           1302          46.00       177.42
 1093.19        2956.25           1306          50.00       194.86
 1093.22        2956.50           1309          48.00       186.14
 1093.25        2956.75           1312          52.00       203.58
 1093.28        2957.00           1316          45.00       173.06
 1093.31        2957.25           1319          57.00       225.37
 1093.34        2957.50           1322          52.00       203.58
 1093.37        2957.75           1326          47.00       181.78
 1093.40        2958.00           1329          46.00       177.42
 1093.44        2958.25           1332          48.00       186.14
 1093.47        2958.50           1336          43.00       164.34
 1093.50        2958.75           1339          58.00       229.73
 1093.53        2959.00           1342          53.00       207.94
 1093.56        2959.25           1346          61.00       242.81
 1093.59        2959.50           1349          59.00       234.09
 1093.62        2959.75           1352          56.00       221.01
 1093.65        2960.00           1356          94.00       386.67
 1093.68        2960.25           1359         108.00       447.70
 1093.71        2960.50           1362         140.00       587.19
 1093.75        2960.75           1366         179.00       757.21
 1093.78        2961.00           1369         197.00       835.68
 1093.81        2961.25           1372         234.00       996.98
 1093.84        2961.50           1376         289.00      1236.75
 1093.87        2961.75           1379         420.00      1807.86
 1093.90        2962.00           1382         836.00      3621.58
 1093.93        2962.25           1386        2171.00      9443.39
 1093.96        2962.50           1389        3423.00     14905.09
 1093.99        2962.75           1392        4666.00     20329.31
 1094.02        2963.00           1396        6331.00     27597.82
 1094.05        2963.25           1399        7626.00     33253.30
 1094.09        2963.50           1402        8924.00     38923.81
 1094.12        2963.75           1406       10705.00     46707.52
 1094.15        2964.00           1409       11965.00     52216.44
 1094.18        2964.25           1412       13361.00     58322.10
 1094.21        2964.50           1416       15018.00     65572.20
 1094.24        2964.75           1419       16258.00     70999.81
 1094.27        2965.00           1422       17571.00     76748.87
 1094.30        2965.25           1426       19203.00     83897.47
 1094.33        2965.50           1429       20455.00     89383.65
 1094.37        2965.75           1432       21915.00     95783.56
 1094.40        2966.00           1436       23493.00    102703.50
 1094.43        2966.25           1439       24694.00    107972.10
 1094.46        2966.50           1442       26121.00    114234.30
 1094.49        2966.75           1446       27527.00    120406.70
 1094.52        2967.00           1449       27769.00    121469.30
 1094.55        2967.25           1452       27711.00    121214.60
 1094.58        2967.50           1456       27676.00    121060.90
 1094.61        2967.75           1459       27942.00    122229.00
 1094.64        2968.00           1462       27948.00    122255.30
 1094.67        2968.25           1466       27071.00    118404.60
 1094.71        2968.50           1469       26008.00    113738.40
 1094.74        2968.75           1472       24797.00    108424.00
 1094.77        2969.00           1476       23052.00    100769.30
 1094.80        2969.25           1479       21864.00     95559.96
 1094.83        2969.50           1482       20629.00     90146.25
 1094.86        2969.75           1486       18798.00     82123.16
 1094.89        2970.00           1489       17465.00     76284.68
 1094.92        2970.25           1492       16216.00     70815.93
 1094.95        2970.50           1496       14737.00     64342.48
 1094.99        2970.75           1499       13318.00     58134.00
 1095.02        2971.00           1502       12135.00     52959.84
 1095.05        2971.25           1506       10332.00     45077.05
 1095.08        2971.50           1509        9091.00     39653.51
 1095.11        2971.75           1513        7425.00     32375.37
 1095.14        2972.00           1516        6038.00     26318.51
 1095.17        2972.25           1519        4901.00     21355.01
 1095.20        2972.50           1523        3145.00     13692.20
 1095.23        2972.75           1526        2011.00      8745.54
 1095.27        2973.00           1529         880.00      3813.43
 1095.30        2973.25           1533         357.00      1533.20
 1095.33        2973.50           1536         263.00      1123.40
 1095.36        2973.75           1539         238.00      1014.42
 1095.39        2974.00           1543         202.00       857.48
 1095.42        2974.25           1546         149.00       626.43
 1095.45        2974.50           1549         123.00       513.09
 1095.48        2974.75           1553          88.00       360.51
 1095.51        2975.00           1556          67.00       268.96
 1095.54        2975.25           1559          51.00       199.22
 1095.57        2975.50           1563          51.00       199.22
 1095.61        2975.75           1566          57.00       225.37
 1095.64        2976.00           1569          49.00       190.50
 1095.67        2976.25           1573          42.00       159.98
 1095.70        2976.50           1576          54.00       212.29
 1095.73        2976.75           1579          48.00       186.14
 1095.76        2977.00           1583          51.00       199.22
 1095.79        2977.25           1586          48.00       186.14
 1095.82        2977.50           1590          45.00       173.06
 1095.85        2977.75           1593          48.00       186.14
 1095.88        2978.00           1596          47.00       181.78
 1095.92        2978.25           1600          50.00       194.86
 1095.95        2978.50           1603          50.00       194.86
 1095.98        2978.75           1606          47.00       181.78
 1096.01        2979.00           1610          46.00       177.42
 1096.04        2979.25           1613          54.00       212.29
 1096.07        2979.50           1616          54.00       212.29
 1096.10        2979.75           1620          46.00       177.42
 1096.13        2980.00           1623          48.00       186.14
 1096.16        2980.25           1626          46.00       177.42
 1096.19        2980.50           1630          52.00       203.58
 1096.22        2980.75           1633          55.00       216.65
 1096.26        2981.00           1637          49.00       190.50
 1096.29        2981.25           1640          50.00       194.86
 1096.32        2981.50           1643          41.00       155.62
 1096.35        2981.75           1647          52.00       203.58
 1096.38        2982.00           1650          46.00       177.42
 1096.41        2982.25           1653          48.00       186.14
 1096.44        2982.50           1657          41.00       155.62
 1096.47        2982.75           1660          51.00       199.22
 1096.50        2983.00           1663          49.00       190.50
 1096.53        2983.25           1667          53.00       207.94
 1096.57        2983.50           1670          44.00       168.70
 1096.60        2983.75           1673          40.00       151.26
 1096.63        2984.00           1677          47.00       181.78
HS scan finished at 18:16:51
end
