************************************************************
  HS Scan of (1) Internal mercury lamp
************************************************************
Integration time is 0.2294 seconds per sample
dh081018Manchester 53.47 2.23 2.804185pr1000
************************************************************
Dead Time -------------------------  3E-08 
Number of Cycles Used -------------  4 
Starting Wavelength (Angstroms) ---  2950 
Final Wavelength (Angstoms) -------  2984 
Wavelength Increment (Angstroms) --  .25 
Filter Wheel #1 Position ---------- (1) Ground quartz diffuser (ND=2.32)
Filter Wheel #2 Position ---------- (1) Neutral Density 0.494



************************************************************
HS scan start time = 18:42:04
Dark Count =  6 


Time (GMT)  Wavelength (Ang)  Step Number  Raw Counts  Counts/Second

 1122.44        2950.00           1222          65.00       257.19
 1122.51        2950.25           1226          50.00       191.81
 1122.54        2950.50           1229          50.00       191.81
 1122.57        2950.75           1232          47.00       178.73
 1122.60        2951.00           1236          44.00       165.65
 1122.63        2951.25           1239          46.00       174.37
 1122.66        2951.50           1242          54.00       209.24
 1122.69        2951.75           1246          50.00       191.81
 1122.72        2952.00           1249          51.00       196.17
 1122.75        2952.25           1252          57.00       222.32
 1122.79        2952.50           1256          45.00       170.01
 1122.82        2952.75           1259          48.00       183.09
 1122.85        2953.00           1262          49.00       187.45
 1122.88        2953.25           1266          56.00       217.96
 1122.91        2953.50           1269          43.00       161.29
 1122.94        2953.75           1272          41.00       152.57
 1122.97        2954.00           1276          49.00       187.45
 1123.00        2954.25           1279          51.00       196.17
 1123.03        2954.50           1282          54.00       209.24
 1123.06        2954.75           1286          48.00       183.09
 1123.09        2955.00           1289          50.00       191.81
 1123.12        2955.25           1292          55.00       213.60
 1123.15        2955.50           1296          47.00       178.73
 1123.18        2955.75           1299          45.00       170.01
 1123.21        2956.00           1302          49.00       187.45
 1123.25        2956.25           1306          50.00       191.81
 1123.28        2956.50           1309          53.00       204.88
 1123.31        2956.75           1312          45.00       170.01
 1123.34        2957.00           1316          61.00       239.76
 1123.37        2957.25           1319          45.00       170.01
 1123.40        2957.50           1322          51.00       196.17
 1123.43        2957.75           1326          48.00       183.09
 1123.46        2958.00           1329          56.00       217.96
 1123.49        2958.25           1332          48.00       183.09
 1123.52        2958.50           1336          54.00       209.24
 1123.55        2958.75           1339          52.00       200.52
 1123.58        2959.00           1342          53.00       204.88
 1123.61        2959.25           1346          58.00       226.68
 1123.65        2959.50           1349          51.00       196.17
 1123.68        2959.75           1352          58.00       226.68
 1123.71        2960.00           1356          79.00       318.22
 1123.74        2960.25           1359         100.00       409.77
 1123.77        2960.50           1362         123.00       510.03
 1123.80        2960.75           1366         159.00       666.97
 1123.83        2961.00           1369         193.00       815.19
 1123.86        2961.25           1372         243.00      1033.16
 1123.89        2961.50           1376         291.00      1242.42
 1123.92        2961.75           1379         409.00      1756.85
 1123.95        2962.00           1382         978.00      4237.68
 1123.98        2962.25           1386        2385.00     10373.76
 1124.01        2962.50           1389        3575.00     15565.24
 1124.04        2962.75           1392        4771.00     20784.53
 1124.07        2963.00           1396        6362.00     27730.12
 1124.10        2963.25           1399        7495.00     32678.06
 1124.13        2963.50           1402        8631.00     37640.56
 1124.17        2963.75           1406       10366.00     45222.60
 1124.20        2964.00           1409       11372.00     49620.46
 1124.23        2964.25           1412       12697.00     55414.63
 1124.26        2964.50           1416       14369.00     62729.10
 1124.29        2964.75           1419       15493.00     67648.05
 1124.32        2965.00           1422       16886.00     73746.24
 1124.35        2965.25           1426       18453.00     80608.82
 1124.38        2965.50           1429       19738.00     86238.52
 1124.41        2965.75           1432       20908.00     91366.06
 1124.45        2966.00           1436       22570.00     98652.48
 1124.48        2966.25           1439       23775.00    103937.40
 1124.51        2966.50           1442       24993.00    109281.00
 1124.54        2966.75           1446       26051.00    113924.00
 1124.57        2967.00           1449       26437.00    115618.30
 1124.60        2967.25           1452       26483.00    115820.20
 1124.63        2967.50           1456       26251.00    114801.90
 1124.66        2967.75           1459       26440.00    115631.50
 1124.69        2968.00           1462       26237.00    114740.40
 1124.72        2968.25           1466       25429.00    111194.20
 1124.76        2968.50           1469       24233.00    105946.50
 1124.79        2968.75           1472       23198.00    101406.60
 1124.82        2969.00           1476       21580.00     94311.80
 1124.85        2969.25           1479       20409.00     89178.99
 1124.88        2969.50           1482       19365.00     84604.18
 1124.91        2969.75           1486       17684.00     77240.69
 1124.94        2970.00           1489       16531.00     72191.93
 1124.97        2970.25           1492       15383.00     67166.60
 1125.00        2970.50           1496       13547.00     59132.71
 1125.03        2970.75           1499       12292.00     53643.37
 1125.07        2971.00           1502       11076.00     48326.34
 1125.10        2971.25           1506        9556.00     41682.43
 1125.13        2971.50           1509        8272.00     36072.15
 1125.16        2971.75           1513        6643.00     28957.14
 1125.19        2972.00           1516        5434.00     23678.54
 1125.22        2972.25           1519        4266.00     18580.54
 1125.25        2972.50           1523        2653.00     11542.79
 1125.28        2972.75           1526        1555.00      6753.77
 1125.31        2973.00           1529         736.00      3182.52
 1125.34        2973.25           1533         344.00      1473.47
 1125.37        2973.50           1536         267.00      1137.79
 1125.40        2973.75           1539         236.00      1002.65
 1125.43        2974.00           1543         198.00       836.99
 1125.46        2974.25           1546         148.00       619.02
 1125.50        2974.50           1549         115.00       475.16
 1125.53        2974.75           1553          87.00       353.10
 1125.56        2975.00           1556          59.00       231.04
 1125.59        2975.25           1559          49.00       187.45
 1125.62        2975.50           1563          46.00       174.37
 1125.65        2975.75           1566          48.00       183.09
 1125.68        2976.00           1569          57.00       222.32
 1125.71        2976.25           1573          47.00       178.73
 1125.74        2976.50           1576          47.00       178.73
 1125.77        2976.75           1579          48.00       183.09
 1125.80        2977.00           1583          42.00       156.93
 1125.83        2977.25           1586          49.00       187.45
 1125.86        2977.50           1590          55.00       213.60
 1125.90        2977.75           1593          50.00       191.81
 1125.93        2978.00           1596          51.00       196.17
 1125.96        2978.25           1600          42.00       156.93
 1125.99        2978.50           1603          53.00       204.88
 1126.02        2978.75           1606          46.00       174.37
 1126.05        2979.00           1610          53.00       204.88
 1126.08        2979.25           1613          46.00       174.37
 1126.11        2979.50           1616          44.00       165.65
 1126.14        2979.75           1620          43.00       161.29
 1126.17        2980.00           1623          50.00       191.81
 1126.20        2980.25           1626          46.00       174.37
 1126.23        2980.50           1630          41.00       152.57
 1126.27        2980.75           1633          47.00       178.73
 1126.30        2981.00           1637          39.00       143.85
 1126.33        2981.25           1640          42.00       156.93
 1126.36        2981.50           1643          41.00       152.57
 1126.39        2981.75           1647          48.00       183.09
 1126.42        2982.00           1650          43.00       161.29
 1126.45        2982.25           1653          44.00       165.65
 1126.48        2982.50           1657          50.00       191.81
 1126.51        2982.75           1660          53.00       204.88
 1126.54        2983.00           1663          48.00       183.09
 1126.57        2983.25           1667          43.00       161.29
 1126.60        2983.50           1670          40.00       148.21
 1126.63        2983.75           1673          42.00       156.93
 1126.66        2984.00           1677          41.00       152.57
HS scan finished at 18:46:53
end
