************************************************************
  HS Scan of (1) Internal mercury lamp
************************************************************
Integration time is 0.2294 seconds per sample
dh111017Manchester 53.47 2.23 2.804185pr1000
************************************************************
Dead Time -------------------------  3E-08 
Number of Cycles Used -------------  4 
Starting Wavelength (Angstroms) ---  2950 
Final Wavelength (Angstoms) -------  2984 
Wavelength Increment (Angstroms) --  .25 
Filter Wheel #1 Position ---------- (1) Ground quartz diffuser (ND=2.32)
Filter Wheel #2 Position ---------- (1) Neutral Density 0.494



************************************************************
HS scan start time = 03:37:56
Dark Count =  5 


Time (GMT)  Wavelength (Ang)  Step Number  Raw Counts  Counts/Second

  218.31        2950.00           1222          62.00       248.48
  218.37        2950.25           1226          70.00       283.35
  218.40        2950.50           1229          65.00       261.55
  218.44        2950.75           1232          72.00       292.07
  218.47        2951.00           1236          71.00       287.71
  218.50        2951.25           1239          68.00       274.63
  218.53        2951.50           1242          68.00       274.63
  218.56        2951.75           1246          69.00       278.99
  218.59        2952.00           1249          65.00       261.55
  218.62        2952.25           1252          70.00       283.35
  218.65        2952.50           1256          68.00       274.63
  218.68        2952.75           1259          76.00       309.51
  218.71        2953.00           1262          62.00       248.48
  218.74        2953.25           1266          74.00       300.79
  218.77        2953.50           1269          66.00       265.91
  218.80        2953.75           1272          71.00       287.71
  218.84        2954.00           1276          69.00       278.99
  218.87        2954.25           1279          72.00       292.07
  218.90        2954.50           1282          64.00       257.19
  218.93        2954.75           1286          72.00       292.07
  218.96        2955.00           1289          67.00       270.27
  218.99        2955.25           1292          63.00       252.84
  219.02        2955.50           1296          70.00       283.35
  219.05        2955.75           1299          65.00       261.55
  219.08        2956.00           1302          71.00       287.71
  219.11        2956.25           1306          67.00       270.27
  219.14        2956.50           1309          62.00       248.48
  219.17        2956.75           1312          71.00       287.71
  219.20        2957.00           1316          65.00       261.55
  219.24        2957.25           1319          71.00       287.71
  219.27        2957.50           1322          77.00       313.87
  219.30        2957.75           1326          80.00       326.94
  219.33        2958.00           1329          66.00       265.91
  219.36        2958.25           1332          65.00       261.55
  219.39        2958.50           1336          75.00       305.15
  219.42        2958.75           1339          62.00       248.48
  219.45        2959.00           1342          70.00       283.35
  219.48        2959.25           1346          78.00       318.22
  219.51        2959.50           1349          83.00       340.02
  219.54        2959.75           1352          81.00       331.30
  219.57        2960.00           1356         113.00       470.80
  219.60        2960.25           1359         142.00       597.22
  219.63        2960.50           1362         172.00       728.00
  219.66        2960.75           1366         222.00       945.97
  219.70        2961.00           1369         263.00      1124.71
  219.73        2961.25           1372         330.00      1416.80
  219.76        2961.50           1376         399.00      1717.61
  219.79        2961.75           1379         556.00      2402.09
  219.82        2962.00           1382        1133.00      4917.90
  219.85        2962.25           1386        2707.00     11782.72
  219.88        2962.50           1389        4239.00     18467.07
  219.91        2962.75           1392        5681.00     24761.20
  219.94        2963.00           1396        7639.00     33311.39
  219.97        2963.25           1399        9167.00     39986.92
  220.00        2963.50           1402       10771.00     46997.35
  220.03        2963.75           1406       12938.00     56473.10
  220.06        2964.00           1409       14597.00     63731.15
  220.10        2964.25           1412       16415.00     71688.45
  220.13        2964.50           1416       18370.00     80249.65
  220.16        2964.75           1419       20115.00     87894.93
  220.19        2965.00           1422       21695.00     94820.34
  220.22        2965.25           1426       23815.00    104117.20
  220.25        2965.50           1429       25283.00    110557.90
  220.28        2965.75           1432       27002.00    118103.00
  220.31        2966.00           1436       29046.00    127079.00
  220.34        2966.25           1439       30518.00    133546.20
  220.37        2966.50           1442       32116.00    140569.80
  220.40        2966.75           1446       33690.00    147490.70
  220.43        2967.00           1449       33962.00    148687.10
  220.46        2967.25           1452       34051.00    149078.50
  220.50        2967.50           1456       34101.00    149298.40
  220.53        2967.75           1459       33984.00    148783.80
  220.56        2968.00           1462       33747.00    147741.40
  220.59        2968.25           1466       33097.00    144882.90
  220.62        2968.50           1469       31589.00    138253.10
  220.65        2968.75           1472       30350.00    132807.90
  220.68        2969.00           1476       28215.00    123429.20
  220.71        2969.25           1479       26730.00    116908.90
  220.74        2969.50           1482       25325.00    110742.20
  220.77        2969.75           1486       23252.00    101647.80
  220.80        2970.00           1489       21617.00     94478.39
  220.83        2970.25           1492       20076.00     87724.02
  220.87        2970.50           1496       17922.00     78287.41
  220.90        2970.75           1499       16447.00     71828.56
  220.93        2971.00           1502       14831.00     64755.15
  220.96        2971.25           1506       12791.00     55830.14
  220.99        2971.50           1509       11111.00     48483.73
  221.02        2971.75           1513        9042.00     39440.71
  221.05        2972.00           1516        7585.00     33075.53
  221.08        2972.25           1519        6052.00     26380.94
  221.11        2972.50           1523        4077.00     17760.12
  221.14        2972.75           1526        2658.00     11568.97
  221.18        2973.00           1529        1296.00      5628.68
  221.21        2973.25           1533         502.00      2166.66
  221.24        2973.50           1536         345.00      1482.19
  221.27        2973.75           1539         286.00      1224.98
  221.30        2974.00           1543         235.00      1002.65
  221.33        2974.25           1546         173.00       732.36
  221.36        2974.50           1549         139.00       584.14
  221.39        2974.75           1553         111.00       462.08
  221.42        2975.00           1556          81.00       331.30
  221.45        2975.25           1559          73.00       296.43
  221.48        2975.50           1563          68.00       274.63
  221.51        2975.75           1566          64.00       257.19
  221.54        2976.00           1569          58.00       231.04
  221.58        2976.25           1573          71.00       287.71
  221.61        2976.50           1576          61.00       244.12
  221.64        2976.75           1579          60.00       239.76
  221.67        2977.00           1583          66.00       265.91
  221.70        2977.25           1586          57.00       226.68
  221.73        2977.50           1590          58.00       231.04
  221.76        2977.75           1593          72.00       292.07
  221.79        2978.00           1596          69.00       278.99
  221.82        2978.25           1600          62.00       248.48
  221.85        2978.50           1603          67.00       270.27
  221.88        2978.75           1606          62.00       248.48
  221.91        2979.00           1610          69.00       278.99
  221.95        2979.25           1613          65.00       261.55
  221.98        2979.50           1616          67.00       270.27
  222.01        2979.75           1620          73.00       296.43
  222.04        2980.00           1623          59.00       235.40
  222.07        2980.25           1626          67.00       270.27
  222.10        2980.50           1630          68.00       274.63
  222.13        2980.75           1633          65.00       261.55
  222.16        2981.00           1637          52.00       204.88
  222.19        2981.25           1640          65.00       261.55
  222.22        2981.50           1643          60.00       239.76
  222.25        2981.75           1647          64.00       257.19
  222.28        2982.00           1650          63.00       252.84
  222.31        2982.25           1653          69.00       278.99
  222.35        2982.50           1657          66.00       265.91
  222.38        2982.75           1660          64.00       257.19
  222.41        2983.00           1663          67.00       270.27
  222.44        2983.25           1667          59.00       235.40
  222.47        2983.50           1670          65.00       261.55
  222.50        2983.75           1673          64.00       257.19
  222.53        2984.00           1677          60.00       239.76
HS scan finished at 03:42:45
end
************************************************************
  HS Scan of (1) Internal mercury lamp
************************************************************
Integration time is 0.2294 seconds per sample
dh111017Manchester 53.47 2.23 2.804185pr1000
************************************************************
Dead Time -------------------------  3E-08 
Number of Cycles Used -------------  4 
Starting Wavelength (Angstroms) ---  2950 
Final Wavelength (Angstoms) -------  2984 
Wavelength Increment (Angstroms) --  .25 
Filter Wheel #1 Position ---------- (1) Ground quartz diffuser (ND=2.32)
Filter Wheel #2 Position ---------- (1) Neutral Density 0.494



************************************************************
HS scan start time = 18:12:04
Dark Count =  7.6 


Time (GMT)  Wavelength (Ang)  Step Number  Raw Counts  Counts/Second

 1092.43        2950.00           1222          69.00       267.66
 1092.50        2950.25           1226          75.00       293.81
 1092.53        2950.50           1229          76.00       298.17
 1092.56        2950.75           1232          67.00       258.94
 1092.59        2951.00           1236          77.00       302.53
 1092.62        2951.25           1239          60.00       228.42
 1092.65        2951.50           1242          69.00       267.66
 1092.68        2951.75           1246          70.00       272.02
 1092.71        2952.00           1249          77.00       302.53
 1092.74        2952.25           1252          68.00       263.30
 1092.77        2952.50           1256          63.00       241.50
 1092.80        2952.75           1259          67.00       258.94
 1092.83        2953.00           1262          74.00       289.45
 1092.87        2953.25           1266          79.00       311.25
 1092.90        2953.50           1269          75.00       293.81
 1092.93        2953.75           1272          73.00       285.09
 1092.96        2954.00           1276          70.00       272.02
 1092.99        2954.25           1279          79.00       311.25
 1093.02        2954.50           1282          69.00       267.66
 1093.05        2954.75           1286          72.00       280.73
 1093.08        2955.00           1289          61.00       232.78
 1093.11        2955.25           1292          72.00       280.73
 1093.14        2955.50           1296          80.00       315.61
 1093.17        2955.75           1299          74.00       289.45
 1093.20        2956.00           1302          66.00       254.58
 1093.23        2956.25           1306          71.00       276.38
 1093.26        2956.50           1309          69.00       267.66
 1093.29        2956.75           1312          65.00       250.22
 1093.32        2957.00           1316          70.00       272.02
 1093.35        2957.25           1319          69.00       267.66
 1093.39        2957.50           1322          70.00       272.02
 1093.42        2957.75           1326          68.00       263.30
 1093.45        2958.00           1329          64.00       245.86
 1093.48        2958.25           1332          77.00       302.53
 1093.51        2958.50           1336          76.00       298.17
 1093.54        2958.75           1339          66.00       254.58
 1093.57        2959.00           1342          69.00       267.66
 1093.60        2959.25           1346          67.00       258.94
 1093.63        2959.50           1349          76.00       298.17
 1093.66        2959.75           1352          92.00       367.92
 1093.69        2960.00           1356         122.00       498.70
 1093.73        2960.25           1359         146.00       603.32
 1093.76        2960.50           1362         190.00       795.14
 1093.79        2960.75           1366         248.00      1047.98
 1093.82        2961.00           1369         283.00      1200.57
 1093.85        2961.25           1372         318.00      1353.15
 1093.88        2961.50           1376         431.00      1845.79
 1093.91        2961.75           1379         648.00      2791.86
 1093.94        2962.00           1382        1374.00      5957.47
 1093.97        2962.25           1386        2947.00     12818.35
 1094.00        2962.50           1389        4419.00     19241.27
 1094.03        2962.75           1392        5909.00     25745.25
 1094.06        2963.00           1396        7816.00     34073.17
 1094.10        2963.25           1399        9504.00     41448.20
 1094.13        2963.50           1402       11012.00     48039.55
 1094.16        2963.75           1406       13198.00     57599.01
 1094.19        2964.00           1409       14726.00     64284.28
 1094.22        2964.25           1412       16288.00     71121.07
 1094.25        2964.50           1416       18839.00     82292.71
 1094.28        2964.75           1419       20319.00     88777.54
 1094.31        2965.00           1422       21698.00     94822.11
 1094.34        2965.25           1426       23872.00    104355.80
 1094.38        2965.50           1429       25337.00    110783.50
 1094.41        2965.75           1432       26909.00    117683.30
 1094.44        2966.00           1436       29019.00    126949.00
 1094.47        2966.25           1439       30531.00    133591.90
 1094.50        2966.50           1442       31690.00    138685.70
 1094.53        2966.75           1446       33231.00    145460.80
 1094.56        2967.00           1449       33643.00    147272.60
 1094.59        2967.25           1452       33550.00    146863.60
 1094.62        2967.50           1456       33746.00    147725.60
 1094.65        2967.75           1459       33789.00    147914.70
 1094.69        2968.00           1462       33511.00    146692.10
 1094.72        2968.25           1466       32337.00    141529.90
 1094.75        2968.50           1469       31155.00    136334.20
 1094.78        2968.75           1472       29882.00    130740.20
 1094.81        2969.00           1476       27837.00    121757.80
 1094.84        2969.25           1479       26411.00    115497.10
 1094.87        2969.50           1482       24928.00    108988.70
 1094.90        2969.75           1486       22890.00    100048.80
 1094.93        2970.00           1489       21301.00     93081.72
 1094.97        2970.25           1492       19640.00     85802.10
 1095.00        2970.50           1496       17671.00     77176.75
 1095.03        2970.75           1499       16014.00     69921.59
 1095.06        2971.00           1502       14566.00     63584.13
 1095.09        2971.25           1506       12292.00     53636.37
 1095.12        2971.50           1509       10839.00     47283.24
 1095.15        2971.75           1513        8842.00     38555.47
 1095.18        2972.00           1516        7243.00     31570.43
 1095.21        2972.25           1519        5864.00     25548.78
 1095.25        2972.50           1523        3896.00     16958.93
 1095.28        2972.75           1526        2504.00     10885.86
 1095.31        2973.00           1529        1185.00      5133.31
 1095.34        2973.25           1533         487.00      2089.93
 1095.37        2973.50           1536         333.00      1418.54
 1095.40        2973.75           1539         276.00      1170.05
 1095.43        2974.00           1543         220.00       925.92
 1095.46        2974.25           1546         189.00       790.78
 1095.49        2974.50           1549         137.00       564.09
 1095.52        2974.75           1553         100.00       402.79
 1095.55        2975.00           1556          90.00       359.20
 1095.59        2975.25           1559          77.00       302.53
 1095.62        2975.50           1563          65.00       250.22
 1095.65        2975.75           1566          68.00       263.30
 1095.68        2976.00           1569          72.00       280.73
 1095.71        2976.25           1573          71.00       276.38
 1095.74        2976.50           1576          71.00       276.38
 1095.77        2976.75           1579          74.00       289.45
 1095.80        2977.00           1583          69.00       267.66
 1095.83        2977.25           1586          65.00       250.22
 1095.86        2977.50           1590          70.00       272.02
 1095.89        2977.75           1593          64.00       245.86
 1095.92        2978.00           1596          60.00       228.42
 1095.96        2978.25           1600          72.00       280.73
 1095.99        2978.50           1603          60.00       228.42
 1096.02        2978.75           1606          60.00       228.42
 1096.05        2979.00           1610          66.00       254.58
 1096.08        2979.25           1613          61.00       232.78
 1096.11        2979.50           1616          60.00       228.42
 1096.14        2979.75           1620          62.00       237.14
 1096.17        2980.00           1623          60.00       228.42
 1096.20        2980.25           1626          66.00       254.58
 1096.23        2980.50           1630          66.00       254.58
 1096.26        2980.75           1633          75.00       293.81
 1096.29        2981.00           1637          63.00       241.50
 1096.32        2981.25           1640          55.00       206.63
 1096.36        2981.50           1643          61.00       232.78
 1096.39        2981.75           1647          65.00       250.22
 1096.42        2982.00           1650          60.00       228.42
 1096.45        2982.25           1653          69.00       267.66
 1096.48        2982.50           1657          63.00       241.50
 1096.51        2982.75           1660          62.00       237.14
 1096.54        2983.00           1663          60.00       228.42
 1096.57        2983.25           1667          62.00       237.14
 1096.60        2983.50           1670          62.00       237.14
 1096.63        2983.75           1673          61.00       232.78
 1096.66        2984.00           1677          60.00       228.42
HS scan finished at 18:16:53
end
