************************************************************
  HS Scan of (1) Internal mercury lamp
************************************************************
Integration time is 0.2294 seconds per sample
dh091018Manchester 53.47 2.23 2.857833pr1000
************************************************************
Dead Time -------------------------  3E-08 
Number of Cycles Used -------------  4 
Starting Wavelength (Angstroms) ---  2950 
Final Wavelength (Angstoms) -------  2984 
Wavelength Increment (Angstroms) --  .25 
Filter Wheel #1 Position ---------- (1) Ground quartz diffuser (ND=2.32)
Filter Wheel #2 Position ---------- (1) Neutral Density 0.494



************************************************************
HS scan start time = 18:13:19
Dark Count =  6.5 


Time (GMT)  Wavelength (Ang)  Step Number  Raw Counts  Counts/Second

 1093.69        2950.00           1222          42.00       154.75
 1093.76        2950.25           1226          55.00       211.42
 1093.79        2950.50           1229          51.00       193.99
 1093.82        2950.75           1232          50.00       189.63
 1093.85        2951.00           1236          56.00       215.78
 1093.88        2951.25           1239          47.00       176.55
 1093.91        2951.50           1242          44.00       163.47
 1093.94        2951.75           1246          45.00       167.83
 1093.97        2952.00           1249          43.00       159.11
 1094.00        2952.25           1252          49.00       185.27
 1094.03        2952.50           1256          49.00       185.27
 1094.06        2952.75           1259          43.00       159.11
 1094.10        2953.00           1262          46.00       172.19
 1094.13        2953.25           1266          42.00       154.75
 1094.16        2953.50           1269          54.00       207.06
 1094.19        2953.75           1272          43.00       159.11
 1094.22        2954.00           1276          56.00       215.78
 1094.25        2954.25           1279          54.00       207.06
 1094.28        2954.50           1282          41.00       150.39
 1094.31        2954.75           1286          49.00       185.27
 1094.34        2955.00           1289          45.00       167.83
 1094.37        2955.25           1292          51.00       193.99
 1094.40        2955.50           1296          56.00       215.78
 1094.43        2955.75           1299          44.00       163.47
 1094.46        2956.00           1302          50.00       189.63
 1094.49        2956.25           1306          53.00       202.70
 1094.52        2956.50           1309          52.00       198.34
 1094.55        2956.75           1312          53.00       202.70
 1094.58        2957.00           1316          46.00       172.19
 1094.62        2957.25           1319          49.00       185.27
 1094.65        2957.50           1322          54.00       207.06
 1094.68        2957.75           1326          54.00       207.06
 1094.71        2958.00           1329          55.00       211.42
 1094.74        2958.25           1332          50.00       189.63
 1094.77        2958.50           1336          47.00       176.55
 1094.80        2958.75           1339          55.00       211.42
 1094.83        2959.00           1342          54.00       207.06
 1094.86        2959.25           1346          48.00       180.91
 1094.89        2959.50           1349          51.00       193.99
 1094.92        2959.75           1352          61.00       237.58
 1094.95        2960.00           1356          84.00       337.84
 1094.98        2960.25           1359          99.00       403.23
 1095.01        2960.50           1362         135.00       560.17
 1095.04        2960.75           1366         166.00       695.31
 1095.08        2961.00           1369         201.00       847.89
 1095.11        2961.25           1372         238.00      1009.18
 1095.14        2961.50           1376         283.00      1205.36
 1095.17        2961.75           1379         345.00      1475.65
 1095.20        2962.00           1382         621.00      2678.94
 1095.23        2962.25           1386        1771.00      7693.58
 1095.26        2962.50           1389        2963.00     12892.95
 1095.29        2962.75           1392        4239.00     18460.53
 1095.32        2963.00           1396        5863.00     25549.22
 1095.35        2963.25           1399        7149.00     31164.70
 1095.39        2963.50           1402        8215.00     35820.95
 1095.42        2963.75           1406        9944.00     43375.94
 1095.45        2964.00           1409       11234.00     49014.92
 1095.48        2964.25           1412       12435.00     54266.57
 1095.51        2964.50           1416       14084.00     61479.90
 1095.54        2964.75           1419       15631.00     68249.88
 1095.57        2965.00           1422       16769.00     73231.77
 1095.60        2965.25           1426       18483.00     80738.04
 1095.63        2965.50           1429       19659.00     85890.18
 1095.67        2965.75           1432       20959.00     91587.39
 1095.70        2966.00           1436       22616.00     98852.01
 1095.73        2966.25           1439       23726.00    103720.20
 1095.76        2966.50           1442       24871.00    108743.50
 1095.79        2966.75           1446       26210.00    114619.70
 1095.82        2967.00           1449       26619.00    116415.00
 1095.85        2967.25           1452       26977.00    117986.60
 1095.88        2967.50           1456       26803.00    117222.80
 1095.91        2967.75           1459       26861.00    117477.40
 1095.94        2968.00           1462       26681.00    116687.20
 1095.98        2968.25           1466       26066.00    113987.70
 1096.01        2968.50           1469       25119.00    109831.70
 1096.04        2968.75           1472       23973.00    104803.70
 1096.07        2969.00           1476       22572.00     98659.06
 1096.10        2969.25           1479       21281.00     92998.86
 1096.13        2969.50           1482       20131.00     87958.48
 1096.16        2969.75           1486       18363.00     80212.40
 1096.19        2970.00           1489       17163.00     74956.95
 1096.22        2970.25           1492       16171.00     70613.69
 1096.25        2970.50           1496       14493.00     63269.50
 1096.29        2970.75           1499       13253.00     57844.41
 1096.32        2971.00           1502       11939.00     52097.49
 1096.35        2971.25           1506       10443.00     45556.99
 1096.38        2971.50           1509        9058.00     39504.07
 1096.41        2971.75           1513        7238.00     31553.40
 1096.44        2972.00           1516        6114.00     26645.09
 1096.47        2972.25           1519        4954.00     21581.10
 1096.50        2972.50           1523        3368.00     14659.89
 1096.53        2972.75           1526        2255.00      9804.54
 1096.56        2973.00           1529        1199.00      5199.16
 1096.60        2973.25           1533         427.00      1833.14
 1096.63        2973.50           1536         282.00      1201.00
 1096.66        2973.75           1539         250.00      1061.50
 1096.69        2974.00           1543         226.00       956.87
 1096.72        2974.25           1546         157.00       656.07
 1096.75        2974.50           1549         125.00       516.57
 1096.78        2974.75           1553          92.00       372.72
 1096.81        2975.00           1556          66.00       259.37
 1096.84        2975.25           1559          51.00       193.99
 1096.88        2975.50           1563          47.00       176.55
 1096.91        2975.75           1566          44.00       163.47
 1096.94        2976.00           1569          49.00       185.27
 1096.97        2976.25           1573          52.00       198.34
 1097.00        2976.50           1576          51.00       193.99
 1097.03        2976.75           1579          46.00       172.19
 1097.06        2977.00           1583          43.00       159.11
 1097.09        2977.25           1586          46.00       172.19
 1097.12        2977.50           1590          44.00       163.47
 1097.15        2977.75           1593          57.00       220.14
 1097.18        2978.00           1596          48.00       180.91
 1097.21        2978.25           1600          49.00       185.27
 1097.24        2978.50           1603          41.00       150.39
 1097.27        2978.75           1606          52.00       198.34
 1097.31        2979.00           1610          42.00       154.75
 1097.34        2979.25           1613          45.00       167.83
 1097.37        2979.50           1616          44.00       163.47
 1097.40        2979.75           1620          45.00       167.83
 1097.43        2980.00           1623          43.00       159.11
 1097.46        2980.25           1626          45.00       167.83
 1097.49        2980.50           1630          42.00       154.75
 1097.52        2980.75           1633          49.00       185.27
 1097.55        2981.00           1637          44.00       163.47
 1097.58        2981.25           1640          43.00       159.11
 1097.61        2981.50           1643          43.00       159.11
 1097.65        2981.75           1647          41.00       150.39
 1097.68        2982.00           1650          50.00       189.63
 1097.71        2982.25           1653          39.00       141.67
 1097.74        2982.50           1657          44.00       163.47
 1097.77        2982.75           1660          48.00       180.91
 1097.80        2983.00           1663          45.00       167.83
 1097.83        2983.25           1667          48.00       180.91
 1097.86        2983.50           1670          47.00       176.55
 1097.89        2983.75           1673          47.00       176.55
 1097.92        2984.00           1677          45.00       167.83
HS scan finished at 18:18:08
end
