************************************************************
  HS Scan of (1) Internal mercury lamp
************************************************************
Integration time is 0.2294 seconds per sample
dh131017Manchester 53.47 2.23 2.857833pr1000
************************************************************
Dead Time -------------------------  3E-08 
Number of Cycles Used -------------  4 
Starting Wavelength (Angstroms) ---  2950 
Final Wavelength (Angstoms) -------  2984 
Wavelength Increment (Angstroms) --  .25 
Filter Wheel #1 Position ---------- (1) Ground quartz diffuser (ND=2.32)
Filter Wheel #2 Position ---------- (1) Neutral Density 0.494



************************************************************
HS scan start time = 03:42:32
Dark Count =  7.2 


Time (GMT)  Wavelength (Ang)  Step Number  Raw Counts  Counts/Second

  222.90        2950.00           1222          70.00       273.76
  222.97        2950.25           1226          68.00       265.04
  223.00        2950.50           1229          73.00       286.84
  223.03        2950.75           1232          70.00       273.76
  223.06        2951.00           1236          63.00       243.25
  223.09        2951.25           1239          65.00       251.96
  223.12        2951.50           1242          71.00       278.12
  223.15        2951.75           1246          64.00       247.60
  223.18        2952.00           1249          68.00       265.04
  223.21        2952.25           1252          62.00       238.89
  223.24        2952.50           1256          64.00       247.60
  223.28        2952.75           1259          60.00       230.17
  223.31        2953.00           1262          69.00       269.40
  223.34        2953.25           1266          72.00       282.48
  223.37        2953.50           1269          68.00       265.04
  223.40        2953.75           1272          69.00       269.40
  223.43        2954.00           1276          70.00       273.76
  223.46        2954.25           1279          68.00       265.04
  223.49        2954.50           1282          67.00       260.68
  223.52        2954.75           1286          70.00       273.76
  223.55        2955.00           1289          74.00       291.20
  223.58        2955.25           1292          69.00       269.40
  223.61        2955.50           1296          67.00       260.68
  223.65        2955.75           1299          65.00       251.96
  223.68        2956.00           1302          73.00       286.84
  223.71        2956.25           1306          65.00       251.96
  223.74        2956.50           1309          68.00       265.04
  223.77        2956.75           1312          59.00       225.81
  223.80        2957.00           1316          71.00       278.12
  223.83        2957.25           1319          73.00       286.84
  223.86        2957.50           1322          70.00       273.76
  223.89        2957.75           1326          61.00       234.53
  223.92        2958.00           1329          77.00       304.27
  223.95        2958.25           1332          72.00       282.48
  223.98        2958.50           1336          66.00       256.32
  224.01        2958.75           1339          67.00       260.68
  224.04        2959.00           1342          72.00       282.48
  224.07        2959.25           1346          78.00       308.63
  224.11        2959.50           1349          83.00       330.43
  224.14        2959.75           1352         103.00       417.62
  224.17        2960.00           1356         140.00       578.91
  224.20        2960.25           1359         167.00       696.61
  224.23        2960.50           1362         211.00       888.43
  224.26        2960.75           1366         267.00      1132.56
  224.29        2961.00           1369         301.00      1280.78
  224.32        2961.25           1372         354.00      1511.84
  224.35        2961.50           1376         422.00      1808.29
  224.38        2961.75           1379         562.00      2418.66
  224.41        2962.00           1382        1138.00      4930.11
  224.44        2962.25           1386        2805.00     12200.63
  224.48        2962.50           1389        4302.00     18732.41
  224.51        2962.75           1392        5766.00     25122.68
  224.54        2963.00           1396        7729.00     33694.90
  224.57        2963.25           1399        9364.00     40838.15
  224.60        2963.50           1402       10917.00     47625.98
  224.63        2963.75           1406       12977.00     56634.07
  224.66        2964.00           1409       14698.00     64163.50
  224.69        2964.25           1412       16174.00     70623.76
  224.72        2964.50           1416       18415.00     80437.12
  224.76        2964.75           1419       19914.00     87004.49
  224.79        2965.00           1422       21426.00     93631.43
  224.82        2965.25           1426       23814.00    104103.20
  224.85        2965.50           1429       25260.00    110447.30
  224.88        2965.75           1432       27067.00    118378.70
  224.91        2966.00           1436       29146.00    127508.60
  224.94        2966.25           1439       30617.00    133971.60
  224.97        2966.50           1442       31973.00    139931.40
  225.00        2966.75           1446       33700.00    147525.10
  225.03        2967.00           1449       34091.00    149244.80
  225.06        2967.25           1452       34198.00    149715.40
  225.10        2967.50           1456       34158.00    149539.50
  225.13        2967.75           1459       34281.00    150080.50
  225.16        2968.00           1462       34091.00    149244.80
  225.19        2968.25           1466       33478.00    146548.70
  225.22        2968.50           1469       31993.00    140019.40
  225.25        2968.75           1472       30415.00    133083.90
  225.28        2969.00           1476       28594.00    125084.00
  225.31        2969.25           1479       27093.00    118492.80
  225.34        2969.50           1482       25486.00    111439.10
  225.37        2969.75           1486       23563.00    103002.20
  225.41        2970.00           1489       21827.00     95389.42
  225.44        2970.25           1492       20415.00     89200.03
  225.47        2970.50           1496       18325.00     80042.90
  225.50        2970.75           1499       16718.00     73005.41
  225.53        2971.00           1502       14997.00     65471.98
  225.56        2971.25           1506       12986.00     56673.43
  225.59        2971.50           1509       11245.00     49059.95
  225.62        2971.75           1513        9208.00     40156.46
  225.65        2972.00           1516        7566.00     32982.93
  225.68        2972.25           1519        6043.00     26332.04
  225.72        2972.50           1523        3952.00     17205.04
  225.75        2972.75           1526        2495.00     10848.34
  225.78        2973.00           1529        1197.00      5187.38
  225.81        2973.25           1533         499.00      2143.99
  225.84        2973.50           1536         345.00      1472.60
  225.87        2973.75           1539         302.00      1285.14
  225.90        2974.00           1543         232.00       979.98
  225.93        2974.25           1546         171.00       714.05
  225.96        2974.50           1549         136.00       561.47
  226.00        2974.75           1553          96.00       387.10
  226.03        2975.00           1556          83.00       330.43
  226.06        2975.25           1559          68.00       265.04
  226.09        2975.50           1563          65.00       251.96
  226.12        2975.75           1566          82.00       326.07
  226.15        2976.00           1569          67.00       260.68
  226.18        2976.25           1573          64.00       247.60
  226.21        2976.50           1576          67.00       260.68
  226.24        2976.75           1579          62.00       238.89
  226.28        2977.00           1583          60.00       230.17
  226.31        2977.25           1586          62.00       238.89
  226.34        2977.50           1590          62.00       238.89
  226.37        2977.75           1593          68.00       265.04
  226.40        2978.00           1596          68.00       265.04
  226.43        2978.25           1600          66.00       256.32
  226.46        2978.50           1603          64.00       247.60
  226.49        2978.75           1606          65.00       251.96
  226.52        2979.00           1610          68.00       265.04
  226.55        2979.25           1613          57.00       217.09
  226.58        2979.50           1616          64.00       247.60
  226.61        2979.75           1620          78.00       308.63
  226.64        2980.00           1623          70.00       273.76
  226.67        2980.25           1626          61.00       234.53
  226.70        2980.50           1630          73.00       286.84
  226.73        2980.75           1633          66.00       256.32
  226.77        2981.00           1637          62.00       238.89
  226.80        2981.25           1640          67.00       260.68
  226.83        2981.50           1643          57.00       217.09
  226.86        2981.75           1647          61.00       234.53
  226.89        2982.00           1650          62.00       238.89
  226.92        2982.25           1653          53.00       199.65
  226.95        2982.50           1657          55.00       208.37
  226.98        2982.75           1660          63.00       243.25
  227.01        2983.00           1663          70.00       273.76
  227.04        2983.25           1667          56.00       212.73
  227.07        2983.50           1670          64.00       247.60
  227.10        2983.75           1673          63.00       243.25
  227.14        2984.00           1677          61.00       234.53
HS scan finished at 03:47:21
end
************************************************************
  HS Scan of (1) Internal mercury lamp
************************************************************
Integration time is 0.2294 seconds per sample
dh131017Manchester 53.47 2.23 2.965129pr1000
************************************************************
Dead Time -------------------------  3E-08 
Number of Cycles Used -------------  4 
Starting Wavelength (Angstroms) ---  2950 
Final Wavelength (Angstoms) -------  2984 
Wavelength Increment (Angstroms) --  .25 
Filter Wheel #1 Position ---------- (1) Ground quartz diffuser (ND=2.32)
Filter Wheel #2 Position ---------- (1) Neutral Density 0.494



************************************************************
HS scan start time = 18:11:59
Dark Count =  4 


Time (GMT)  Wavelength (Ang)  Step Number  Raw Counts  Counts/Second

 1092.34        2950.00           1222          67.00       274.63
 1092.41        2950.25           1226          70.00       287.71
 1092.44        2950.50           1229          71.00       292.07
 1092.47        2950.75           1232          74.00       305.15
 1092.51        2951.00           1236          60.00       244.12
 1092.54        2951.25           1239          71.00       292.07
 1092.57        2951.50           1242          70.00       287.71
 1092.60        2951.75           1246          69.00       283.35
 1092.63        2952.00           1249          75.00       309.51
 1092.66        2952.25           1252          71.00       292.07
 1092.69        2952.50           1256          64.00       261.55
 1092.72        2952.75           1259          73.00       300.79
 1092.75        2953.00           1262          64.00       261.55
 1092.78        2953.25           1266          75.00       309.51
 1092.81        2953.50           1269          69.00       283.35
 1092.84        2953.75           1272          70.00       287.71
 1092.87        2954.00           1276          72.00       296.43
 1092.90        2954.25           1279          65.00       265.91
 1092.94        2954.50           1282          64.00       261.55
 1092.97        2954.75           1286          68.00       278.99
 1093.00        2955.00           1289          71.00       292.07
 1093.03        2955.25           1292          69.00       283.35
 1093.06        2955.50           1296          65.00       265.91
 1093.09        2955.75           1299          63.00       257.19
 1093.12        2956.00           1302          68.00       278.99
 1093.15        2956.25           1306          81.00       335.66
 1093.18        2956.50           1309          72.00       296.43
 1093.21        2956.75           1312          67.00       274.63
 1093.24        2957.00           1316          69.00       283.35
 1093.27        2957.25           1319          73.00       300.79
 1093.30        2957.50           1322          74.00       305.15
 1093.33        2957.75           1326          71.00       292.07
 1093.37        2958.00           1329          60.00       244.12
 1093.40        2958.25           1332          67.00       274.63
 1093.43        2958.50           1336          72.00       296.43
 1093.46        2958.75           1339          73.00       300.79
 1093.49        2959.00           1342          70.00       287.71
 1093.52        2959.25           1346          80.00       331.30
 1093.55        2959.50           1349          81.00       335.66
 1093.58        2959.75           1352          97.00       405.41
 1093.61        2960.00           1356         135.00       571.06
 1093.64        2960.25           1359         167.00       710.56
 1093.67        2960.50           1362         201.00       858.78
 1093.70        2960.75           1366         263.00      1129.07
 1093.73        2961.00           1369         312.00      1342.69
 1093.76        2961.25           1372         352.00      1517.07
 1093.80        2961.50           1376         421.00      1817.88
 1093.83        2961.75           1379         532.00      2301.82
 1093.86        2962.00           1382        1029.00      4468.78
 1093.89        2962.25           1386        2857.00     12441.44
 1093.92        2962.50           1389        4512.00     19662.86
 1093.95        2962.75           1392        6219.00     27114.46
 1093.98        2963.00           1396        8323.00     36303.68
 1094.01        2963.25           1399        9767.00     42613.30
 1094.04        2963.50           1402       11483.00     50114.52
 1094.07        2963.75           1406       13872.00     60563.30
 1094.11        2964.00           1409       15590.00     68081.38
 1094.14        2964.25           1412       17341.00     75747.35
 1094.17        2964.50           1416       19737.00     86242.91
 1094.20        2964.75           1419       21397.00     93518.33
 1094.23        2965.00           1422       23192.00    101389.00
 1094.26        2965.25           1426       25079.00    109667.10
 1094.29        2965.50           1429       27109.00    118577.10
 1094.32        2965.75           1432       28948.00    126653.00
 1094.35        2966.00           1436       31079.00    136016.00
 1094.39        2966.25           1439       32610.00    142746.00
 1094.42        2966.50           1442       34182.00    149659.10
 1094.45        2966.75           1446       35818.00    156856.70
 1094.48        2967.00           1449       36366.00    159268.30
 1094.51        2967.25           1452       36254.00    158775.40
 1094.54        2967.50           1456       36448.00    159629.20
 1094.57        2967.75           1459       36379.00    159325.60
 1094.60        2968.00           1462       36311.00    159026.30
 1094.63        2968.25           1466       35119.00    153781.10
 1094.66        2968.50           1469       33613.00    147156.50
 1094.70        2968.75           1472       32114.00    140565.40
 1094.73        2969.00           1476       29959.00    131094.30
 1094.76        2969.25           1479       28426.00    124360.20
 1094.79        2969.50           1482       26818.00    117299.60
 1094.82        2969.75           1486       24580.00    107477.60
 1094.85        2970.00           1489       22888.00    100055.80
 1094.88        2970.25           1492       21112.00     92269.00
 1094.91        2970.50           1496       18948.00     82786.00
 1094.94        2970.75           1499       17363.00     75843.69
 1094.98        2971.00           1502       15700.00     68562.85
 1095.01        2971.25           1506       13403.00     58511.51
 1095.04        2971.50           1509       11750.00     51281.98
 1095.07        2971.75           1513        9522.00     41542.59
 1095.10        2972.00           1516        8013.00     34949.44
 1095.13        2972.25           1519        6496.00     28323.97
 1095.16        2972.50           1523        4385.00     19108.60
 1095.19        2972.75           1526        2826.00     12306.20
 1095.22        2973.00           1529        1465.00      6370.01
 1095.26        2973.25           1533         524.00      2266.94
 1095.29        2973.50           1536         337.00      1451.68
 1095.32        2973.75           1539         311.00      1338.33
 1095.35        2974.00           1543         261.00      1120.35
 1095.38        2974.25           1546         208.00       889.30
 1095.41        2974.50           1549         144.00       610.30
 1095.44        2974.75           1553         115.00       483.88
 1095.47        2975.00           1556          85.00       353.10
 1095.50        2975.25           1559          77.00       318.22
 1095.53        2975.50           1563          64.00       261.55
 1095.56        2975.75           1566          76.00       313.87
 1095.60        2976.00           1569          63.00       257.19
 1095.63        2976.25           1573          61.00       248.48
 1095.66        2976.50           1576          68.00       278.99
 1095.69        2976.75           1579          64.00       261.55
 1095.72        2977.00           1583          66.00       270.27
 1095.75        2977.25           1586          58.00       235.40
 1095.78        2977.50           1590          68.00       278.99
 1095.81        2977.75           1593          65.00       265.91
 1095.84        2978.00           1596          74.00       305.15
 1095.87        2978.25           1600          71.00       292.07
 1095.90        2978.50           1603          62.00       252.84
 1095.93        2978.75           1606          56.00       226.68
 1095.97        2979.00           1610          67.00       274.63
 1096.00        2979.25           1613          66.00       270.27
 1096.03        2979.50           1616          55.00       222.32
 1096.06        2979.75           1620          62.00       252.84
 1096.09        2980.00           1623          69.00       283.35
 1096.12        2980.25           1626          66.00       270.27
 1096.15        2980.50           1630          69.00       283.35
 1096.18        2980.75           1633          68.00       278.99
 1096.21        2981.00           1637          63.00       257.19
 1096.24        2981.25           1640          57.00       231.04
 1096.27        2981.50           1643          69.00       283.35
 1096.30        2981.75           1647          65.00       265.91
 1096.33        2982.00           1650          63.00       257.19
 1096.36        2982.25           1653          62.00       252.84
 1096.39        2982.50           1657          62.00       252.84
 1096.42        2982.75           1660          58.00       235.40
 1096.45        2983.00           1663          61.00       248.48
 1096.49        2983.25           1667          63.00       257.19
 1096.52        2983.50           1670          64.00       261.55
 1096.55        2983.75           1673          56.00       226.68
 1096.58        2984.00           1677          66.00       270.27
HS scan finished at 18:16:48
end
