************************************************************
  HS Scan of (1) Internal mercury lamp
************************************************************
Integration time is 0.2294 seconds per sample
dh101018Manchester 53.47 2.23 3.072425pr1000
************************************************************
Dead Time -------------------------  3E-08 
Number of Cycles Used -------------  4 
Starting Wavelength (Angstroms) ---  2950 
Final Wavelength (Angstoms) -------  2984 
Wavelength Increment (Angstroms) --  .25 
Filter Wheel #1 Position ---------- (1) Ground quartz diffuser (ND=2.32)
Filter Wheel #2 Position ---------- (1) Neutral Density 0.494



************************************************************
HS scan start time = 18:12:01
Dark Count =  7.4 


Time (GMT)  Wavelength (Ang)  Step Number  Raw Counts  Counts/Second

 1092.38        2950.00           1222          48.00       176.98
 1092.45        2950.25           1226          54.00       203.14
 1092.48        2950.50           1229          58.00       220.58
 1092.51        2950.75           1232          51.00       190.06
 1092.54        2951.00           1236          51.00       190.06
 1092.57        2951.25           1239          47.00       172.63
 1092.60        2951.50           1242          52.00       194.42
 1092.63        2951.75           1246          44.00       159.55
 1092.66        2952.00           1249          47.00       172.63
 1092.69        2952.25           1252          45.00       163.91
 1092.72        2952.50           1256          46.00       168.27
 1092.76        2952.75           1259          50.00       185.70
 1092.79        2953.00           1262          56.00       211.86
 1092.82        2953.25           1266          46.00       168.27
 1092.85        2953.50           1269          55.00       207.50
 1092.88        2953.75           1272          51.00       190.06
 1092.91        2954.00           1276          48.00       176.98
 1092.94        2954.25           1279          46.00       168.27
 1092.97        2954.50           1282          53.00       198.78
 1093.00        2954.75           1286          45.00       163.91
 1093.03        2955.00           1289          46.00       168.27
 1093.06        2955.25           1292          47.00       172.63
 1093.10        2955.50           1296          53.00       198.78
 1093.13        2955.75           1299          48.00       176.98
 1093.16        2956.00           1302          52.00       194.42
 1093.19        2956.25           1306          55.00       207.50
 1093.22        2956.50           1309          51.00       190.06
 1093.25        2956.75           1312          50.00       185.70
 1093.28        2957.00           1316          47.00       172.63
 1093.31        2957.25           1319          49.00       181.34
 1093.34        2957.50           1322          51.00       190.06
 1093.37        2957.75           1326          52.00       194.42
 1093.40        2958.00           1329          51.00       190.06
 1093.44        2958.25           1332          54.00       203.14
 1093.47        2958.50           1336          51.00       190.06
 1093.50        2958.75           1339          50.00       185.70
 1093.53        2959.00           1342          49.00       181.34
 1093.56        2959.25           1346          46.00       168.27
 1093.59        2959.50           1349          53.00       198.78
 1093.62        2959.75           1352          63.00       242.37
 1093.65        2960.00           1356          86.00       342.64
 1093.68        2960.25           1359         120.00       490.85
 1093.71        2960.50           1362         153.00       634.71
 1093.74        2960.75           1366         194.00       813.45
 1093.77        2961.00           1369         222.00       935.51
 1093.81        2961.25           1372         282.00      1197.08
 1093.84        2961.50           1376         297.00      1262.47
 1093.87        2961.75           1379         462.00      1981.81
 1093.90        2962.00           1382         948.00      4100.77
 1093.93        2962.25           1386        2413.00     10489.79
 1093.96        2962.50           1389        3646.00     15868.93
 1093.99        2962.75           1392        4984.00     21708.12
 1094.02        2963.00           1396        6541.00     28505.62
 1094.05        2963.25           1399        7860.00     34266.25
 1094.08        2963.50           1402        9039.00     39417.12
 1094.12        2963.75           1406       10847.00     47319.09
 1094.15        2964.00           1409       12266.00     53523.54
 1094.18        2964.25           1412       13566.00     59209.71
 1094.21        2964.50           1416       15473.00     67554.38
 1094.24        2964.75           1419       16963.00     74077.25
 1094.27        2965.00           1422       18309.00     79971.94
 1094.30        2965.25           1426       20059.00     87639.00
 1094.33        2965.50           1429       21354.00     93314.91
 1094.36        2965.75           1432       22766.00     99505.84
 1094.40        2966.00           1436       24560.00    107375.00
 1094.43        2966.25           1439       25607.00    111969.20
 1094.46        2966.50           1442       26876.00    117539.30
 1094.49        2966.75           1446       28302.00    123800.70
 1094.52        2967.00           1449       28449.00    124446.30
 1094.55        2967.25           1452       28375.00    124121.30
 1094.58        2967.50           1456       28454.00    124468.30
 1094.61        2967.75           1459       28243.00    123541.60
 1094.64        2968.00           1462       28299.00    123787.50
 1094.68        2968.25           1466       27650.00    120937.50
 1094.71        2968.50           1469       26406.00    115476.10
 1094.74        2968.75           1472       25134.00    109893.50
 1094.77        2969.00           1476       23547.00    102931.10
 1094.80        2969.25           1479       22503.00     98352.55
 1094.83        2969.50           1482       21105.00     92223.42
 1094.86        2969.75           1486       19246.00     84076.66
 1094.89        2970.00           1489       18069.00     78920.72
 1094.92        2970.25           1492       16661.00     72754.96
 1094.96        2970.50           1496       15014.00     65545.50
 1094.99        2970.75           1499       13646.00     59559.68
 1095.02        2971.00           1502       12340.00     53847.16
 1095.05        2971.25           1506       10549.00     46016.40
 1095.08        2971.50           1509        9151.00     39906.51
 1095.11        2971.75           1513        7455.00     32497.23
 1095.14        2972.00           1516        6139.00     26750.32
 1095.17        2972.25           1519        4803.00     20918.09
 1095.21        2972.50           1523        3246.00     14123.68
 1095.24        2972.75           1526        1996.00      8670.96
 1095.27        2973.00           1529         850.00      3673.47
 1095.30        2973.25           1533         368.00      1572.00
 1095.33        2973.50           1536         283.00      1201.44
 1095.36        2973.75           1539         241.00      1018.34
 1095.39        2974.00           1543         201.00       843.96
 1095.42        2974.25           1546         149.00       617.27
 1095.45        2974.50           1549         121.00       495.21
 1095.48        2974.75           1553          93.00       373.15
 1095.52        2975.00           1556          73.00       285.97
 1095.55        2975.25           1559          51.00       190.06
 1095.58        2975.50           1563          47.00       172.63
 1095.61        2975.75           1566          47.00       172.63
 1095.64        2976.00           1569          60.00       229.30
 1095.67        2976.25           1573          51.00       190.06
 1095.70        2976.50           1576          47.00       172.63
 1095.73        2976.75           1579          46.00       168.27
 1095.76        2977.00           1583          46.00       168.27
 1095.79        2977.25           1586          48.00       176.98
 1095.82        2977.50           1590          40.00       142.11
 1095.85        2977.75           1593          51.00       190.06
 1095.88        2978.00           1596          42.00       150.83
 1095.91        2978.25           1600          44.00       159.55
 1095.94        2978.50           1603          54.00       203.14
 1095.97        2978.75           1606          45.00       163.91
 1096.00        2979.00           1610          41.00       146.47
 1096.03        2979.25           1613          46.00       168.27
 1096.07        2979.50           1616          47.00       172.63
 1096.10        2979.75           1620          50.00       185.70
 1096.13        2980.00           1623          38.00       133.39
 1096.16        2980.25           1626          44.00       159.55
 1096.19        2980.50           1630          57.00       216.22
 1096.22        2980.75           1633          48.00       176.98
 1096.25        2981.00           1637          50.00       185.70
 1096.28        2981.25           1640          45.00       163.91
 1096.31        2981.50           1643          35.00       120.31
 1096.34        2981.75           1647          41.00       146.47
 1096.37        2982.00           1650          45.00       163.91
 1096.40        2982.25           1653          54.00       203.14
 1096.43        2982.50           1657          48.00       176.98
 1096.46        2982.75           1660          37.00       129.03
 1096.49        2983.00           1663          45.00       163.91
 1096.53        2983.25           1667          50.00       185.70
 1096.56        2983.50           1670          45.00       163.91
 1096.59        2983.75           1673          49.00       181.34
 1096.62        2984.00           1677          39.00       137.75
HS scan finished at 18:16:50
end
