************************************************************
  HS Scan of (1) Internal mercury lamp
************************************************************
Integration time is 0.2294 seconds per sample
dh131018Manchester 53.47 2.23 2.857833pr1000
************************************************************
Dead Time -------------------------  3E-08 
Number of Cycles Used -------------  4 
Starting Wavelength (Angstroms) ---  2950 
Final Wavelength (Angstoms) -------  2984 
Wavelength Increment (Angstroms) --  .25 
Filter Wheel #1 Position ---------- (1) Ground quartz diffuser (ND=2.32)
Filter Wheel #2 Position ---------- (1) Neutral Density 0.494



************************************************************
HS scan start time = 03:41:55
Dark Count =  5.6 


Time (GMT)  Wavelength (Ang)  Step Number  Raw Counts  Counts/Second

  222.29        2950.00           1222          46.00       176.11
  222.36        2950.25           1226          48.00       184.83
  222.39        2950.50           1229          54.00       210.99
  222.42        2950.75           1232          51.00       197.91
  222.45        2951.00           1236          48.00       184.83
  222.48        2951.25           1239          56.00       219.71
  222.51        2951.50           1242          53.00       206.63
  222.54        2951.75           1246          41.00       154.32
  222.57        2952.00           1249          40.00       149.96
  222.61        2952.25           1252          42.00       158.68
  222.64        2952.50           1256          51.00       197.91
  222.67        2952.75           1259          49.00       189.19
  222.70        2953.00           1262          54.00       210.99
  222.73        2953.25           1266          54.00       210.99
  222.76        2953.50           1269          47.00       180.47
  222.79        2953.75           1272          48.00       184.83
  222.82        2954.00           1276          52.00       202.27
  222.85        2954.25           1279          52.00       202.27
  222.88        2954.50           1282          60.00       237.14
  222.91        2954.75           1286          48.00       184.83
  222.94        2955.00           1289          50.00       193.55
  222.97        2955.25           1292          48.00       184.83
  223.00        2955.50           1296          46.00       176.11
  223.04        2955.75           1299          45.00       171.75
  223.07        2956.00           1302          50.00       193.55
  223.10        2956.25           1306          56.00       219.71
  223.13        2956.50           1309          50.00       193.55
  223.16        2956.75           1312          52.00       202.27
  223.19        2957.00           1316          51.00       197.91
  223.22        2957.25           1319          49.00       189.19
  223.25        2957.50           1322          52.00       202.27
  223.28        2957.75           1326          40.00       149.96
  223.31        2958.00           1329          50.00       193.55
  223.34        2958.25           1332          52.00       202.27
  223.38        2958.50           1336          57.00       224.06
  223.41        2958.75           1339          49.00       189.19
  223.44        2959.00           1342          49.00       189.19
  223.47        2959.25           1346          50.00       193.55
  223.50        2959.50           1349          60.00       237.14
  223.53        2959.75           1352          72.00       289.45
  223.56        2960.00           1356         103.00       424.59
  223.59        2960.25           1359         132.00       551.01
  223.62        2960.50           1362         159.00       668.71
  223.65        2960.75           1366         193.00       816.93
  223.68        2961.00           1369         222.00       943.36
  223.71        2961.25           1372         258.00      1100.30
  223.74        2961.50           1376         300.00      1283.40
  223.78        2961.75           1379         389.00      1671.40
  223.81        2962.00           1382         770.00      3332.50
  223.84        2962.25           1386        1974.00      8582.85
  223.87        2962.50           1389        3142.00     13677.80
  223.90        2962.75           1392        4235.00     18447.00
  223.93        2963.00           1396        6025.00     26260.44
  223.96        2963.25           1399        7141.00     31133.69
  223.99        2963.50           1402        8279.00     36104.48
  224.02        2963.75           1406       10026.00     43738.26
  224.05        2964.00           1409       11244.00     49062.58
  224.08        2964.25           1412       12605.00     55014.00
  224.12        2964.50           1416       14226.00     62105.15
  224.15        2964.75           1419       15378.00     67146.46
  224.18        2965.00           1422       16695.00     72911.71
  224.21        2965.25           1426       18402.00     80387.19
  224.24        2965.50           1429       19608.00     85670.64
  224.27        2965.75           1432       20918.00     91411.63
  224.30        2966.00           1436       22497.00     98334.12
  224.33        2966.25           1439       23585.00    103105.70
  224.36        2966.50           1442       24807.00    108466.60
  224.39        2966.75           1446       26250.00    114799.20
  224.43        2967.00           1449       26301.00    115023.10
  224.46        2967.25           1452       26582.00    116256.60
  224.49        2967.50           1456       26424.00    115563.00
  224.52        2967.75           1459       26419.00    115541.00
  224.55        2968.00           1462       26533.00    116041.50
  224.58        2968.25           1466       25855.00    113065.50
  224.61        2968.50           1469       24825.00    108545.60
  224.64        2968.75           1472       23656.00    103417.10
  224.67        2969.00           1476       22005.00     96176.84
  224.71        2969.25           1479       20834.00     91043.46
  224.74        2969.50           1482       19520.00     85285.06
  224.77        2969.75           1486       17896.00     78170.90
  224.80        2970.00           1489       16753.00     73165.66
  224.83        2970.25           1492       15639.00     68288.85
  224.86        2970.50           1496       14047.00     61321.95
  224.89        2970.75           1499       12845.00     56063.71
  224.92        2971.00           1502       11684.00     50986.39
  224.95        2971.25           1506       10048.00     43834.42
  224.99        2971.50           1509        8793.00     38350.12
  225.02        2971.75           1513        7088.00     30902.22
  225.05        2972.00           1516        5827.00     25395.98
  225.08        2972.25           1519        4648.00     20249.44
  225.11        2972.50           1523        3128.00     13616.72
  225.14        2972.75           1526        1992.00      8661.36
  225.17        2973.00           1529         985.00      4269.95
  225.20        2973.25           1533         376.00      1614.73
  225.23        2973.50           1536         247.00      1052.34
  225.26        2973.75           1539         198.00       838.73
  225.29        2974.00           1543         172.00       725.39
  225.32        2974.25           1546         121.00       503.06
  225.36        2974.50           1549          95.00       389.72
  225.39        2974.75           1553          72.00       289.45
  225.42        2975.00           1556          53.00       206.63
  225.45        2975.25           1559          56.00       219.71
  225.48        2975.50           1563          43.00       163.03
  225.51        2975.75           1566          47.00       180.47
  225.54        2976.00           1569          49.00       189.19
  225.57        2976.25           1573          46.00       176.11
  225.60        2976.50           1576          45.00       171.75
  225.64        2976.75           1579          42.00       158.68
  225.67        2977.00           1583          51.00       197.91
  225.70        2977.25           1586          53.00       206.63
  225.73        2977.50           1590          46.00       176.11
  225.76        2977.75           1593          52.00       202.27
  225.79        2978.00           1596          42.00       158.68
  225.82        2978.25           1600          44.00       167.39
  225.85        2978.50           1603          48.00       184.83
  225.88        2978.75           1606          44.00       167.39
  225.91        2979.00           1610          53.00       206.63
  225.95        2979.25           1613          44.00       167.39
  225.98        2979.50           1616          45.00       171.75
  226.01        2979.75           1620          53.00       206.63
  226.06        2980.00           1623          48.00       184.83
  226.11        2980.25           1626          49.00       189.19
  226.15        2980.50           1630          52.00       202.27
  226.20        2980.75           1633          49.00       189.19
  226.25        2981.00           1637          51.00       197.91
  226.29        2981.25           1640          44.00       167.39
  226.32        2981.50           1643          54.00       210.99
  226.35        2981.75           1647          49.00       189.19
  226.38        2982.00           1650          46.00       176.11
  226.41        2982.25           1653          47.00       180.47
  226.45        2982.50           1657          43.00       163.03
  226.50        2982.75           1660          47.00       180.47
  226.55        2983.00           1663          45.00       171.75
  226.60        2983.25           1667          53.00       206.63
  226.65        2983.50           1670          49.00       189.19
  226.70        2983.75           1673          54.00       210.99
  226.74        2984.00           1677          41.00       154.32
HS scan finished at 03:46:58
end
************************************************************
  HS Scan of (1) Internal mercury lamp
************************************************************
Integration time is 0.2294 seconds per sample
dh131018Manchester 53.47 2.23 3.072425pr1000
************************************************************
Dead Time -------------------------  3E-08 
Number of Cycles Used -------------  4 
Starting Wavelength (Angstroms) ---  2950 
Final Wavelength (Angstoms) -------  2984 
Wavelength Increment (Angstroms) --  .25 
Filter Wheel #1 Position ---------- (1) Ground quartz diffuser (ND=2.32)
Filter Wheel #2 Position ---------- (1) Neutral Density 0.494



************************************************************
HS scan start time = 18:13:19
Dark Count =  9.3 


Time (GMT)  Wavelength (Ang)  Step Number  Raw Counts  Counts/Second

 1093.68        2950.00           1222          50.00       177.42
 1093.75        2950.25           1226          49.00       173.06
 1093.78        2950.50           1229          49.00       173.06
 1093.81        2950.75           1232          42.00       142.55
 1093.84        2951.00           1236          47.00       164.34
 1093.87        2951.25           1239          43.00       146.91
 1093.90        2951.50           1242          53.00       190.50
 1093.93        2951.75           1246          47.00       164.34
 1093.96        2952.00           1249          46.00       159.98
 1093.99        2952.25           1252          51.00       181.78
 1094.03        2952.50           1256          53.00       190.50
 1094.06        2952.75           1259          42.00       142.55
 1094.09        2953.00           1262          54.00       194.86
 1094.12        2953.25           1266          45.00       155.62
 1094.15        2953.50           1269          50.00       177.42
 1094.18        2953.75           1272          50.00       177.42
 1094.21        2954.00           1276          45.00       155.62
 1094.24        2954.25           1279          55.00       199.22
 1094.27        2954.50           1282          46.00       159.98
 1094.30        2954.75           1286          47.00       164.34
 1094.33        2955.00           1289          51.00       181.78
 1094.37        2955.25           1292          45.00       155.62
 1094.40        2955.50           1296          49.00       173.06
 1094.43        2955.75           1299          50.00       177.42
 1094.46        2956.00           1302          45.00       155.62
 1094.49        2956.25           1306          46.00       159.98
 1094.52        2956.50           1309          55.00       199.22
 1094.55        2956.75           1312          43.00       146.91
 1094.58        2957.00           1316          47.00       164.34
 1094.61        2957.25           1319          50.00       177.42
 1094.64        2957.50           1322          50.00       177.42
 1094.67        2957.75           1326          43.00       146.91
 1094.70        2958.00           1329          50.00       177.42
 1094.74        2958.25           1332          50.00       177.42
 1094.77        2958.50           1336          48.00       168.70
 1094.80        2958.75           1339          48.00       168.70
 1094.83        2959.00           1342          46.00       159.98
 1094.86        2959.25           1346          55.00       199.22
 1094.89        2959.50           1349          59.00       216.65
 1094.92        2959.75           1352          62.00       229.73
 1094.95        2960.00           1356          95.00       373.59
 1094.98        2960.25           1359         117.00       469.49
 1095.01        2960.50           1362         156.00       639.51
 1095.04        2960.75           1366         195.00       809.52
 1095.07        2961.00           1369         218.00       909.79
 1095.10        2961.25           1372         281.00      1184.44
 1095.14        2961.50           1376         308.00      1302.14
 1095.17        2961.75           1379         405.00      1725.02
 1095.20        2962.00           1382         769.00      3312.01
 1095.23        2962.25           1386        1964.00      8523.10
 1095.26        2962.50           1389        3282.00     14272.46
 1095.29        2962.75           1392        4569.00     19888.50
 1095.32        2963.00           1396        6326.00     27558.52
 1095.35        2963.25           1399        7625.00     33231.46
 1095.38        2963.50           1402        8889.00     38753.40
 1095.41        2963.75           1406       10650.00     46449.60
 1095.44        2964.00           1409       12089.00     52741.19
 1095.47        2964.25           1412       13433.00     58619.57
 1095.50        2964.50           1416       15279.00     66696.97
 1095.54        2964.75           1419       16593.00     72448.91
 1095.57        2965.00           1422       17824.00     77839.36
 1095.60        2965.25           1426       19750.00     86276.63
 1095.63        2965.50           1429       21102.00     92201.93
 1095.66        2965.75           1432       22377.00     97791.71
 1095.69        2966.00           1436       24020.00    104997.60
 1095.72        2966.25           1439       25391.00    111013.00
 1095.75        2966.50           1442       26707.00    116789.00
 1095.78        2966.75           1446       27909.00    122066.50
 1095.82        2967.00           1449       28169.00    123208.30
 1095.85        2967.25           1452       28309.00    123823.10
 1095.88        2967.50           1456       28594.00    125074.80
 1095.91        2967.75           1459       28401.00    124227.20
 1095.94        2968.00           1462       28506.00    124688.30
 1095.97        2968.25           1466       27823.00    121688.90
 1096.00        2968.50           1469       26697.00    116745.10
 1096.03        2968.75           1472       25396.00    111034.90
 1096.06        2969.00           1476       23828.00    104155.40
 1096.09        2969.25           1479       22393.00     97861.87
 1096.12        2969.50           1482       21100.00     92193.16
 1096.15        2969.75           1486       19354.00     84541.52
 1096.19        2970.00           1489       17997.00     78597.06
 1096.22        2970.25           1492       16756.00     73162.59
 1096.25        2970.50           1496       15041.00     65655.35
 1096.28        2970.75           1499       13818.00     60303.86
 1096.31        2971.00           1502       12518.00     54617.32
 1096.34        2971.25           1506       10864.00     47385.10
 1096.37        2971.50           1509        9424.00     41091.17
 1096.40        2971.75           1513        7767.00     33851.71
 1096.44        2972.00           1516        6470.00     28187.30
 1096.47        2972.25           1519        5122.00     22302.19
 1096.50        2972.50           1523        3384.00     14717.48
 1096.53        2972.75           1526        2171.00      9425.94
 1096.56        2973.00           1529        1011.00      4367.18
 1096.59        2973.25           1533         401.00      1707.59
 1096.62        2973.50           1536         286.00      1206.23
 1096.65        2973.75           1539         244.00      1023.14
 1096.68        2974.00           1543         188.00       779.01
 1096.72        2974.25           1546         138.00       561.04
 1096.75        2974.50           1549         116.00       465.13
 1096.78        2974.75           1553          76.00       290.76
 1096.81        2975.00           1556          62.00       229.73
 1096.84        2975.25           1559          47.00       164.34
 1096.87        2975.50           1563          50.00       177.42
 1096.90        2975.75           1566          50.00       177.42
 1096.93        2976.00           1569          49.00       173.06
 1096.96        2976.25           1573          46.00       159.98
 1096.99        2976.50           1576          47.00       164.34
 1097.03        2976.75           1579          47.00       164.34
 1097.06        2977.00           1583          45.00       155.62
 1097.09        2977.25           1586          43.00       146.91
 1097.12        2977.50           1590          45.00       155.62
 1097.15        2977.75           1593          44.00       151.26
 1097.18        2978.00           1596          50.00       177.42
 1097.21        2978.25           1600          49.00       173.06
 1097.24        2978.50           1603          46.00       159.98
 1097.27        2978.75           1606          44.00       151.26
 1097.30        2979.00           1610          48.00       168.70
 1097.34        2979.25           1613          51.00       181.78
 1097.37        2979.50           1616          48.00       168.70
 1097.40        2979.75           1620          49.00       173.06
 1097.43        2980.00           1623          47.00       164.34
 1097.46        2980.25           1626          47.00       164.34
 1097.49        2980.50           1630          57.00       207.94
 1097.52        2980.75           1633          45.00       155.62
 1097.55        2981.00           1637          42.00       142.55
 1097.59        2981.25           1640          45.00       155.62
 1097.62        2981.50           1643          45.00       155.62
 1097.65        2981.75           1647          48.00       168.70
 1097.68        2982.00           1650          43.00       146.91
 1097.71        2982.25           1653          52.00       186.14
 1097.74        2982.50           1657          40.00       133.83
 1097.77        2982.75           1660          47.00       164.34
 1097.80        2983.00           1663          39.00       129.47
 1097.83        2983.25           1667          49.00       173.06
 1097.87        2983.50           1670          43.00       146.91
 1097.90        2983.75           1673          48.00       168.70
 1097.93        2984.00           1677          44.00       151.26
HS scan finished at 18:18:09
end
