************************************************************
  HS Scan of (1) Internal mercury lamp
************************************************************
Integration time is 0.2294 seconds per sample
dh111018Manchester 53.47 2.23 2.804185pr1000
************************************************************
Dead Time -------------------------  3E-08 
Number of Cycles Used -------------  4 
Starting Wavelength (Angstroms) ---  2950 
Final Wavelength (Angstoms) -------  2984 
Wavelength Increment (Angstroms) --  .25 
Filter Wheel #1 Position ---------- (1) Ground quartz diffuser (ND=2.32)
Filter Wheel #2 Position ---------- (1) Neutral Density 0.494



************************************************************
HS scan start time = 03:37:20
Dark Count =  5.7 


Time (GMT)  Wavelength (Ang)  Step Number  Raw Counts  Counts/Second

  217.71        2950.00           1222          46.00       175.68
  217.77        2950.25           1226          56.00       219.27
  217.81        2950.50           1229          50.00       193.11
  217.84        2950.75           1232          52.00       201.83
  217.87        2951.00           1236          51.00       197.47
  217.90        2951.25           1239          53.00       206.19
  217.93        2951.50           1242          56.00       219.27
  217.96        2951.75           1246          50.00       193.11
  217.99        2952.00           1249          49.00       188.75
  218.02        2952.25           1252          51.00       197.47
  218.05        2952.50           1256          59.00       232.35
  218.08        2952.75           1259          56.00       219.27
  218.11        2953.00           1262          50.00       193.11
  218.15        2953.25           1266          51.00       197.47
  218.18        2953.50           1269          44.00       166.96
  218.21        2953.75           1272          52.00       201.83
  218.24        2954.00           1276          49.00       188.75
  218.27        2954.25           1279          51.00       197.47
  218.30        2954.50           1282          56.00       219.27
  218.33        2954.75           1286          50.00       193.11
  218.36        2955.00           1289          52.00       201.83
  218.39        2955.25           1292          45.00       171.32
  218.42        2955.50           1296          45.00       171.32
  218.45        2955.75           1299          55.00       214.91
  218.48        2956.00           1302          57.00       223.63
  218.51        2956.25           1306          49.00       188.75
  218.54        2956.50           1309          55.00       214.91
  218.58        2956.75           1312          54.00       210.55
  218.61        2957.00           1316          59.00       232.35
  218.64        2957.25           1319          50.00       193.11
  218.67        2957.50           1322          48.00       184.40
  218.70        2957.75           1326          51.00       197.47
  218.73        2958.00           1329          45.00       171.32
  218.76        2958.25           1332          49.00       188.75
  218.79        2958.50           1336          51.00       197.47
  218.82        2958.75           1339          50.00       193.11
  218.85        2959.00           1342          51.00       197.47
  218.88        2959.25           1346          50.00       193.11
  218.91        2959.50           1349          52.00       201.83
  218.94        2959.75           1352          50.00       193.11
  218.98        2960.00           1356          69.00       275.94
  219.01        2960.25           1359          91.00       371.84
  219.04        2960.50           1362         115.00       476.47
  219.07        2960.75           1366         165.00       694.43
  219.10        2961.00           1369         181.00       764.18
  219.13        2961.25           1372         224.00       951.64
  219.16        2961.50           1376         276.00      1178.33
  219.19        2961.75           1379         334.00      1431.19
  219.22        2962.00           1382         636.00      2747.83
  219.25        2962.25           1386        1740.00      7561.87
  219.28        2962.50           1389        2976.00     12953.16
  219.31        2962.75           1392        4028.00     17543.23
  219.35        2963.00           1396        5587.00     24347.77
  219.38        2963.25           1399        6731.00     29342.74
  219.41        2963.50           1402        7746.00     33775.71
  219.44        2963.75           1406        9390.00     40958.32
  219.47        2964.00           1409       10621.00     46338.57
  219.50        2964.25           1412       11886.00     51869.23
  219.53        2964.50           1416       13525.00     59037.78
  219.56        2964.75           1419       14855.00     64857.12
  219.59        2965.00           1422       15891.00     69391.47
  219.62        2965.25           1426       17512.00     76488.75
  219.65        2965.50           1429       18632.00     81394.25
  219.68        2965.75           1432       19975.00     87278.36
  219.71        2966.00           1436       21419.00     93607.32
  219.74        2966.25           1439       22617.00     98859.91
  219.78        2966.50           1442       23744.00    103802.70
  219.81        2966.75           1446       24983.00    109238.40
  219.84        2967.00           1449       25643.00    112134.70
  219.87        2967.25           1452       25774.00    112709.60
  219.90        2967.50           1456       25751.00    112608.70
  219.93        2967.75           1459       25894.00    113236.20
  219.96        2968.00           1462       25716.00    112455.00
  219.99        2968.25           1466       25470.00    111375.40
  220.02        2968.50           1469       24380.00    106592.70
  220.05        2968.75           1472       23367.00    102149.10
  220.09        2969.00           1476       21871.00     95588.90
  220.12        2969.25           1479       20731.00     90591.56
  220.15        2969.50           1482       19528.00     85319.68
  220.18        2969.75           1486       17890.00     78144.20
  220.21        2970.00           1489       16762.00     73204.63
  220.24        2970.25           1492       15535.00     67833.20
  220.27        2970.50           1496       13979.00     61024.00
  220.30        2970.75           1499       12795.00     55844.58
  220.33        2971.00           1502       11517.00     50255.75
  220.36        2971.25           1506        9917.00     43261.43
  220.40        2971.50           1509        8788.00     38327.83
  220.43        2971.75           1513        7353.00     32059.15
  220.46        2972.00           1516        6066.00     26439.01
  220.49        2972.25           1519        4935.00     21501.66
  220.52        2972.50           1523        3291.00     14327.43
  220.55        2972.75           1526        2163.00      9406.75
  220.58        2973.00           1529        1099.00      4766.59
  220.61        2973.25           1533         415.00      1784.32
  220.64        2973.50           1536         268.00      1143.46
  220.67        2973.75           1539         222.00       942.92
  220.70        2974.00           1543         198.00       838.29
  220.73        2974.25           1546         153.00       642.12
  220.76        2974.50           1549         120.00       498.26
  220.80        2974.75           1553          95.00       389.28
  220.83        2975.00           1556          65.00       258.50
  220.86        2975.25           1559          61.00       241.07
  220.89        2975.50           1563          44.00       166.96
  220.92        2975.75           1566          44.00       166.96
  220.95        2976.00           1569          44.00       166.96
  220.98        2976.25           1573          56.00       219.27
  221.01        2976.50           1576          50.00       193.11
  221.04        2976.75           1579          49.00       188.75
  221.07        2977.00           1583          47.00       180.04
  221.10        2977.25           1586          51.00       197.47
  221.14        2977.50           1590          52.00       201.83
  221.17        2977.75           1593          48.00       184.40
  221.20        2978.00           1596          53.00       206.19
  221.23        2978.25           1600          45.00       171.32
  221.26        2978.50           1603          45.00       171.32
  221.29        2978.75           1606          45.00       171.32
  221.32        2979.00           1610          46.00       175.68
  221.35        2979.25           1613          40.00       149.52
  221.38        2979.50           1616          49.00       188.75
  221.41        2979.75           1620          44.00       166.96
  221.44        2980.00           1623          34.00       123.37
  221.47        2980.25           1626          47.00       180.04
  221.50        2980.50           1630          50.00       193.11
  221.53        2980.75           1633          42.00       158.24
  221.56        2981.00           1637          43.00       162.60
  221.59        2981.25           1640          47.00       180.04
  221.63        2981.50           1643          42.00       158.24
  221.66        2981.75           1647          55.00       214.91
  221.69        2982.00           1650          43.00       162.60
  221.72        2982.25           1653          41.00       153.88
  221.75        2982.50           1657          62.00       245.42
  221.78        2982.75           1660          39.00       145.16
  221.81        2983.00           1663          50.00       193.11
  221.84        2983.25           1667          45.00       171.32
  221.87        2983.50           1670          47.00       180.04
  221.90        2983.75           1673          44.00       166.96
  221.93        2984.00           1677          51.00       197.47
HS scan finished at 03:42:09
end
************************************************************
  HS Scan of (1) Internal mercury lamp
************************************************************
Integration time is 0.2294 seconds per sample
dh111018Manchester 53.47 2.23 2.804185pr1000
************************************************************
Dead Time -------------------------  3E-08 
Number of Cycles Used -------------  4 
Starting Wavelength (Angstroms) ---  2950 
Final Wavelength (Angstoms) -------  2984 
Wavelength Increment (Angstroms) --  .25 
Filter Wheel #1 Position ---------- (1) Ground quartz diffuser (ND=2.32)
Filter Wheel #2 Position ---------- (1) Neutral Density 0.494



************************************************************
HS scan start time = 18:12:01
Dark Count =  5.6 


Time (GMT)  Wavelength (Ang)  Step Number  Raw Counts  Counts/Second

 1092.38        2950.00           1222          57.00       224.06
 1092.45        2950.25           1226          52.00       202.27
 1092.48        2950.50           1229          49.00       189.19
 1092.51        2950.75           1232          52.00       202.27
 1092.54        2951.00           1236          47.00       180.47
 1092.57        2951.25           1239          47.00       180.47
 1092.60        2951.50           1242          50.00       193.55
 1092.63        2951.75           1246          47.00       180.47
 1092.66        2952.00           1249          51.00       197.91
 1092.69        2952.25           1252          46.00       176.11
 1092.73        2952.50           1256          50.00       193.55
 1092.76        2952.75           1259          47.00       180.47
 1092.79        2953.00           1262          50.00       193.55
 1092.82        2953.25           1266          48.00       184.83
 1092.85        2953.50           1269          57.00       224.06
 1092.88        2953.75           1272          51.00       197.91
 1092.91        2954.00           1276          47.00       180.47
 1092.94        2954.25           1279          51.00       197.91
 1092.97        2954.50           1282          52.00       202.27
 1093.00        2954.75           1286          49.00       189.19
 1093.03        2955.00           1289          49.00       189.19
 1093.06        2955.25           1292          46.00       176.11
 1093.09        2955.50           1296          41.00       154.32
 1093.12        2955.75           1299          44.00       167.39
 1093.15        2956.00           1302          49.00       189.19
 1093.18        2956.25           1306          47.00       180.47
 1093.21        2956.50           1309          55.00       215.35
 1093.24        2956.75           1312          53.00       206.63
 1093.28        2957.00           1316          52.00       202.27
 1093.31        2957.25           1319          42.00       158.68
 1093.34        2957.50           1322          46.00       176.11
 1093.37        2957.75           1326          50.00       193.55
 1093.40        2958.00           1329          45.00       171.75
 1093.43        2958.25           1332          53.00       206.63
 1093.46        2958.50           1336          47.00       180.47
 1093.49        2958.75           1339          57.00       224.06
 1093.52        2959.00           1342          45.00       171.75
 1093.55        2959.25           1346          51.00       197.91
 1093.58        2959.50           1349          57.00       224.06
 1093.62        2959.75           1352          71.00       285.09
 1093.65        2960.00           1356          95.00       389.72
 1093.68        2960.25           1359         118.00       489.98
 1093.71        2960.50           1362         155.00       651.28
 1093.74        2960.75           1366         184.00       777.70
 1093.77        2961.00           1369         220.00       934.64
 1093.80        2961.25           1372         248.00      1056.70
 1093.83        2961.50           1376         312.00      1335.71
 1093.86        2961.75           1379         404.00      1736.79
 1093.89        2962.00           1382         848.00      3672.59
 1093.92        2962.25           1386        2073.00      9014.64
 1093.96        2962.50           1389        3358.00     14620.19
 1093.99        2962.75           1392        4491.00     19564.23
 1094.02        2963.00           1396        6152.00     26814.94
 1094.05        2963.25           1399        7240.00     31566.06
 1094.08        2963.50           1402        8279.00     36104.48
 1094.11        2963.75           1406        9984.00     43554.70
 1094.14        2964.00           1409       11072.00     48310.60
 1094.17        2964.25           1412       12240.00     53417.71
 1094.20        2964.50           1416       13899.00     60674.42
 1094.23        2964.75           1419       15030.00     65623.40
 1094.27        2965.00           1422       16359.00     71440.66
 1094.30        2965.25           1426       18038.00     78792.83
 1094.33        2965.50           1429       19089.00     83396.71
 1094.36        2965.75           1432       20285.00     88637.31
 1094.39        2966.00           1436       21736.00     94997.47
 1094.42        2966.25           1439       23013.00    100596.90
 1094.45        2966.50           1442       24012.00    104978.80
 1094.48        2966.75           1446       25226.00    110305.10
 1094.51        2967.00           1449       25585.00    111880.60
 1094.54        2967.25           1452       25593.00    111915.70
 1094.58        2967.50           1456       25586.00    111885.00
 1094.61        2967.75           1459       25778.00    112727.60
 1094.64        2968.00           1462       25678.00    112288.70
 1094.67        2968.25           1466       25020.00    109401.20
 1094.70        2968.50           1469       23932.00    104627.80
 1094.73        2968.75           1472       22671.00     99097.14
 1094.76        2969.00           1476       21378.00     93428.02
 1094.79        2969.25           1479       20179.00     88172.78
 1094.82        2969.50           1482       19033.00     83151.37
 1094.85        2969.75           1486       17385.00     75933.03
 1094.89        2970.00           1489       16423.00     71720.86
 1094.92        2970.25           1492       15186.00     66306.15
 1094.95        2970.50           1496       13543.00     59116.96
 1094.98        2970.75           1499       12225.00     53352.11
 1095.01        2971.00           1502       11217.00     48944.53
 1095.04        2971.25           1506        9413.00     41059.27
 1095.07        2971.50           1509        8380.00     36545.71
 1095.10        2971.75           1513        6884.00     30011.32
 1095.13        2972.00           1516        5614.00     24466.08
 1095.16        2972.25           1519        4477.00     19503.13
 1095.19        2972.50           1523        3003.00     13071.39
 1095.23        2972.75           1526        1858.00      8076.94
 1095.26        2973.00           1529         890.00      3855.72
 1095.29        2973.25           1533         321.00      1374.95
 1095.32        2973.50           1536         229.00       973.87
 1095.35        2973.75           1539         182.00       768.98
 1095.38        2974.00           1543         157.00       660.00
 1095.41        2974.25           1546         120.00       498.70
 1095.44        2974.50           1549          86.00       350.48
 1095.47        2974.75           1553          58.00       228.42
 1095.50        2975.00           1556          50.00       193.55
 1095.54        2975.25           1559          54.00       210.99
 1095.57        2975.50           1563          40.00       149.96
 1095.60        2975.75           1566          49.00       189.19
 1095.63        2976.00           1569          46.00       176.11
 1095.66        2976.25           1573          56.00       219.71
 1095.69        2976.50           1576          45.00       171.75
 1095.72        2976.75           1579          47.00       180.47
 1095.75        2977.00           1583          48.00       184.83
 1095.78        2977.25           1586          43.00       163.03
 1095.81        2977.50           1590          43.00       163.03
 1095.84        2977.75           1593          41.00       154.32
 1095.87        2978.00           1596          46.00       176.11
 1095.91        2978.25           1600          43.00       163.03
 1095.94        2978.50           1603          40.00       149.96
 1095.97        2978.75           1606          42.00       158.68
 1096.00        2979.00           1610          47.00       180.47
 1096.03        2979.25           1613          55.00       215.35
 1096.06        2979.50           1616          46.00       176.11
 1096.09        2979.75           1620          46.00       176.11
 1096.12        2980.00           1623          46.00       176.11
 1096.15        2980.25           1626          51.00       197.91
 1096.18        2980.50           1630          43.00       163.03
 1096.22        2980.75           1633          46.00       176.11
 1096.25        2981.00           1637          45.00       171.75
 1096.28        2981.25           1640          49.00       189.19
 1096.31        2981.50           1643          44.00       167.39
 1096.34        2981.75           1647          69.00       276.38
 1096.37        2982.00           1650          47.00       180.47
 1096.40        2982.25           1653          41.00       154.32
 1096.43        2982.50           1657          49.00       189.19
 1096.46        2982.75           1660          43.00       163.03
 1096.49        2983.00           1663          52.00       202.27
 1096.52        2983.25           1667          47.00       180.47
 1096.55        2983.50           1670          54.00       210.99
 1096.59        2983.75           1673          52.00       202.27
 1096.62        2984.00           1677          44.00       167.39
HS scan finished at 18:16:50
end
