************************************************************
  HS Scan of (1) Internal mercury lamp
************************************************************
Integration time is 0.2294 seconds per sample
dh081017Manchester 53.47 2.23 2.804185pr1000
************************************************************
Dead Time -------------------------  3E-08 
Number of Cycles Used -------------  4 
Starting Wavelength (Angstroms) ---  2950 
Final Wavelength (Angstoms) -------  2984 
Wavelength Increment (Angstroms) --  .25 
Filter Wheel #1 Position ---------- (1) Ground quartz diffuser (ND=2.32)
Filter Wheel #2 Position ---------- (1) Neutral Density 0.494



************************************************************
HS scan start time = 21:43:15
Dark Count =  4.5 


Time (GMT)  Wavelength (Ang)  Step Number  Raw Counts  Counts/Second

 1303.62        2950.00           1222          73.00       298.61
 1303.69        2950.25           1226          70.00       285.53
 1303.72        2950.50           1229          63.00       255.02
 1303.75        2950.75           1232          70.00       285.53
 1303.78        2951.00           1236          68.00       276.81
 1303.81        2951.25           1239          66.00       268.09
 1303.84        2951.50           1242          75.00       307.33
 1303.87        2951.75           1246          73.00       298.61
 1303.90        2952.00           1249          73.00       298.61
 1303.93        2952.25           1252          70.00       285.53
 1303.96        2952.50           1256          67.00       272.45
 1303.99        2952.75           1259          76.00       311.69
 1304.03        2953.00           1262          67.00       272.45
 1304.06        2953.25           1266          78.00       320.40
 1304.09        2953.50           1269          73.00       298.61
 1304.12        2953.75           1272          82.00       337.84
 1304.15        2954.00           1276          73.00       298.61
 1304.18        2954.25           1279          70.00       285.53
 1304.21        2954.50           1282          72.00       294.25
 1304.24        2954.75           1286          61.00       246.30
 1304.27        2955.00           1289          71.00       289.89
 1304.30        2955.25           1292          67.00       272.45
 1304.33        2955.50           1296          68.00       276.81
 1304.36        2955.75           1299          65.00       263.73
 1304.40        2956.00           1302          66.00       268.09
 1304.43        2956.25           1306          72.00       294.25
 1304.46        2956.50           1309          66.00       268.09
 1304.49        2956.75           1312          73.00       298.61
 1304.52        2957.00           1316          62.00       250.66
 1304.55        2957.25           1319          69.00       281.17
 1304.58        2957.50           1322          67.00       272.45
 1304.61        2957.75           1326          67.00       272.45
 1304.64        2958.00           1329          79.00       324.76
 1304.67        2958.25           1332          76.00       311.69
 1304.70        2958.50           1336          85.00       350.92
 1304.73        2958.75           1339          69.00       281.17
 1304.77        2959.00           1342          75.00       307.33
 1304.80        2959.25           1346          72.00       294.25
 1304.83        2959.50           1349          77.00       316.04
 1304.86        2959.75           1352          84.00       346.56
 1304.89        2960.00           1356          94.00       390.15
 1304.92        2960.25           1359         129.00       542.73
 1304.95        2960.50           1362         160.00       677.87
 1304.98        2960.75           1366         207.00       882.76
 1305.01        2961.00           1369         264.00      1131.25
 1305.04        2961.25           1372         289.00      1240.24
 1305.07        2961.50           1376         350.00      1506.17
 1305.10        2961.75           1379         494.00      2133.96
 1305.13        2962.00           1382        1017.00      4414.27
 1305.16        2962.25           1386        2686.00     11693.29
 1305.20        2962.50           1389        4257.00     18547.81
 1305.23        2962.75           1392        5809.00     25322.19
 1305.26        2963.00           1396        7837.00     34178.45
 1305.29        2963.25           1399        9320.00     40657.67
 1305.32        2963.50           1402       11041.00     48179.88
 1305.35        2963.75           1406       13040.00     56921.44
 1305.38        2964.00           1409       14745.00     64380.99
 1305.41        2964.25           1412       16445.00     71821.99
 1305.44        2964.50           1416       18545.00     81018.40
 1305.48        2964.75           1419       20129.00     87958.48
 1305.51        2965.00           1422       21648.00     94616.49
 1305.54        2965.25           1426       23731.00    103750.90
 1305.57        2965.50           1429       25561.00    111780.10
 1305.60        2965.75           1432       27007.00    118127.10
 1305.63        2966.00           1436       29163.00    127595.20
 1305.66        2966.25           1439       30641.00    134088.90
 1305.69        2966.50           1442       32089.00    140453.30
 1305.72        2966.75           1446       33852.00    148205.40
 1305.76        2967.00           1449       34426.00    150730.20
 1305.79        2967.25           1452       34588.00    151442.80
 1305.82        2967.50           1456       34440.00    150791.80
 1305.85        2967.75           1459       34484.00    150985.30
 1305.88        2968.00           1462       34445.00    150813.80
 1305.91        2968.25           1466       33781.00    147893.20
 1305.94        2968.50           1469       32471.00    142132.70
 1305.97        2968.75           1472       30939.00    135398.50
 1306.00        2969.00           1476       28854.00    126237.90
 1306.03        2969.25           1479       27316.00    119483.80
 1306.07        2969.50           1482       25952.00    113496.10
 1306.10        2969.75           1486       23796.00    104036.10
 1306.13        2970.00           1489       22280.00     97387.42
 1306.16        2970.25           1492       20865.00     91184.15
 1306.19        2970.50           1496       18857.00     82385.16
 1306.22        2970.75           1499       17148.00     74900.03
 1306.25        2971.00           1502       15491.00     67645.86
 1306.28        2971.25           1506       13142.00     57367.61
 1306.31        2971.50           1509       11821.00     51590.25
 1306.34        2971.75           1513        9674.00     42204.67
 1306.37        2972.00           1516        8173.00     35646.21
 1306.40        2972.25           1519        6494.00     28313.05
 1306.44        2972.50           1523        4441.00     19350.81
 1306.47        2972.75           1526        3021.00     13154.71
 1306.50        2973.00           1529        1569.00      6821.36
 1306.53        2973.25           1533         599.00      2591.74
 1306.56        2973.50           1536         381.00      1641.32
 1306.59        2973.75           1539         357.00      1536.69
 1306.62        2974.00           1543         280.00      1201.00
 1306.65        2974.25           1546         236.00      1009.18
 1306.68        2974.50           1549         191.00       813.01
 1306.71        2974.75           1553         143.00       603.76
 1306.74        2975.00           1556         107.00       446.82
 1306.77        2975.25           1559          81.00       333.48
 1306.80        2975.50           1563          72.00       294.25
 1306.83        2975.75           1566          63.00       255.02
 1306.86        2976.00           1569          68.00       276.81
 1306.90        2976.25           1573          74.00       302.97
 1306.93        2976.50           1576          65.00       263.73
 1306.96        2976.75           1579          69.00       281.17
 1306.99        2977.00           1583          66.00       268.09
 1307.02        2977.25           1586          65.00       263.73
 1307.05        2977.50           1590          67.00       272.45
 1307.08        2977.75           1593          66.00       268.09
 1307.11        2978.00           1596          64.00       259.37
 1307.14        2978.25           1600          75.00       307.33
 1307.17        2978.50           1603          75.00       307.33
 1307.20        2978.75           1606          63.00       255.02
 1307.23        2979.00           1610          60.00       241.94
 1307.26        2979.25           1613          66.00       268.09
 1307.30        2979.50           1616          63.00       255.02
 1307.33        2979.75           1620          66.00       268.09
 1307.36        2980.00           1623          67.00       272.45
 1307.39        2980.25           1626          70.00       285.53
 1307.42        2980.50           1630          76.00       311.69
 1307.45        2980.75           1633          62.00       250.66
 1307.48        2981.00           1637          70.00       285.53
 1307.51        2981.25           1640          64.00       259.37
 1307.54        2981.50           1643          77.00       316.04
 1307.57        2981.75           1647          66.00       268.09
 1307.60        2982.00           1650          65.00       263.73
 1307.63        2982.25           1653          65.00       263.73
 1307.66        2982.50           1657          60.00       241.94
 1307.69        2982.75           1660          63.00       255.02
 1307.73        2983.00           1663          67.00       272.45
 1307.76        2983.25           1667          60.00       241.94
 1307.79        2983.50           1670          64.00       259.37
 1307.82        2983.75           1673          61.00       246.30
 1307.85        2984.00           1677          62.00       250.66
HS scan finished at 21:48:04
end
