************************************************************
  HS Scan of (1) Internal mercury lamp
************************************************************
Integration time is 0.2294 seconds per sample
dh161017Manchester 53.47 2.23 2.804185pr1000
************************************************************
Dead Time -------------------------  3E-08 
Number of Cycles Used -------------  4 
Starting Wavelength (Angstroms) ---  2950 
Final Wavelength (Angstoms) -------  2984 
Wavelength Increment (Angstroms) --  .25 
Filter Wheel #1 Position ---------- (1) Ground quartz diffuser (ND=2.32)
Filter Wheel #2 Position ---------- (1) Neutral Density 0.494



************************************************************
HS scan start time = 03:49:09
Dark Count =  6.4 


Time (GMT)  Wavelength (Ang)  Step Number  Raw Counts  Counts/Second

  229.52        2950.00           1222          65.00       255.45
  229.59        2950.25           1226          73.00       290.33
  229.62        2950.50           1229          64.00       251.09
  229.65        2950.75           1232          68.00       268.53
  229.68        2951.00           1236          68.00       268.53
  229.71        2951.25           1239          67.00       264.17
  229.74        2951.50           1242          73.00       290.33
  229.77        2951.75           1246          74.00       294.68
  229.80        2952.00           1249          69.00       272.89
  229.84        2952.25           1252          66.00       259.81
  229.87        2952.50           1256          60.00       233.65
  229.90        2952.75           1259          76.00       303.40
  229.93        2953.00           1262          69.00       272.89
  229.96        2953.25           1266          66.00       259.81
  229.99        2953.50           1269          68.00       268.53
  230.02        2953.75           1272          70.00       277.25
  230.05        2954.00           1276          77.00       307.76
  230.08        2954.25           1279          65.00       255.45
  230.11        2954.50           1282          77.00       307.76
  230.14        2954.75           1286          73.00       290.33
  230.17        2955.00           1289          72.00       285.97
  230.21        2955.25           1292          67.00       264.17
  230.24        2955.50           1296          68.00       268.53
  230.27        2955.75           1299          76.00       303.40
  230.30        2956.00           1302          76.00       303.40
  230.33        2956.25           1306          76.00       303.40
  230.36        2956.50           1309          68.00       268.53
  230.39        2956.75           1312          80.00       320.84
  230.42        2957.00           1316          67.00       264.17
  230.45        2957.25           1319          72.00       285.97
  230.48        2957.50           1322          76.00       303.40
  230.51        2957.75           1326          63.00       246.73
  230.55        2958.00           1329          62.00       242.37
  230.58        2958.25           1332          68.00       268.53
  230.61        2958.50           1336          72.00       285.97
  230.64        2958.75           1339          65.00       255.45
  230.67        2959.00           1342          82.00       329.56
  230.70        2959.25           1346          70.00       277.25
  230.73        2959.50           1349          74.00       294.68
  230.76        2959.75           1352          94.00       381.87
  230.79        2960.00           1356         124.00       512.65
  230.82        2960.25           1359         143.00       595.48
  230.85        2960.50           1362         184.00       774.21
  230.88        2960.75           1366         234.00       992.18
  230.92        2961.00           1369         270.00      1149.12
  230.95        2961.25           1372         315.00      1345.30
  230.98        2961.50           1376         419.00      1798.70
  231.01        2961.75           1379         735.00      3176.41
  231.04        2962.00           1382        1620.00      7035.49
  231.07        2962.25           1386        3616.00     15742.40
  231.10        2962.50           1389        5169.00     22520.01
  231.13        2962.75           1392        6747.00     29409.55
  231.16        2963.00           1396        8678.00     37844.16
  231.19        2963.25           1399       10220.00     44582.69
  231.22        2963.50           1402       11716.00     51122.81
  231.26        2963.75           1406       13812.00     60290.29
  231.29        2964.00           1409       15359.00     67059.80
  231.32        2964.25           1412       16993.00     74213.00
  231.35        2964.50           1416       19103.00     83454.53
  231.38        2964.75           1419       20540.00     89751.36
  231.41        2965.00           1422       22093.00     96559.16
  231.44        2965.25           1426       24575.00    107445.20
  231.47        2965.50           1429       26044.00    113891.50
  231.50        2965.75           1432       27782.00    121521.60
  231.53        2966.00           1436       29652.00    129735.00
  231.56        2966.25           1439       31200.00    136537.20
  231.59        2966.50           1442       32413.00    141869.30
  231.63        2966.75           1446       33877.00    148307.10
  231.66        2967.00           1449       34006.00    148874.40
  231.69        2967.25           1452       33990.00    148804.00
  231.72        2967.50           1456       33940.00    148584.10
  231.75        2967.75           1459       34005.00    148870.00
  231.78        2968.00           1462       33611.00    147137.20
  231.81        2968.25           1466       32389.00    141763.80
  231.84        2968.50           1469       30792.00    134744.10
  231.87        2968.75           1472       29305.00    128210.60
  231.91        2969.00           1476       27361.00    119673.00
  231.94        2969.25           1479       25699.00    112377.40
  231.97        2969.50           1482       24081.00    105277.90
  232.00        2969.75           1486       22168.00     96888.02
  232.03        2970.00           1489       20488.00     89523.47
  232.06        2970.25           1492       19260.00     84142.38
  232.09        2970.50           1496       17210.00     75163.20
  232.12        2970.75           1499       15517.00     67751.35
  232.15        2971.00           1502       13955.00     60915.93
  232.19        2971.25           1506       11700.00     51052.85
  232.22        2971.50           1509       10153.00     44289.85
  232.25        2971.75           1513        7891.00     34406.03
  232.28        2972.00           1516        6435.00     28047.13
  232.31        2972.25           1519        4896.00     21328.38
  232.34        2972.50           1523        2990.00     13011.18
  232.37        2972.75           1526        1521.00      6603.75
  232.40        2973.00           1529         693.00      2993.29
  232.43        2973.25           1533         433.00      1859.74
  232.46        2973.50           1536         340.00      1454.29
  232.49        2973.75           1539         311.00      1327.86
  232.53        2974.00           1543         249.00      1057.58
  232.56        2974.25           1546         196.00       826.52
  232.59        2974.50           1549         158.00       660.87
  232.62        2974.75           1553         108.00       442.90
  232.65        2975.00           1556          89.00       360.07
  232.68        2975.25           1559          76.00       303.40
  232.71        2975.50           1563          70.00       277.25
  232.74        2975.75           1566          70.00       277.25
  232.77        2976.00           1569          68.00       268.53
  232.80        2976.25           1573          65.00       255.45
  232.84        2976.50           1576          63.00       246.73
  232.87        2976.75           1579          72.00       285.97
  232.90        2977.00           1583          65.00       255.45
  232.93        2977.25           1586          64.00       251.09
  232.96        2977.50           1590          70.00       277.25
  232.99        2977.75           1593          63.00       246.73
  233.02        2978.00           1596          68.00       268.53
  233.05        2978.25           1600          61.00       238.01
  233.08        2978.50           1603          66.00       259.81
  233.11        2978.75           1606          61.00       238.01
  233.14        2979.00           1610          61.00       238.01
  233.17        2979.25           1613          63.00       246.73
  233.20        2979.50           1616          62.00       242.37
  233.24        2979.75           1620          69.00       272.89
  233.27        2980.00           1623          69.00       272.89
  233.30        2980.25           1626          57.00       220.58
  233.33        2980.50           1630          70.00       277.25
  233.36        2980.75           1633          66.00       259.81
  233.39        2981.00           1637          65.00       255.45
  233.42        2981.25           1640          66.00       259.81
  233.45        2981.50           1643          65.00       255.45
  233.48        2981.75           1647          71.00       281.61
  233.51        2982.00           1650          57.00       220.58
  233.54        2982.25           1653          62.00       242.37
  233.57        2982.50           1657          61.00       238.01
  233.60        2982.75           1660          61.00       238.01
  233.63        2983.00           1663          65.00       255.45
  233.66        2983.25           1667          59.00       229.30
  233.69        2983.50           1670          66.00       259.81
  233.73        2983.75           1673          59.00       229.30
  233.76        2984.00           1677          61.00       238.01
HS scan finished at 03:53:58
end
************************************************************
  HS Scan of (1) Internal mercury lamp
************************************************************
Integration time is 0.2294 seconds per sample
dh161017Manchester 53.47 2.23 2.857833pr1000
************************************************************
Dead Time -------------------------  3E-08 
Number of Cycles Used -------------  4 
Starting Wavelength (Angstroms) ---  2950 
Final Wavelength (Angstoms) -------  2984 
Wavelength Increment (Angstroms) --  .25 
Filter Wheel #1 Position ---------- (1) Ground quartz diffuser (ND=2.32)
Filter Wheel #2 Position ---------- (1) Neutral Density 0.494



************************************************************
HS scan start time = 18:12:00
Dark Count =  6.7 


Time (GMT)  Wavelength (Ang)  Step Number  Raw Counts  Counts/Second

 1092.37        2950.00           1222          65.00       254.14
 1092.44        2950.25           1226          70.00       275.94
 1092.47        2950.50           1229          66.00       258.50
 1092.50        2950.75           1232          68.00       267.22
 1092.53        2951.00           1236          83.00       332.61
 1092.56        2951.25           1239          73.00       289.02
 1092.59        2951.50           1242          66.00       258.50
 1092.62        2951.75           1246          64.00       249.78
 1092.66        2952.00           1249          65.00       254.14
 1092.69        2952.25           1252          65.00       254.14
 1092.72        2952.50           1256          63.00       245.42
 1092.75        2952.75           1259          69.00       271.58
 1092.78        2953.00           1262          63.00       245.42
 1092.81        2953.25           1266          65.00       254.14
 1092.84        2953.50           1269          68.00       267.22
 1092.87        2953.75           1272          70.00       275.94
 1092.90        2954.00           1276          76.00       302.10
 1092.93        2954.25           1279          75.00       297.74
 1092.97        2954.50           1282          70.00       275.94
 1093.00        2954.75           1286          64.00       249.78
 1093.03        2955.00           1289          60.00       232.35
 1093.06        2955.25           1292          75.00       297.74
 1093.09        2955.50           1296          63.00       245.42
 1093.12        2955.75           1299          72.00       284.66
 1093.15        2956.00           1302          62.00       241.07
 1093.18        2956.25           1306          70.00       275.94
 1093.21        2956.50           1309          73.00       289.02
 1093.24        2956.75           1312          60.00       232.35
 1093.27        2957.00           1316          74.00       293.38
 1093.30        2957.25           1319          79.00       315.17
 1093.33        2957.50           1322          65.00       254.14
 1093.37        2957.75           1326          65.00       254.14
 1093.40        2958.00           1329          70.00       275.94
 1093.43        2958.25           1332          67.00       262.86
 1093.46        2958.50           1336          75.00       297.74
 1093.49        2958.75           1339          68.00       267.22
 1093.52        2959.00           1342          70.00       275.94
 1093.55        2959.25           1346          65.00       254.14
 1093.58        2959.50           1349          85.00       341.33
 1093.61        2959.75           1352          95.00       384.92
 1093.64        2960.00           1356         133.00       550.58
 1093.67        2960.25           1359         164.00       685.72
 1093.70        2960.50           1362         189.00       794.70
 1093.74        2960.75           1366         255.00      1082.42
 1093.77        2961.00           1369         294.00      1252.44
 1093.80        2961.25           1372         329.00      1405.03
 1093.83        2961.50           1376         400.00      1714.56
 1093.86        2961.75           1379         568.00      2447.00
 1093.89        2962.00           1382        1197.00      5189.56
 1093.92        2962.25           1386        3012.00     13105.85
 1093.95        2962.50           1389        4606.00     20061.33
 1093.98        2962.75           1392        6105.00     26604.93
 1094.01        2963.00           1396        8118.00     35396.33
 1094.05        2963.25           1399        9665.00     42155.73
 1094.08        2963.50           1402       11317.00     49376.92
 1094.11        2963.75           1406       13496.00     58906.53
 1094.14        2964.00           1409       14919.00     65132.81
 1094.17        2964.25           1412       16534.00     72202.00
 1094.20        2964.50           1416       18672.00     81565.09
 1094.23        2964.75           1419       20293.00     88667.55
 1094.26        2965.00           1422       21855.00     95514.36
 1094.29        2965.25           1426       23948.00    104693.20
 1094.32        2965.50           1429       25803.00    112832.50
 1094.36        2965.75           1432       27348.00    119614.60
 1094.39        2966.00           1436       29412.00    128679.30
 1094.42        2966.25           1439       30773.00    134659.30
 1094.45        2966.50           1442       32300.00    141371.20
 1094.48        2966.75           1446       33874.00    148292.50
 1094.51        2967.00           1449       34268.00    150025.50
 1094.54        2967.25           1452       34135.00    149440.50
 1094.57        2967.50           1456       34219.00    149810.00
 1094.60        2967.75           1459       34251.00    149950.70
 1094.64        2968.00           1462       34010.00    148890.70
 1094.67        2968.25           1466       32973.00    144330.20
 1094.70        2968.50           1469       31454.00    137652.30
 1094.73        2968.75           1472       30031.00    131398.80
 1094.76        2969.00           1476       27993.00    122446.80
 1094.79        2969.25           1479       26378.00    115356.20
 1094.82        2969.50           1482       24893.00    108839.10
 1094.85        2969.75           1486       22809.00     99697.49
 1094.88        2970.00           1489       21338.00     93247.85
 1094.92        2970.25           1492       19781.00     86423.87
 1094.95        2970.50           1496       17818.00     77824.47
 1094.98        2970.75           1499       16292.00     71142.53
 1095.01        2971.00           1502       14458.00     63115.48
 1095.04        2971.25           1506       12389.00     54064.52
 1095.07        2971.50           1509       10726.00     46793.19
 1095.10        2971.75           1513        8777.00     38275.40
 1095.13        2972.00           1516        7206.00     31412.76
 1095.16        2972.25           1519        5638.00     24566.05
 1095.19        2972.50           1523        3476.00     15130.23
 1095.22        2972.75           1526        1997.00      8678.37
 1095.26        2973.00           1529         883.00      3820.40
 1095.29        2973.25           1533         421.00      1806.11
 1095.32        2973.50           1536         318.00      1357.07
 1095.35        2973.75           1539         278.00      1182.69
 1095.38        2974.00           1543         237.00      1003.95
 1095.41        2974.25           1546         170.00       711.87
 1095.44        2974.50           1549         123.00       506.98
 1095.47        2974.75           1553          90.00       363.13
 1095.50        2975.00           1556          77.00       306.45
 1095.53        2975.25           1559          77.00       306.45
 1095.56        2975.50           1563          68.00       267.22
 1095.59        2975.75           1566          66.00       258.50
 1095.62        2976.00           1569          61.00       236.71
 1095.66        2976.25           1573          59.00       227.99
 1095.69        2976.50           1576          71.00       280.30
 1095.72        2976.75           1579          66.00       258.50
 1095.75        2977.00           1583          65.00       254.14
 1095.78        2977.25           1586          63.00       245.42
 1095.81        2977.50           1590          65.00       254.14
 1095.84        2977.75           1593          69.00       271.58
 1095.87        2978.00           1596          65.00       254.14
 1095.90        2978.25           1600          77.00       306.45
 1095.93        2978.50           1603          62.00       241.07
 1095.96        2978.75           1606          66.00       258.50
 1095.99        2979.00           1610          70.00       275.94
 1096.03        2979.25           1613          65.00       254.14
 1096.06        2979.50           1616          64.00       249.78
 1096.09        2979.75           1620          56.00       214.91
 1096.12        2980.00           1623          69.00       271.58
 1096.15        2980.25           1626          66.00       258.50
 1096.18        2980.50           1630          62.00       241.07
 1096.21        2980.75           1633          67.00       262.86
 1096.24        2981.00           1637          68.00       267.22
 1096.27        2981.25           1640          64.00       249.78
 1096.30        2981.50           1643          54.00       206.19
 1096.33        2981.75           1647          66.00       258.50
 1096.36        2982.00           1650          62.00       241.07
 1096.39        2982.25           1653          63.00       245.42
 1096.43        2982.50           1657          61.00       236.71
 1096.46        2982.75           1660          66.00       258.50
 1096.49        2983.00           1663          59.00       227.99
 1096.52        2983.25           1667          62.00       241.07
 1096.55        2983.50           1670          63.00       245.42
 1096.58        2983.75           1673          66.00       258.50
 1096.61        2984.00           1677          70.00       275.94
HS scan finished at 18:16:50
end
