************************************************************
  HS Scan of (1) Internal mercury lamp
************************************************************
Integration time is 0.2294 seconds per sample
dh141017Manchester 53.47 2.23 2.911481pr1000
************************************************************
Dead Time -------------------------  3E-08 
Number of Cycles Used -------------  4 
Starting Wavelength (Angstroms) ---  2950 
Final Wavelength (Angstoms) -------  2984 
Wavelength Increment (Angstroms) --  .25 
Filter Wheel #1 Position ---------- (1) Ground quartz diffuser (ND=2.32)
Filter Wheel #2 Position ---------- (1) Neutral Density 0.494



************************************************************
HS scan start time = 03:44:46
Dark Count =  4.4 


Time (GMT)  Wavelength (Ang)  Step Number  Raw Counts  Counts/Second

  225.13        2950.00           1222          69.00       281.61
  225.20        2950.25           1226          68.00       277.25
  225.23        2950.50           1229          71.00       290.33
  225.26        2950.75           1232          71.00       290.33
  225.29        2951.00           1236          69.00       281.61
  225.32        2951.25           1239          70.00       285.97
  225.35        2951.50           1242          71.00       290.33
  225.38        2951.75           1246          66.00       268.53
  225.42        2952.00           1249          68.00       277.25
  225.45        2952.25           1252          72.00       294.68
  225.48        2952.50           1256          78.00       320.84
  225.51        2952.75           1259          77.00       316.48
  225.54        2953.00           1262          72.00       294.68
  225.57        2953.25           1266          76.00       312.12
  225.60        2953.50           1269          63.00       255.45
  225.63        2953.75           1272          68.00       277.25
  225.66        2954.00           1276          75.00       307.76
  225.69        2954.25           1279          70.00       285.97
  225.72        2954.50           1282          73.00       299.04
  225.75        2954.75           1286          70.00       285.97
  225.78        2955.00           1289          66.00       268.53
  225.82        2955.25           1292          69.00       281.61
  225.85        2955.50           1296          65.00       264.17
  225.88        2955.75           1299          69.00       281.61
  225.91        2956.00           1302          70.00       285.97
  225.94        2956.25           1306          70.00       285.97
  225.97        2956.50           1309          66.00       268.53
  226.00        2956.75           1312          68.00       277.25
  226.03        2957.00           1316          72.00       294.68
  226.06        2957.25           1319          67.00       272.89
  226.09        2957.50           1322          70.00       285.97
  226.12        2957.75           1326          66.00       268.53
  226.15        2958.00           1329          73.00       299.04
  226.18        2958.25           1332          73.00       299.04
  226.21        2958.50           1336          75.00       307.76
  226.25        2958.75           1339          67.00       272.89
  226.28        2959.00           1342          68.00       277.25
  226.31        2959.25           1346          78.00       320.84
  226.34        2959.50           1349          83.00       342.64
  226.37        2959.75           1352          98.00       408.03
  226.40        2960.00           1356         131.00       551.88
  226.43        2960.25           1359         168.00       713.18
  226.46        2960.50           1362         190.00       809.09
  226.49        2960.75           1366         269.00      1153.48
  226.52        2961.00           1369         305.00      1310.43
  226.55        2961.25           1372         352.00      1515.33
  226.58        2961.50           1376         440.00      1898.97
  226.61        2961.75           1379         485.00      2095.16
  226.64        2962.00           1382         915.00      3969.96
  226.68        2962.25           1386        2347.00     10214.99
  226.71        2962.50           1389        3911.00     17038.35
  226.74        2962.75           1392        5531.00     24108.98
  226.77        2963.00           1396        7703.00     33593.56
  226.80        2963.25           1399        9240.00     40308.52
  226.83        2963.50           1402       10797.00     47113.62
  226.86        2963.75           1406       12875.00     56200.17
  226.89        2964.00           1409       14576.00     63641.88
  226.92        2964.25           1412       16297.00     71174.49
  226.96        2964.50           1416       18594.00     81233.47
  226.99        2964.75           1419       20065.00     87678.44
  227.02        2965.00           1422       21777.00     95182.48
  227.05        2965.25           1426       24223.00    105909.60
  227.08        2965.50           1429       25899.00    113263.90
  227.11        2965.75           1432       27695.00    121148.30
  227.14        2966.00           1436       29774.00    130279.80
  227.17        2966.25           1439       31230.00    136677.90
  227.20        2966.50           1442       32922.00    144116.10
  227.23        2966.75           1446       34874.00    152701.40
  227.27        2967.00           1449       35659.00    156155.30
  227.30        2967.25           1452       35937.00    157378.60
  227.33        2967.50           1456       35873.00    157097.00
  227.36        2967.75           1459       36022.00    157752.70
  227.39        2968.00           1462       35703.00    156348.90
  227.42        2968.25           1466       35101.00    153700.10
  227.45        2968.50           1469       34189.00    149688.10
  227.48        2968.75           1472       32706.00    143166.30
  227.51        2969.00           1476       30619.00    133992.60
  227.55        2969.25           1479       28941.00    126620.40
  227.58        2969.50           1482       27071.00    118408.50
  227.61        2969.75           1486       25091.00    109718.00
  227.64        2970.00           1489       23508.00    102773.20
  227.67        2970.25           1492       21932.00     95862.04
  227.70        2970.50           1496       19844.00     86710.01
  227.73        2970.75           1499       18203.00     79520.78
  227.76        2971.00           1502       16325.00     71297.06
  227.79        2971.25           1506       14026.00     61235.32
  227.83        2971.50           1509       12336.00     53842.79
  227.86        2971.75           1513       10108.00     44101.90
  227.89        2972.00           1516        8499.00     37070.85
  227.92        2972.25           1519        6797.00     29636.63
  227.95        2972.50           1523        4644.00     20237.22
  227.98        2972.75           1526        3079.00     13408.18
  228.01        2973.00           1529        1651.00      7179.40
  228.04        2973.25           1533         541.00      2339.31
  228.07        2973.50           1536         339.00      1458.65
  228.10        2973.75           1539         271.00      1162.20
  228.13        2974.00           1543         239.00      1022.70
  228.16        2974.25           1546         173.00       734.98
  228.19        2974.50           1549         125.00       525.73
  228.22        2974.75           1553          94.00       390.59
  228.26        2975.00           1556          82.00       338.28
  228.29        2975.25           1559          68.00       277.25
  228.32        2975.50           1563          67.00       272.89
  228.35        2975.75           1566          68.00       277.25
  228.38        2976.00           1569          68.00       277.25
  228.41        2976.25           1573          64.00       259.81
  228.44        2976.50           1576          66.00       268.53
  228.47        2976.75           1579          71.00       290.33
  228.50        2977.00           1583          70.00       285.97
  228.53        2977.25           1586          64.00       259.81
  228.56        2977.50           1590          63.00       255.45
  228.59        2977.75           1593          66.00       268.53
  228.63        2978.00           1596          64.00       259.81
  228.66        2978.25           1600          66.00       268.53
  228.69        2978.50           1603          62.00       251.09
  228.72        2978.75           1606          63.00       255.45
  228.75        2979.00           1610          57.00       229.30
  228.78        2979.25           1613          61.00       246.73
  228.81        2979.50           1616          60.00       242.37
  228.84        2979.75           1620          61.00       246.73
  228.87        2980.00           1623          67.00       272.89
  228.90        2980.25           1626          56.00       224.94
  228.93        2980.50           1630          67.00       272.89
  228.97        2980.75           1633          52.00       207.50
  229.00        2981.00           1637          63.00       255.45
  229.03        2981.25           1640          56.00       224.94
  229.06        2981.50           1643          65.00       264.17
  229.09        2981.75           1647          59.00       238.01
  229.12        2982.00           1650          51.00       203.14
  229.15        2982.25           1653          63.00       255.45
  229.18        2982.50           1657          64.00       259.81
  229.21        2982.75           1660          59.00       238.01
  229.24        2983.00           1663          62.00       251.09
  229.28        2983.25           1667          61.00       246.73
  229.31        2983.50           1670          66.00       268.53
  229.34        2983.75           1673          55.00       220.58
  229.37        2984.00           1677          72.00       294.68
HS scan finished at 03:49:35
end
************************************************************
  HS Scan of (1) Internal mercury lamp
************************************************************
Integration time is 0.2294 seconds per sample
dh141017Manchester 53.47 2.23 2.911481pr1000
************************************************************
Dead Time -------------------------  3E-08 
Number of Cycles Used -------------  4 
Starting Wavelength (Angstroms) ---  2950 
Final Wavelength (Angstoms) -------  2984 
Wavelength Increment (Angstroms) --  .25 
Filter Wheel #1 Position ---------- (1) Ground quartz diffuser (ND=2.32)
Filter Wheel #2 Position ---------- (1) Neutral Density 0.494



************************************************************
HS scan start time = 18:12:00
Dark Count =  6 


Time (GMT)  Wavelength (Ang)  Step Number  Raw Counts  Counts/Second

 1092.38        2950.00           1222          70.00       278.99
 1092.44        2950.25           1226          72.00       287.71
 1092.47        2950.50           1229          73.00       292.07
 1092.51        2950.75           1232          75.00       300.79
 1092.54        2951.00           1236          77.00       309.51
 1092.57        2951.25           1239          77.00       309.51
 1092.60        2951.50           1242          65.00       257.19
 1092.63        2951.75           1246          71.00       283.35
 1092.66        2952.00           1249          71.00       283.35
 1092.69        2952.25           1252          79.00       318.22
 1092.72        2952.50           1256          60.00       235.40
 1092.75        2952.75           1259          73.00       292.07
 1092.78        2953.00           1262          72.00       287.71
 1092.81        2953.25           1266          67.00       265.91
 1092.84        2953.50           1269          65.00       257.19
 1092.88        2953.75           1272          73.00       292.07
 1092.91        2954.00           1276          66.00       261.55
 1092.94        2954.25           1279          66.00       261.55
 1092.97        2954.50           1282          68.00       270.27
 1093.00        2954.75           1286          77.00       309.51
 1093.03        2955.00           1289          56.00       217.96
 1093.06        2955.25           1292          69.00       274.63
 1093.09        2955.50           1296          67.00       265.91
 1093.12        2955.75           1299          69.00       274.63
 1093.15        2956.00           1302          75.00       300.79
 1093.18        2956.25           1306          71.00       283.35
 1093.21        2956.50           1309          81.00       326.94
 1093.24        2956.75           1312          62.00       244.12
 1093.27        2957.00           1316          73.00       292.07
 1093.30        2957.25           1319          68.00       270.27
 1093.33        2957.50           1322          59.00       231.04
 1093.37        2957.75           1326          70.00       278.99
 1093.40        2958.00           1329          70.00       278.99
 1093.43        2958.25           1332          71.00       283.35
 1093.46        2958.50           1336          68.00       270.27
 1093.49        2958.75           1339          76.00       305.15
 1093.52        2959.00           1342          72.00       287.71
 1093.55        2959.25           1346          66.00       261.55
 1093.58        2959.50           1349          83.00       335.66
 1093.61        2959.75           1352         108.00       444.64
 1093.64        2960.00           1356         149.00       623.38
 1093.67        2960.25           1359         188.00       793.39
 1093.70        2960.50           1362         243.00      1033.16
 1093.74        2960.75           1366         272.00      1159.59
 1093.77        2961.00           1369         311.00      1329.61
 1093.80        2961.25           1372         363.00      1556.31
 1093.83        2961.50           1376         407.00      1748.13
 1093.86        2961.75           1379         538.00      2319.25
 1093.89        2962.00           1382         947.00      4102.51
 1093.92        2962.25           1386        2485.00     10809.96
 1093.95        2962.50           1389        3988.00     17367.37
 1093.98        2962.75           1392        5535.00     24119.45
 1094.01        2963.00           1396        7636.00     33293.92
 1094.04        2963.25           1399        9197.00     40113.63
 1094.08        2963.50           1402       10952.00     47784.24
 1094.11        2963.75           1406       13226.00     57728.49
 1094.14        2964.00           1409       14930.00     65184.02
 1094.17        2964.25           1412       16755.00     73172.66
 1094.20        2964.50           1416       19018.00     83083.90
 1094.23        2964.75           1419       20696.00     90436.84
 1094.26        2965.00           1422       22372.00     97784.25
 1094.29        2965.25           1426       24670.00    107863.70
 1094.32        2965.50           1429       26084.00    114068.90
 1094.35        2965.75           1432       27850.00    121821.90
 1094.39        2966.00           1436       30016.00    131336.00
 1094.42        2966.25           1439       31767.00    139031.20
 1094.45        2966.50           1442       33189.00    145283.10
 1094.48        2966.75           1446       34857.00    152619.60
 1094.51        2967.00           1449       35686.00    156267.10
 1094.54        2967.25           1452       35744.00    156522.30
 1094.57        2967.50           1456       35661.00    156157.00
 1094.60        2967.75           1459       35683.00    156253.90
 1094.63        2968.00           1462       35372.00    154885.40
 1094.67        2968.25           1466       34751.00    152153.30
 1094.70        2968.50           1469       33610.00    147134.50
 1094.73        2968.75           1472       31893.00    139585.10
 1094.76        2969.00           1476       29773.00    130268.40
 1094.79        2969.25           1479       28192.00    123323.80
 1094.82        2969.50           1482       26527.00    116013.40
 1094.85        2969.75           1486       24338.00    106407.10
 1094.88        2970.00           1489       22643.00     98972.59
 1094.91        2970.25           1492       21013.00     91826.29
 1094.95        2970.50           1496       18864.00     82409.25
 1094.98        2970.75           1499       17351.00     75782.38
 1095.01        2971.00           1502       15707.00     68584.74
 1095.04        2971.25           1506       13493.00     58896.48
 1095.07        2971.50           1509       11921.00     52020.97
 1095.10        2971.75           1513        9900.00     43185.82
 1095.13        2972.00           1516        8279.00     36102.72
 1095.16        2972.25           1519        6633.00     28913.47
 1095.19        2972.50           1523        4595.00     20016.38
 1095.23        2972.75           1526        3047.00     13261.60
 1095.26        2973.00           1529        1480.00      6426.70
 1095.29        2973.25           1533         499.00      2149.22
 1095.32        2973.50           1536         348.00      1490.91
 1095.35        2973.75           1539         297.00      1268.57
 1095.38        2974.00           1543         231.00       980.85
 1095.41        2974.25           1546         166.00       697.49
 1095.44        2974.50           1549         126.00       523.11
 1095.47        2974.75           1553          86.00       348.74
 1095.50        2975.00           1556          81.00       326.94
 1095.54        2975.25           1559          76.00       305.15
 1095.57        2975.50           1563          72.00       287.71
 1095.60        2975.75           1566          64.00       252.84
 1095.63        2976.00           1569          66.00       261.55
 1095.66        2976.25           1573          67.00       265.91
 1095.69        2976.50           1576          63.00       248.48
 1095.72        2976.75           1579          70.00       278.99
 1095.75        2977.00           1583          66.00       261.55
 1095.78        2977.25           1586          60.00       235.40
 1095.81        2977.50           1590          66.00       261.55
 1095.84        2977.75           1593          73.00       292.07
 1095.87        2978.00           1596          71.00       283.35
 1095.91        2978.25           1600          68.00       270.27
 1095.94        2978.50           1603          63.00       248.48
 1095.97        2978.75           1606          62.00       244.12
 1096.00        2979.00           1610          61.00       239.76
 1096.03        2979.25           1613          65.00       257.19
 1096.06        2979.50           1616          70.00       278.99
 1096.09        2979.75           1620          64.00       252.84
 1096.12        2980.00           1623          68.00       270.27
 1096.15        2980.25           1626          68.00       270.27
 1096.18        2980.50           1630          63.00       248.48
 1096.21        2980.75           1633          58.00       226.68
 1096.25        2981.00           1637          61.00       239.76
 1096.28        2981.25           1640          67.00       265.91
 1096.31        2981.50           1643          63.00       248.48
 1096.34        2981.75           1647          59.00       231.04
 1096.37        2982.00           1650          66.00       261.55
 1096.40        2982.25           1653          58.00       226.68
 1096.43        2982.50           1657          62.00       244.12
 1096.46        2982.75           1660          59.00       231.04
 1096.49        2983.00           1663          73.00       292.07
 1096.52        2983.25           1667          57.00       222.32
 1096.55        2983.50           1670          60.00       235.40
 1096.59        2983.75           1673          58.00       226.68
 1096.62        2984.00           1677          59.00       231.04
HS scan finished at 18:16:50
end
