************************************************************
  HS Scan of (1) Internal mercury lamp
************************************************************
Integration time is 0.2294 seconds per sample
dh151018Manchester 53.47 2.23 2.804185pr1000
************************************************************
Dead Time -------------------------  3E-08 
Number of Cycles Used -------------  4 
Starting Wavelength (Angstroms) ---  2950 
Final Wavelength (Angstoms) -------  2984 
Wavelength Increment (Angstroms) --  .25 
Filter Wheel #1 Position ---------- (1) Ground quartz diffuser (ND=2.32)
Filter Wheel #2 Position ---------- (1) Neutral Density 0.494



************************************************************
HS scan start time = 03:46:24
Dark Count =  7.6 


Time (GMT)  Wavelength (Ang)  Step Number  Raw Counts  Counts/Second

  226.78        2950.00           1222          47.00       171.75
  226.84        2950.25           1226          49.00       180.47
  226.88        2950.50           1229          57.00       215.35
  226.91        2950.75           1232          54.00       202.27
  226.94        2951.00           1236          51.00       189.19
  226.97        2951.25           1239          54.00       202.27
  227.00        2951.50           1242          55.00       206.63
  227.03        2951.75           1246          55.00       206.63
  227.06        2952.00           1249          53.00       197.91
  227.09        2952.25           1252          47.00       171.75
  227.12        2952.50           1256          51.00       189.19
  227.15        2952.75           1259          47.00       171.75
  227.18        2953.00           1262          57.00       215.35
  227.21        2953.25           1266          53.00       197.91
  227.24        2953.50           1269          40.00       141.24
  227.27        2953.75           1272          59.00       224.06
  227.30        2954.00           1276          49.00       180.47
  227.33        2954.25           1279          52.00       193.55
  227.37        2954.50           1282          56.00       210.99
  227.40        2954.75           1286          52.00       193.55
  227.43        2955.00           1289          49.00       180.47
  227.46        2955.25           1292          49.00       180.47
  227.49        2955.50           1296          50.00       184.83
  227.52        2955.75           1299          47.00       171.75
  227.55        2956.00           1302          47.00       171.75
  227.58        2956.25           1306          48.00       176.11
  227.61        2956.50           1309          48.00       176.11
  227.65        2956.75           1312          56.00       210.99
  227.68        2957.00           1316          58.00       219.71
  227.71        2957.25           1319          51.00       189.19
  227.74        2957.50           1322          52.00       193.55
  227.77        2957.75           1326          47.00       171.75
  227.80        2958.00           1329          49.00       180.47
  227.83        2958.25           1332          50.00       184.83
  227.86        2958.50           1336          47.00       171.75
  227.89        2958.75           1339          50.00       184.83
  227.92        2959.00           1342          55.00       206.63
  227.95        2959.25           1346          55.00       206.63
  227.98        2959.50           1349          55.00       206.63
  228.02        2959.75           1352          67.00       258.94
  228.05        2960.00           1356          88.00       350.48
  228.08        2960.25           1359         112.00       455.11
  228.11        2960.50           1362         133.00       546.65
  228.14        2960.75           1366         191.00       799.50
  228.17        2961.00           1369         218.00       917.20
  228.20        2961.25           1372         249.00      1052.34
  228.23        2961.50           1376         295.00      1252.88
  228.26        2961.75           1379         512.00      2198.92
  228.29        2962.00           1382        1219.00      5281.57
  228.32        2962.25           1386        2597.00     11291.53
  228.35        2962.50           1389        3645.00     15863.69
  228.39        2962.75           1392        4822.00     21000.15
  228.42        2963.00           1396        6338.00     27618.34
  228.45        2963.25           1399        7449.00     32470.15
  228.48        2963.50           1402        8728.00     38057.38
  228.51        2963.75           1406       10329.00     45053.89
  228.54        2964.00           1409       11455.00     49976.36
  228.57        2964.25           1412       12626.00     55097.10
  228.60        2964.50           1416       14358.00     62673.97
  228.63        2964.75           1419       15299.00     66791.95
  228.66        2965.00           1422       16498.00     72040.45
  228.69        2965.25           1426       18206.00     79519.91
  228.73        2965.50           1429       19334.00     84461.34
  228.76        2965.75           1432       20549.00     89785.56
  228.79        2966.00           1436       21982.00     96067.24
  228.82        2966.25           1439       23107.00    101000.40
  228.85        2966.50           1442       24217.00    105869.30
  228.88        2966.75           1446       25203.00    110195.40
  228.91        2967.00           1449       25672.00    112253.60
  228.94        2967.25           1452       25563.00    111775.20
  228.97        2967.50           1456       25610.00    111981.50
  229.01        2967.75           1459       25538.00    111665.50
  229.04        2968.00           1462       25502.00    111507.50
  229.07        2968.25           1466       24551.00    107334.60
  229.10        2968.50           1469       23724.00    103706.60
  229.13        2968.75           1472       22519.00     98421.82
  229.16        2969.00           1476       20967.00     91617.65
  229.19        2969.25           1479       19822.00     86599.59
  229.22        2969.50           1482       18732.00     81823.98
  229.26        2969.75           1486       17125.00     74785.75
  229.29        2970.00           1489       15982.00     69781.51
  229.32        2970.25           1492       14688.00     64117.99
  229.35        2970.50           1496       13245.00     57804.61
  229.38        2970.75           1499       12116.00     52866.70
  229.41        2971.00           1502       10895.00     47528.06
  229.44        2971.25           1506        9291.00     40517.40
  229.47        2971.50           1509        8162.00     35584.61
  229.50        2971.75           1513        6657.00     29011.29
  229.53        2972.00           1516        5389.00     23475.12
  229.57        2972.25           1519        4223.00     18385.90
  229.60        2972.50           1523        2700.00     11740.84
  229.63        2972.75           1526        1618.00      7021.53
  229.66        2973.00           1529         709.00      3057.82
  229.69        2973.25           1533         340.00      1449.06
  229.72        2973.50           1536         257.00      1087.22
  229.75        2973.75           1539         232.00       978.23
  229.78        2974.00           1543         178.00       742.82
  229.81        2974.25           1546         157.00       651.28
  229.85        2974.50           1549         119.00       485.62
  229.88        2974.75           1553          84.00       333.05
  229.91        2975.00           1556          72.00       280.73
  229.94        2975.25           1559          55.00       206.63
  229.97        2975.50           1563          49.00       180.47
  230.00        2975.75           1566          49.00       180.47
  230.03        2976.00           1569          52.00       193.55
  230.06        2976.25           1573          52.00       193.55
  230.09        2976.50           1576          48.00       176.11
  230.12        2976.75           1579          48.00       176.11
  230.15        2977.00           1583          55.00       206.63
  230.19        2977.25           1586          46.00       167.39
  230.22        2977.50           1590          44.00       158.68
  230.25        2977.75           1593          48.00       176.11
  230.28        2978.00           1596          45.00       163.03
  230.31        2978.25           1600          43.00       154.32
  230.34        2978.50           1603          57.00       215.35
  230.37        2978.75           1606          50.00       184.83
  230.40        2979.00           1610          37.00       128.16
  230.43        2979.25           1613          51.00       189.19
  230.46        2979.50           1616          50.00       184.83
  230.49        2979.75           1620          52.00       193.55
  230.53        2980.00           1623          50.00       184.83
  230.56        2980.25           1626          44.00       158.68
  230.59        2980.50           1630          47.00       171.75
  230.62        2980.75           1633          52.00       193.55
  230.65        2981.00           1637          49.00       180.47
  230.68        2981.25           1640          41.00       145.60
  230.71        2981.50           1643          41.00       145.60
  230.74        2981.75           1647          45.00       163.03
  230.77        2982.00           1650          52.00       193.55
  230.80        2982.25           1653          46.00       167.39
  230.83        2982.50           1657          49.00       180.47
  230.86        2982.75           1660          45.00       163.03
  230.89        2983.00           1663          40.00       141.24
  230.93        2983.25           1667          39.00       136.88
  230.96        2983.50           1670          45.00       163.03
  230.99        2983.75           1673          42.00       149.96
  231.02        2984.00           1677          48.00       176.11
HS scan finished at 03:51:14
end
************************************************************
  HS Scan of (1) Internal mercury lamp
************************************************************
Integration time is 0.2294 seconds per sample
dh151018Manchester 53.47 2.23 2.804185pr1000
************************************************************
Dead Time -------------------------  3E-08 
Number of Cycles Used -------------  4 
Starting Wavelength (Angstroms) ---  2950 
Final Wavelength (Angstoms) -------  2984 
Wavelength Increment (Angstroms) --  .25 
Filter Wheel #1 Position ---------- (1) Ground quartz diffuser (ND=2.32)
Filter Wheel #2 Position ---------- (1) Neutral Density 0.494



************************************************************
HS scan start time = 18:12:04
Dark Count =  8.5 


Time (GMT)  Wavelength (Ang)  Step Number  Raw Counts  Counts/Second

 1092.44        2950.00           1222          54.00       198.34
 1092.51        2950.25           1226          54.00       198.34
 1092.54        2950.50           1229          52.00       189.63
 1092.57        2950.75           1232          49.00       176.55
 1092.60        2951.00           1236          59.00       220.14
 1092.63        2951.25           1239          54.00       198.34
 1092.66        2951.50           1242          48.00       172.19
 1092.69        2951.75           1246          46.00       163.47
 1092.72        2952.00           1249          55.00       202.70
 1092.75        2952.25           1252          46.00       163.47
 1092.78        2952.50           1256          48.00       172.19
 1092.81        2952.75           1259          51.00       185.27
 1092.85        2953.00           1262          49.00       176.55
 1092.88        2953.25           1266          48.00       172.19
 1092.91        2953.50           1269          54.00       198.34
 1092.94        2953.75           1272          52.00       189.63
 1092.97        2954.00           1276          55.00       202.70
 1093.00        2954.25           1279          52.00       189.63
 1093.03        2954.50           1282          49.00       176.55
 1093.06        2954.75           1286          52.00       189.63
 1093.09        2955.00           1289          48.00       172.19
 1093.12        2955.25           1292          51.00       185.27
 1093.16        2955.50           1296          50.00       180.91
 1093.19        2955.75           1299          55.00       202.70
 1093.22        2956.00           1302          53.00       193.99
 1093.25        2956.25           1306          60.00       224.50
 1093.28        2956.50           1309          47.00       167.83
 1093.31        2956.75           1312          42.00       146.03
 1093.34        2957.00           1316          48.00       172.19
 1093.37        2957.25           1319          52.00       189.63
 1093.40        2957.50           1322          49.00       176.55
 1093.43        2957.75           1326          55.00       202.70
 1093.46        2958.00           1329          49.00       176.55
 1093.50        2958.25           1332          51.00       185.27
 1093.53        2958.50           1336          47.00       167.83
 1093.56        2958.75           1339          51.00       185.27
 1093.59        2959.00           1342          47.00       167.83
 1093.62        2959.25           1346          55.00       202.70
 1093.65        2959.50           1349          61.00       228.86
 1093.68        2959.75           1352          66.00       250.66
 1093.71        2960.00           1356          98.00       390.15
 1093.74        2960.25           1359         111.00       446.82
 1093.77        2960.50           1362         131.00       534.01
 1093.80        2960.75           1366         169.00       699.67
 1093.83        2961.00           1369         219.00       917.64
 1093.86        2961.25           1372         255.00      1074.58
 1093.89        2961.50           1376         285.00      1205.36
 1093.92        2961.75           1379         378.00      1610.80
 1093.96        2962.00           1382         686.00      2953.62
 1093.99        2962.25           1386        1794.00      7785.17
 1094.02        2962.50           1389        2938.00     12775.17
 1094.05        2962.75           1392        4126.00     17958.67
 1094.08        2963.00           1396        5572.00     24270.06
 1094.11        2963.25           1399        6695.00     29173.30
 1094.14        2963.50           1402        7862.00     34270.18
 1094.17        2963.75           1406        9502.00     41435.52
 1094.20        2964.00           1409       10749.00     46885.87
 1094.24        2964.25           1412       11866.00     51769.53
 1094.27        2964.50           1416       13728.00     59913.61
 1094.30        2964.75           1419       14728.00     64289.09
 1094.33        2965.00           1422       16186.00     70670.60
 1094.36        2965.25           1426       17498.00     76415.18
 1094.39        2965.50           1429       18742.00     81863.85
 1094.42        2965.75           1432       19968.00     87235.41
 1094.45        2966.00           1436       21572.00     94265.78
 1094.48        2966.25           1439       22647.00     98979.18
 1094.52        2966.50           1442       23822.00    104132.60
 1094.55        2966.75           1446       24979.00    109208.60
 1094.58        2967.00           1449       25459.00    111314.90
 1094.61        2967.25           1452       25551.00    111718.60
 1094.64        2967.50           1456       25337.00    110779.50
 1094.67        2967.75           1459       25496.00    111477.30
 1094.70        2968.00           1462       25446.00    111257.80
 1094.73        2968.25           1466       24683.00    107909.80
 1094.76        2968.50           1469       23861.00    104303.60
 1094.80        2968.75           1472       22873.00     99970.25
 1094.83        2969.00           1476       21253.00     92867.35
 1094.86        2969.25           1479       20237.00     88414.24
 1094.89        2969.50           1482       19037.00     83156.19
 1094.92        2969.75           1486       17483.00     76349.49
 1094.95        2970.00           1489       16412.00     71659.99
 1094.98        2970.25           1492       15248.00     66564.79
 1095.01        2970.50           1496       13600.00     59353.63
 1095.04        2970.75           1499       12417.00     54179.10
 1095.07        2971.00           1502       11230.00     48988.69
 1095.10        2971.25           1506        9659.00     42121.64
 1095.13        2971.50           1509        8406.00     36646.63
 1095.16        2971.75           1513        6949.00     30282.51
 1095.20        2972.00           1516        5824.00     25370.22
 1095.23        2972.25           1519        4765.00     20747.44
 1095.26        2972.50           1523        3208.00     13953.09
 1095.29        2972.75           1526        2122.00      9215.71
 1095.32        2973.00           1529        1051.00      4545.08
 1095.35        2973.25           1533         383.00      1632.60
 1095.38        2973.50           1536         287.00      1214.08
 1095.41        2973.75           1539         235.00       987.39
 1095.44        2974.00           1543         198.00       826.09
 1095.47        2974.25           1546         151.00       621.20
 1095.51        2974.50           1549         112.00       451.18
 1095.54        2974.75           1553          87.00       342.20
 1095.57        2975.00           1556          67.00       255.02
 1095.60        2975.25           1559          66.00       250.66
 1095.63        2975.50           1563          49.00       176.55
 1095.66        2975.75           1566          50.00       180.91
 1095.69        2976.00           1569          50.00       180.91
 1095.72        2976.25           1573          51.00       185.27
 1095.75        2976.50           1576          48.00       172.19
 1095.78        2976.75           1579          44.00       154.75
 1095.81        2977.00           1583          46.00       163.47
 1095.85        2977.25           1586          45.00       159.11
 1095.88        2977.50           1590          52.00       189.63
 1095.91        2977.75           1593          53.00       193.99
 1095.94        2978.00           1596          44.00       154.75
 1095.97        2978.25           1600          52.00       189.63
 1096.00        2978.50           1603          46.00       163.47
 1096.03        2978.75           1606          50.00       180.91
 1096.06        2979.00           1610          36.00       119.88
 1096.09        2979.25           1613          47.00       167.83
 1096.12        2979.50           1616          48.00       172.19
 1096.15        2979.75           1620          45.00       159.11
 1096.19        2980.00           1623          45.00       159.11
 1096.22        2980.25           1626          51.00       185.27
 1096.25        2980.50           1630          49.00       176.55
 1096.28        2980.75           1633          42.00       146.03
 1096.31        2981.00           1637          46.00       163.47
 1096.34        2981.25           1640          45.00       159.11
 1096.37        2981.50           1643          42.00       146.03
 1096.40        2981.75           1647          42.00       146.03
 1096.43        2982.00           1650          46.00       163.47
 1096.46        2982.25           1653          45.00       159.11
 1096.49        2982.50           1657          44.00       154.75
 1096.53        2982.75           1660          37.00       124.24
 1096.56        2983.00           1663          37.00       124.24
 1096.59        2983.25           1667          53.00       193.99
 1096.62        2983.50           1670          40.00       137.32
 1096.65        2983.75           1673          44.00       154.75
 1096.68        2984.00           1677          47.00       167.83
HS scan finished at 18:16:54
end
