************************************************************
  HS Scan of (1) Internal mercury lamp
************************************************************
Integration time is 0.2294 seconds per sample
dh141018Manchester 53.47 2.23 2.804185pr1000
************************************************************
Dead Time -------------------------  3E-08 
Number of Cycles Used -------------  4 
Starting Wavelength (Angstroms) ---  2950 
Final Wavelength (Angstoms) -------  2984 
Wavelength Increment (Angstroms) --  .25 
Filter Wheel #1 Position ---------- (1) Ground quartz diffuser (ND=2.32)
Filter Wheel #2 Position ---------- (1) Neutral Density 0.494



************************************************************
HS scan start time = 03:44:12
Dark Count =  5.5 


Time (GMT)  Wavelength (Ang)  Step Number  Raw Counts  Counts/Second

  224.57        2950.00           1222          51.00       198.34
  224.64        2950.25           1226          49.00       189.63
  224.67        2950.50           1229          61.00       241.94
  224.70        2950.75           1232          53.00       207.06
  224.73        2951.00           1236          46.00       176.55
  224.76        2951.25           1239          54.00       211.42
  224.79        2951.50           1242          46.00       176.55
  224.82        2951.75           1246          55.00       215.78
  224.85        2952.00           1249          48.00       185.27
  224.89        2952.25           1252          47.00       180.91
  224.92        2952.50           1256          48.00       185.27
  224.95        2952.75           1259          51.00       198.34
  224.98        2953.00           1262          52.00       202.70
  225.01        2953.25           1266          47.00       180.91
  225.04        2953.50           1269          46.00       176.55
  225.07        2953.75           1272          51.00       198.34
  225.10        2954.00           1276          54.00       211.42
  225.13        2954.25           1279          45.00       172.19
  225.16        2954.50           1282          48.00       185.27
  225.19        2954.75           1286          53.00       207.06
  225.22        2955.00           1289          54.00       211.42
  225.26        2955.25           1292          45.00       172.19
  225.29        2955.50           1296          49.00       189.63
  225.32        2955.75           1299          47.00       180.91
  225.35        2956.00           1302          46.00       176.55
  225.38        2956.25           1306          46.00       176.55
  225.41        2956.50           1309          45.00       172.19
  225.44        2956.75           1312          47.00       180.91
  225.47        2957.00           1316          45.00       172.19
  225.50        2957.25           1319          48.00       185.27
  225.53        2957.50           1322          52.00       202.70
  225.56        2957.75           1326          47.00       180.91
  225.59        2958.00           1329          49.00       189.63
  225.63        2958.25           1332          53.00       207.06
  225.66        2958.50           1336          46.00       176.55
  225.69        2958.75           1339          51.00       198.34
  225.72        2959.00           1342          62.00       246.30
  225.75        2959.25           1346          50.00       193.99
  225.78        2959.50           1349          56.00       220.14
  225.81        2959.75           1352          64.00       255.02
  225.84        2960.00           1356          73.00       294.25
  225.87        2960.25           1359         112.00       464.26
  225.90        2960.50           1362         126.00       525.29
  225.94        2960.75           1366         160.00       673.51
  225.97        2961.00           1369         220.00       935.07
  226.00        2961.25           1372         240.00      1022.26
  226.03        2961.50           1376         291.00      1244.60
  226.06        2961.75           1379         437.00      1881.10
  226.09        2962.00           1382         959.00      4157.01
  226.12        2962.25           1386        2290.00      9961.56
  226.15        2962.50           1389        3582.00     15597.97
  226.18        2962.75           1392        4659.00     20297.89
  226.21        2963.00           1396        6173.00     26907.07
  226.24        2963.25           1399        7275.00     31719.36
  226.28        2963.50           1402        8426.00     36747.11
  226.31        2963.75           1406        9905.00     43209.86
  226.34        2964.00           1409       11069.00     48297.92
  226.37        2964.25           1412       12316.00     53750.51
  226.40        2964.50           1416       13983.00     61042.38
  226.43        2964.75           1419       14927.00     65173.07
  226.46        2965.00           1422       16358.00     71436.72
  226.49        2965.25           1426       18054.00     78863.35
  226.53        2965.50           1429       19324.00     84426.74
  226.56        2965.75           1432       20433.00     89286.36
  226.59        2966.00           1436       21974.00     96041.35
  226.62        2966.25           1439       23085.00    100913.20
  226.65        2966.50           1442       24084.00    105295.00
  226.68        2966.75           1446       25414.00    111130.60
  226.71        2967.00           1449       25413.00    111126.20
  226.74        2967.25           1452       25694.00    112359.40
  226.77        2967.50           1456       25511.00    111556.20
  226.81        2967.75           1459       25433.00    111214.00
  226.84        2968.00           1462       25425.00    111178.90
  226.87        2968.25           1466       24842.00    108620.60
  226.90        2968.50           1469       23712.00    103663.20
  226.93        2968.75           1472       22462.00     98181.08
  226.96        2969.00           1476       20987.00     91714.51
  226.99        2969.25           1479       19961.00     87217.89
  227.02        2969.50           1482       18730.00     81824.41
  227.05        2969.75           1486       17325.00     75670.72
  227.09        2970.00           1489       16211.00     70793.18
  227.12        2970.25           1492       15024.00     65597.58
  227.15        2970.50           1496       13433.00     58636.19
  227.18        2970.75           1499       12066.00     52657.23
  227.21        2971.00           1502       11059.00     48254.20
  227.24        2971.25           1506        9397.00     40989.79
  227.27        2971.50           1509        8372.00     36511.20
  227.30        2971.75           1513        6654.00     29007.36
  227.33        2972.00           1516        5453.00     23763.67
  227.37        2972.25           1519        4232.00     18434.34
  227.40        2972.50           1523        2774.00     12072.81
  227.43        2972.75           1526        1656.00      7196.41
  227.46        2973.00           1529         796.00      3446.30
  227.49        2973.25           1533         368.00      1580.28
  227.52        2973.50           1536         262.00      1118.17
  227.55        2973.75           1539         225.00       956.87
  227.58        2974.00           1543         197.00       834.81
  227.61        2974.25           1546         138.00       577.60
  227.64        2974.50           1549         117.00       486.06
  227.67        2974.75           1553          78.00       316.04
  227.71        2975.00           1556          66.00       263.73
  227.74        2975.25           1559          52.00       202.70
  227.77        2975.50           1563          49.00       189.63
  227.80        2975.75           1566          51.00       198.34
  227.83        2976.00           1569          54.00       211.42
  227.86        2976.25           1573          55.00       215.78
  227.89        2976.50           1576          47.00       180.91
  227.92        2976.75           1579          42.00       159.11
  227.95        2977.00           1583          42.00       159.11
  227.98        2977.25           1586          54.00       211.42
  228.01        2977.50           1590          45.00       172.19
  228.05        2977.75           1593          46.00       176.55
  228.08        2978.00           1596          52.00       202.70
  228.11        2978.25           1600          54.00       211.42
  228.14        2978.50           1603          47.00       180.91
  228.17        2978.75           1606          39.00       146.03
  228.20        2979.00           1610          49.00       189.63
  228.23        2979.25           1613          42.00       159.11
  228.26        2979.50           1616          56.00       220.14
  228.29        2979.75           1620          49.00       189.63
  228.32        2980.00           1623          48.00       185.27
  228.35        2980.25           1626          49.00       189.63
  228.39        2980.50           1630          46.00       176.55
  228.42        2980.75           1633          45.00       172.19
  228.45        2981.00           1637          43.00       163.47
  228.48        2981.25           1640          43.00       163.47
  228.51        2981.50           1643          43.00       163.47
  228.54        2981.75           1647          41.00       154.75
  228.57        2982.00           1650          43.00       163.47
  228.60        2982.25           1653          47.00       180.91
  228.63        2982.50           1657          43.00       163.47
  228.66        2982.75           1660          45.00       172.19
  228.69        2983.00           1663          45.00       172.19
  228.72        2983.25           1667          48.00       185.27
  228.75        2983.50           1670          48.00       185.27
  228.78        2983.75           1673          44.00       167.83
  228.82        2984.00           1677          47.00       180.91
HS scan finished at 03:49:02
end
************************************************************
  HS Scan of (1) Internal mercury lamp
************************************************************
Integration time is 0.2294 seconds per sample
dh141018Manchester 53.47 2.23 2.804185pr1000
************************************************************
Dead Time -------------------------  3E-08 
Number of Cycles Used -------------  4 
Starting Wavelength (Angstroms) ---  2950 
Final Wavelength (Angstoms) -------  2984 
Wavelength Increment (Angstroms) --  .25 
Filter Wheel #1 Position ---------- (1) Ground quartz diffuser (ND=2.32)
Filter Wheel #2 Position ---------- (1) Neutral Density 0.494



************************************************************
HS scan start time = 18:12:01
Dark Count =  6 


Time (GMT)  Wavelength (Ang)  Step Number  Raw Counts  Counts/Second

 1092.39        2950.00           1222          52.00       200.52
 1092.46        2950.25           1226          49.00       187.45
 1092.49        2950.50           1229          50.00       191.81
 1092.52        2950.75           1232          51.00       196.17
 1092.55        2951.00           1236          53.00       204.88
 1092.58        2951.25           1239          48.00       183.09
 1092.61        2951.50           1242          48.00       183.09
 1092.64        2951.75           1246          47.00       178.73
 1092.67        2952.00           1249          54.00       209.24
 1092.70        2952.25           1252          59.00       231.04
 1092.74        2952.50           1256          47.00       178.73
 1092.77        2952.75           1259          48.00       183.09
 1092.80        2953.00           1262          46.00       174.37
 1092.83        2953.25           1266          50.00       191.81
 1092.86        2953.50           1269          49.00       187.45
 1092.89        2953.75           1272          48.00       183.09
 1092.92        2954.00           1276          57.00       222.32
 1092.95        2954.25           1279          42.00       156.93
 1092.98        2954.50           1282          53.00       204.88
 1093.01        2954.75           1286          48.00       183.09
 1093.04        2955.00           1289          56.00       217.96
 1093.07        2955.25           1292          57.00       222.32
 1093.11        2955.50           1296          55.00       213.60
 1093.14        2955.75           1299          56.00       217.96
 1093.17        2956.00           1302          54.00       209.24
 1093.20        2956.25           1306          44.00       165.65
 1093.23        2956.50           1309          49.00       187.45
 1093.26        2956.75           1312          52.00       200.52
 1093.29        2957.00           1316          55.00       213.60
 1093.32        2957.25           1319          47.00       178.73
 1093.35        2957.50           1322          49.00       187.45
 1093.38        2957.75           1326          49.00       187.45
 1093.41        2958.00           1329          49.00       187.45
 1093.45        2958.25           1332          50.00       191.81
 1093.48        2958.50           1336          54.00       209.24
 1093.51        2958.75           1339          41.00       152.57
 1093.54        2959.00           1342          55.00       213.60
 1093.57        2959.25           1346          55.00       213.60
 1093.60        2959.50           1349          55.00       213.60
 1093.63        2959.75           1352          66.00       261.55
 1093.66        2960.00           1356          92.00       374.90
 1093.69        2960.25           1359         121.00       501.32
 1093.72        2960.50           1362         140.00       584.14
 1093.76        2960.75           1366         175.00       736.72
 1093.79        2961.00           1369         211.00       893.66
 1093.82        2961.25           1372         233.00       989.57
 1093.85        2961.50           1376         318.00      1360.13
 1093.88        2961.75           1379         490.00      2109.99
 1093.91        2962.00           1382        1113.00      4826.33
 1093.94        2962.25           1386        2534.00     11023.70
 1093.97        2962.50           1389        3695.00     16088.85
 1094.00        2962.75           1392        4758.00     20727.79
 1094.03        2963.00           1396        6321.00     27551.10
 1094.06        2963.25           1399        7352.00     32053.48
 1094.10        2963.50           1402        8615.00     37570.66
 1094.13        2963.75           1406       10171.00     44370.27
 1094.16        2964.00           1409       11374.00     49629.20
 1094.19        2964.25           1412       12550.00     54771.71
 1094.22        2964.50           1416       14251.00     62212.78
 1094.25        2964.75           1419       15474.00     67564.90
 1094.28        2965.00           1422       16613.00     72550.94
 1094.31        2965.25           1426       18312.00     79991.21
 1094.34        2965.50           1429       19537.00     85357.81
 1094.38        2965.75           1432       20656.00     90261.52
 1094.41        2966.00           1436       22266.00     97319.47
 1094.44        2966.25           1439       23320.00    101941.60
 1094.47        2966.50           1442       24267.00    106095.70
 1094.50        2966.75           1446       25282.00    110549.10
 1094.53        2967.00           1449       25502.00    111514.60
 1094.56        2967.25           1452       25469.00    111369.70
 1094.59        2967.50           1456       25426.00    111181.00
 1094.62        2967.75           1459       25399.00    111062.50
 1094.65        2968.00           1462       25331.00    110764.10
 1094.68        2968.25           1466       24406.00    106705.50
 1094.72        2968.50           1469       23278.00    101757.40
 1094.75        2968.75           1472       22260.00     97293.16
 1094.78        2969.00           1476       20811.00     90940.88
 1094.81        2969.25           1479       19521.00     85287.69
 1094.84        2969.50           1482       18417.00     80451.13
 1094.87        2969.75           1486       16951.00     74030.85
 1094.90        2970.00           1489       15799.00     68987.44
 1094.93        2970.25           1492       14609.00     63779.29
 1094.96        2970.50           1496       13060.00     57002.37
 1095.00        2970.75           1499       11819.00     51574.94
 1095.03        2971.00           1502       10582.00     46166.78
 1095.06        2971.25           1506        8961.00     39082.42
 1095.09        2971.50           1509        7754.00     33809.35
 1095.12        2971.75           1513        6255.00     27262.92
 1095.15        2972.00           1516        5019.00     21867.00
 1095.18        2972.25           1519        4006.00     17445.92
 1095.21        2972.50           1523        2422.00     10535.15
 1095.24        2972.75           1526        1372.00      5955.73
 1095.27        2973.00           1529         640.00      2763.96
 1095.30        2973.25           1533         324.00      1386.28
 1095.33        2973.50           1536         259.00      1102.91
 1095.37        2973.75           1539         194.00       819.55
 1095.40        2974.00           1543         174.00       732.36
 1095.43        2974.25           1546         127.00       527.47
 1095.46        2974.50           1549          98.00       401.05
 1095.49        2974.75           1553          84.00       340.02
 1095.52        2975.00           1556          68.00       270.27
 1095.55        2975.25           1559          53.00       204.88
 1095.58        2975.50           1563          51.00       196.17
 1095.61        2975.75           1566          50.00       191.81
 1095.64        2976.00           1569          55.00       213.60
 1095.67        2976.25           1573          50.00       191.81
 1095.70        2976.50           1576          53.00       204.88
 1095.73        2976.75           1579          54.00       209.24
 1095.76        2977.00           1583          48.00       183.09
 1095.80        2977.25           1586          41.00       152.57
 1095.83        2977.50           1590          46.00       174.37
 1095.86        2977.75           1593          44.00       165.65
 1095.89        2978.00           1596          44.00       165.65
 1095.92        2978.25           1600          46.00       174.37
 1095.95        2978.50           1603          55.00       213.60
 1095.98        2978.75           1606          50.00       191.81
 1096.01        2979.00           1610          46.00       174.37
 1096.04        2979.25           1613          55.00       213.60
 1096.07        2979.50           1616          56.00       217.96
 1096.10        2979.75           1620          48.00       183.09
 1096.13        2980.00           1623          51.00       196.17
 1096.16        2980.25           1626          47.00       178.73
 1096.21        2980.50           1630          47.00       178.73
 1096.25        2980.75           1633          43.00       161.29
 1096.28        2981.00           1637          50.00       191.81
 1096.31        2981.25           1640          48.00       183.09
 1096.34        2981.50           1643          50.00       191.81
 1096.37        2981.75           1647          40.00       148.21
 1096.40        2982.00           1650          46.00       174.37
 1096.43        2982.25           1653          42.00       156.93
 1096.46        2982.50           1657          44.00       165.65
 1096.49        2982.75           1660          44.00       165.65
 1096.53        2983.00           1663          43.00       161.29
 1096.56        2983.25           1667          42.00       156.93
 1096.59        2983.50           1670          50.00       191.81
 1096.62        2983.75           1673          47.00       178.73
 1096.65        2984.00           1677          45.00       170.01
HS scan finished at 18:16:52
end
