************************************************************
  HS Scan of (1) Internal mercury lamp
************************************************************
Integration time is 0.2294 seconds per sample
dh151017Manchester 53.47 2.23 2.804185pr1000
************************************************************
Dead Time -------------------------  3E-08 
Number of Cycles Used -------------  4 
Starting Wavelength (Angstroms) ---  2950 
Final Wavelength (Angstoms) -------  2984 
Wavelength Increment (Angstroms) --  .25 
Filter Wheel #1 Position ---------- (1) Ground quartz diffuser (ND=2.32)
Filter Wheel #2 Position ---------- (1) Neutral Density 0.494



************************************************************
HS scan start time = 03:46:58
Dark Count =  6.2 


Time (GMT)  Wavelength (Ang)  Step Number  Raw Counts  Counts/Second

  227.33        2950.00           1222          69.00       273.76
  227.40        2950.25           1226          73.00       291.20
  227.43        2950.50           1229          66.00       260.68
  227.46        2950.75           1232          72.00       286.84
  227.49        2951.00           1236          75.00       299.92
  227.52        2951.25           1239          77.00       308.63
  227.55        2951.50           1242          71.00       282.48
  227.58        2951.75           1246          76.00       304.27
  227.61        2952.00           1249          73.00       291.20
  227.65        2952.25           1252          68.00       269.40
  227.68        2952.50           1256          68.00       269.40
  227.71        2952.75           1259          64.00       251.96
  227.74        2953.00           1262          63.00       247.60
  227.77        2953.25           1266          67.00       265.04
  227.80        2953.50           1269          65.00       256.32
  227.83        2953.75           1272          66.00       260.68
  227.86        2954.00           1276          66.00       260.68
  227.89        2954.25           1279          64.00       251.96
  227.92        2954.50           1282          77.00       308.63
  227.95        2954.75           1286          68.00       269.40
  227.98        2955.00           1289          71.00       282.48
  228.02        2955.25           1292          73.00       291.20
  228.05        2955.50           1296          76.00       304.27
  228.08        2955.75           1299          71.00       282.48
  228.11        2956.00           1302          77.00       308.63
  228.14        2956.25           1306          73.00       291.20
  228.17        2956.50           1309          71.00       282.48
  228.20        2956.75           1312          76.00       304.27
  228.23        2957.00           1316          64.00       251.96
  228.26        2957.25           1319          69.00       273.76
  228.29        2957.50           1322          66.00       260.68
  228.32        2957.75           1326          68.00       269.40
  228.35        2958.00           1329          72.00       286.84
  228.39        2958.25           1332          75.00       299.92
  228.42        2958.50           1336          70.00       278.12
  228.45        2958.75           1339          67.00       265.04
  228.48        2959.00           1342          68.00       269.40
  228.51        2959.25           1346          77.00       308.63
  228.54        2959.50           1349          81.00       326.07
  228.57        2959.75           1352          83.00       334.79
  228.60        2960.00           1356          99.00       404.54
  228.63        2960.25           1359         123.00       509.16
  228.66        2960.50           1362         164.00       687.90
  228.69        2960.75           1366         214.00       905.87
  228.72        2961.00           1369         258.00      1097.68
  228.76        2961.25           1372         277.00      1180.51
  228.79        2961.50           1376         376.00      1612.11
  228.82        2961.75           1379         513.00      2209.39
  228.85        2962.00           1382        1006.00      4358.90
  228.88        2962.25           1386        2590.00     11267.10
  228.91        2962.50           1389        4074.00     17741.79
  228.94        2962.75           1392        5639.00     24572.60
  228.97        2963.00           1396        7590.00     33092.12
  229.00        2963.25           1399        9078.00     39592.77
  229.03        2963.50           1402       10817.00     47193.19
  229.06        2963.75           1406       12989.00     56690.93
  229.10        2964.00           1409       14830.00     64745.52
  229.13        2964.25           1412       16342.00     71363.60
  229.16        2964.50           1416       18013.00     78680.71
  229.19        2964.75           1419       19775.00     86399.78
  229.22        2965.00           1422       21502.00     93968.98
  229.25        2965.25           1426       23536.00    102888.20
  229.28        2965.50           1429       25179.00    110096.30
  229.31        2965.75           1432       26709.00    116811.40
  229.34        2966.00           1436       28913.00    126489.60
  229.38        2966.25           1439       30336.00    132741.20
  229.41        2966.50           1442       31800.00    139175.40
  229.44        2966.75           1446       33505.00    146671.90
  229.47        2967.00           1449       33642.00    147274.40
  229.50        2967.25           1452       34007.00    148879.70
  229.53        2967.50           1456       33844.00    148162.80
  229.56        2967.75           1459       33785.00    147903.30
  229.59        2968.00           1462       33712.00    147582.30
  229.62        2968.25           1466       32871.00    143883.90
  229.66        2968.50           1469       31619.00    138379.70
  229.69        2968.75           1472       30117.00    131778.90
  229.72        2969.00           1476       28142.00    123103.30
  229.75        2969.25           1479       26561.00    116161.70
  229.78        2969.50           1482       24936.00    109030.00
  229.81        2969.75           1486       22775.00     99550.58
  229.84        2970.00           1489       21232.00     92785.38
  229.87        2970.25           1492       19798.00     86500.56
  229.90        2970.50           1496       17715.00     77375.58
  229.93        2970.75           1499       16096.00     70286.68
  229.96        2971.00           1502       14632.00     63879.06
  229.99        2971.25           1506       12725.00     55536.22
  230.03        2971.50           1509       11119.00     48513.46
  230.06        2971.75           1513        9015.00     39317.49
  230.09        2972.00           1516        7635.00     33288.68
  230.12        2972.25           1519        6068.00     26445.56
  230.15        2972.50           1523        3992.00     17383.96
  230.18        2972.75           1526        2460.00     10700.03
  230.21        2973.00           1529        1113.00      4825.46
  230.24        2973.25           1533         474.00      2039.36
  230.27        2973.50           1536         350.00      1498.76
  230.30        2973.75           1539         287.00      1224.11
  230.33        2974.00           1543         237.00      1006.13
  230.37        2974.25           1546         206.00       870.99
  230.40        2974.50           1549         155.00       648.66
  230.43        2974.75           1553         105.00       430.69
  230.46        2975.00           1556          87.00       352.23
  230.49        2975.25           1559          68.00       269.40
  230.52        2975.50           1563          62.00       243.25
  230.55        2975.75           1566          67.00       265.04
  230.58        2976.00           1569          65.00       256.32
  230.61        2976.25           1573          67.00       265.04
  230.64        2976.50           1576          63.00       247.60
  230.67        2976.75           1579          67.00       265.04
  230.70        2977.00           1583          78.00       312.99
  230.73        2977.25           1586          67.00       265.04
  230.76        2977.50           1590          70.00       278.12
  230.80        2977.75           1593          58.00       225.81
  230.83        2978.00           1596          68.00       269.40
  230.86        2978.25           1600          57.00       221.45
  230.89        2978.50           1603          73.00       291.20
  230.92        2978.75           1606          62.00       243.25
  230.95        2979.00           1610          65.00       256.32
  230.98        2979.25           1613          58.00       225.81
  231.01        2979.50           1616          62.00       243.25
  231.04        2979.75           1620          65.00       256.32
  231.07        2980.00           1623          59.00       230.17
  231.10        2980.25           1626          61.00       238.89
  231.13        2980.50           1630          66.00       260.68
  231.16        2980.75           1633          66.00       260.68
  231.19        2981.00           1637          69.00       273.76
  231.22        2981.25           1640          61.00       238.89
  231.25        2981.50           1643          58.00       225.81
  231.28        2981.75           1647          69.00       273.76
  231.31        2982.00           1650          73.00       291.20
  231.34        2982.25           1653          64.00       251.96
  231.37        2982.50           1657          67.00       265.04
  231.41        2982.75           1660          63.00       247.60
  231.44        2983.00           1663          60.00       234.53
  231.47        2983.25           1667          64.00       251.96
  231.50        2983.50           1670          62.00       243.25
  231.53        2983.75           1673          64.00       251.96
  231.56        2984.00           1677          59.00       230.17
HS scan finished at 03:51:47
end
************************************************************
  HS Scan of (1) Internal mercury lamp
************************************************************
Integration time is 0.2294 seconds per sample
dh151017Manchester 53.47 2.23 2.911481pr1000
************************************************************
Dead Time -------------------------  3E-08 
Number of Cycles Used -------------  4 
Starting Wavelength (Angstroms) ---  2950 
Final Wavelength (Angstoms) -------  2984 
Wavelength Increment (Angstroms) --  .25 
Filter Wheel #1 Position ---------- (1) Ground quartz diffuser (ND=2.32)
Filter Wheel #2 Position ---------- (1) Neutral Density 0.494



************************************************************
HS scan start time = 18:13:14
Dark Count =  6.2 


Time (GMT)  Wavelength (Ang)  Step Number  Raw Counts  Counts/Second

 1093.60        2950.00           1222          67.00       265.04
 1093.67        2950.25           1226          75.00       299.92
 1093.70        2950.50           1229          66.00       260.68
 1093.73        2950.75           1232          66.00       260.68
 1093.76        2951.00           1236          64.00       251.96
 1093.79        2951.25           1239          63.00       247.60
 1093.82        2951.50           1242          74.00       295.56
 1093.85        2951.75           1246          71.00       282.48
 1093.89        2952.00           1249          77.00       308.63
 1093.92        2952.25           1252          66.00       260.68
 1093.95        2952.50           1256          69.00       273.76
 1093.98        2952.75           1259          75.00       299.92
 1094.01        2953.00           1262          68.00       269.40
 1094.04        2953.25           1266          71.00       282.48
 1094.07        2953.50           1269          75.00       299.92
 1094.10        2953.75           1272          71.00       282.48
 1094.13        2954.00           1276          73.00       291.20
 1094.16        2954.25           1279          69.00       273.76
 1094.19        2954.50           1282          73.00       291.20
 1094.22        2954.75           1286          73.00       291.20
 1094.25        2955.00           1289          69.00       273.76
 1094.29        2955.25           1292          73.00       291.20
 1094.32        2955.50           1296          73.00       291.20
 1094.35        2955.75           1299          71.00       282.48
 1094.38        2956.00           1302          65.00       256.32
 1094.41        2956.25           1306          74.00       295.56
 1094.44        2956.50           1309          71.00       282.48
 1094.47        2956.75           1312          77.00       308.63
 1094.50        2957.00           1316          65.00       256.32
 1094.53        2957.25           1319          68.00       269.40
 1094.56        2957.50           1322          68.00       269.40
 1094.59        2957.75           1326          63.00       247.60
 1094.62        2958.00           1329          75.00       299.92
 1094.65        2958.25           1332          72.00       286.84
 1094.68        2958.50           1336          70.00       278.12
 1094.71        2958.75           1339          65.00       256.32
 1094.74        2959.00           1342          78.00       312.99
 1094.78        2959.25           1346          70.00       278.12
 1094.81        2959.50           1349          71.00       282.48
 1094.84        2959.75           1352          93.00       378.38
 1094.87        2960.00           1356         123.00       509.16
 1094.90        2960.25           1359         160.00       670.46
 1094.93        2960.50           1362         188.00       792.52
 1094.96        2960.75           1366         231.00       979.98
 1094.99        2961.00           1369         262.00      1115.12
 1095.02        2961.25           1372         323.00      1381.05
 1095.05        2961.50           1376         378.00      1620.83
 1095.08        2961.75           1379         446.00      1917.29
 1095.11        2962.00           1382         721.00      3116.25
 1095.14        2962.25           1386        2066.00      8981.50
 1095.17        2962.50           1389        3515.00     15302.58
 1095.21        2962.75           1392        5053.00     22014.54
 1095.24        2963.00           1396        7328.00     31947.78
 1095.27        2963.25           1399        8917.00     38889.29
 1095.30        2963.50           1402       10333.00     45077.49
 1095.33        2963.75           1406       12649.00     55203.82
 1095.36        2964.00           1409       14191.00     61949.38
 1095.39        2964.25           1412       15944.00     69621.28
 1095.42        2964.50           1416       18184.00     79429.68
 1095.45        2964.75           1419       19850.00     86728.41
 1095.48        2965.00           1422       21264.00     92925.66
 1095.52        2965.25           1426       23219.00    101497.80
 1095.55        2965.50           1429       25206.00    110214.70
 1095.58        2965.75           1432       26771.00    117083.60
 1095.61        2966.00           1436       29214.00    127811.70
 1095.64        2966.25           1439       30644.00    134094.60
 1095.67        2966.50           1442       32106.00    140520.50
 1095.70        2966.75           1446       33694.00    147503.10
 1095.73        2967.00           1449       34862.00    152640.70
 1095.76        2967.25           1452       35329.00    154695.40
 1095.79        2967.50           1456       34944.00    153001.50
 1095.82        2967.75           1459       35237.00    154290.50
 1095.85        2968.00           1462       35061.00    153516.20
 1095.88        2968.25           1466       34842.00    152552.70
 1095.92        2968.50           1469       33613.00    147146.90
 1095.95        2968.75           1472       32252.00    141162.40
 1095.98        2969.00           1476       30062.00    131537.20
 1096.01        2969.25           1479       28505.00    124697.50
 1096.04        2969.50           1482       26845.00    117408.50
 1096.07        2969.75           1486       24561.00    107384.60
 1096.10        2970.00           1489       23130.00    101107.40
 1096.13        2970.25           1492       21516.00     94030.36
 1096.17        2970.50           1496       19338.00     84485.01
 1096.20        2970.75           1499       17883.00     78111.34
 1096.23        2971.00           1502       16235.00     70895.18
 1096.26        2971.25           1506       14235.00     62141.90
 1096.29        2971.50           1509       12575.00     54880.17
 1096.32        2971.75           1513       10489.00     45759.38
 1096.35        2972.00           1516        8696.00     37923.68
 1096.38        2972.25           1519        6994.00     30489.08
 1096.42        2972.50           1523        4949.00     21560.59
 1096.45        2972.75           1526        3456.00     15045.15
 1096.48        2973.00           1529        1931.00      8392.70
 1096.51        2973.25           1533         686.00      2963.65
 1096.54        2973.50           1536         376.00      1612.11
 1096.57        2973.75           1539         317.00      1354.89
 1096.60        2974.00           1543         250.00      1062.81
 1096.63        2974.25           1546         196.00       827.40
 1096.66        2974.50           1549         144.00       600.71
 1096.70        2974.75           1553         107.00       439.41
 1096.73        2975.00           1556          89.00       360.95
 1096.76        2975.25           1559          81.00       326.07
 1096.79        2975.50           1563          65.00       256.32
 1096.82        2975.75           1566          63.00       247.60
 1096.85        2976.00           1569          70.00       278.12
 1096.88        2976.25           1573          61.00       238.89
 1096.91        2976.50           1576          60.00       234.53
 1096.94        2976.75           1579          66.00       260.68
 1096.97        2977.00           1583          65.00       256.32
 1097.00        2977.25           1586          66.00       260.68
 1097.03        2977.50           1590          63.00       247.60
 1097.06        2977.75           1593          63.00       247.60
 1097.10        2978.00           1596          64.00       251.96
 1097.13        2978.25           1600          60.00       234.53
 1097.16        2978.50           1603          63.00       247.60
 1097.19        2978.75           1606          65.00       256.32
 1097.22        2979.00           1610          62.00       243.25
 1097.25        2979.25           1613          66.00       260.68
 1097.28        2979.50           1616          64.00       251.96
 1097.31        2979.75           1620          66.00       260.68
 1097.34        2980.00           1623          63.00       247.60
 1097.37        2980.25           1626          62.00       243.25
 1097.40        2980.50           1630          61.00       238.89
 1097.44        2980.75           1633          65.00       256.32
 1097.47        2981.00           1637          67.00       265.04
 1097.50        2981.25           1640          62.00       243.25
 1097.53        2981.50           1643          68.00       269.40
 1097.56        2981.75           1647          65.00       256.32
 1097.59        2982.00           1650          56.00       217.09
 1097.62        2982.25           1653          71.00       282.48
 1097.65        2982.50           1657          71.00       282.48
 1097.68        2982.75           1660          61.00       238.89
 1097.71        2983.00           1663          60.00       234.53
 1097.75        2983.25           1667          67.00       265.04
 1097.78        2983.50           1670          58.00       225.81
 1097.81        2983.75           1673          60.00       234.53
 1097.84        2984.00           1677          54.00       208.37
HS scan finished at 18:18:03
end
