************************************************************
  HS Scan of (1) Internal mercury lamp
************************************************************
Integration time is 0.2294 seconds per sample
dh161018Manchester 53.47 2.23 2.804185pr1000
************************************************************
Dead Time -------------------------  3E-08 
Number of Cycles Used -------------  4 
Starting Wavelength (Angstroms) ---  2950 
Final Wavelength (Angstoms) -------  2984 
Wavelength Increment (Angstroms) --  .25 
Filter Wheel #1 Position ---------- (1) Ground quartz diffuser (ND=2.32)
Filter Wheel #2 Position ---------- (1) Neutral Density 0.494



************************************************************
HS scan start time = 03:48:38
Dark Count =  5.6 


Time (GMT)  Wavelength (Ang)  Step Number  Raw Counts  Counts/Second

  229.01        2950.00           1222          53.00       206.63
  229.07        2950.25           1226          50.00       193.55
  229.11        2950.50           1229          54.00       210.99
  229.14        2950.75           1232          57.00       224.06
  229.17        2951.00           1236          49.00       189.19
  229.20        2951.25           1239          56.00       219.71
  229.23        2951.50           1242          46.00       176.11
  229.26        2951.75           1246          55.00       215.35
  229.29        2952.00           1249          44.00       167.39
  229.32        2952.25           1252          52.00       202.27
  229.35        2952.50           1256          54.00       210.99
  229.38        2952.75           1259          50.00       193.55
  229.41        2953.00           1262          47.00       180.47
  229.44        2953.25           1266          50.00       193.55
  229.48        2953.50           1269          51.00       197.91
  229.51        2953.75           1272          54.00       210.99
  229.54        2954.00           1276          54.00       210.99
  229.57        2954.25           1279          46.00       176.11
  229.60        2954.50           1282          43.00       163.03
  229.63        2954.75           1286          48.00       184.83
  229.66        2955.00           1289          47.00       180.47
  229.69        2955.25           1292          53.00       206.63
  229.72        2955.50           1296          50.00       193.55
  229.75        2955.75           1299          44.00       167.39
  229.78        2956.00           1302          52.00       202.27
  229.81        2956.25           1306          47.00       180.47
  229.85        2956.50           1309          54.00       210.99
  229.88        2956.75           1312          52.00       202.27
  229.91        2957.00           1316          52.00       202.27
  229.94        2957.25           1319          50.00       193.55
  229.97        2957.50           1322          51.00       197.91
  230.00        2957.75           1326          51.00       197.91
  230.03        2958.00           1329          52.00       202.27
  230.06        2958.25           1332          49.00       189.19
  230.09        2958.50           1336          63.00       250.22
  230.12        2958.75           1339          54.00       210.99
  230.15        2959.00           1342          45.00       171.75
  230.18        2959.25           1346          46.00       176.11
  230.21        2959.50           1349          57.00       224.06
  230.24        2959.75           1352          64.00       254.58
  230.28        2960.00           1356          78.00       315.61
  230.31        2960.25           1359         103.00       424.59
  230.34        2960.50           1362         124.00       516.14
  230.37        2960.75           1366         156.00       655.64
  230.40        2961.00           1369         209.00       886.68
  230.43        2961.25           1372         216.00       917.20
  230.46        2961.50           1376         283.00      1209.29
  230.49        2961.75           1379         354.00      1518.81
  230.52        2962.00           1382         758.00      3280.18
  230.55        2962.25           1386        2047.00      8901.24
  230.58        2962.50           1389        3176.00     13826.14
  230.62        2962.75           1392        4347.00     18935.78
  230.65        2963.00           1396        5906.00     25740.88
  230.68        2963.25           1399        7032.00     30657.65
  230.71        2963.50           1402        8188.00     35706.93
  230.74        2963.75           1406        9747.00     42518.89
  230.77        2964.00           1409       10883.00     47484.34
  230.80        2964.25           1412       12129.00     52932.29
  230.83        2964.50           1416       13663.00     59641.94
  230.86        2964.75           1419       14870.00     64923.19
  230.89        2965.00           1422       16174.00     70630.77
  230.93        2965.25           1426       17627.00     76992.80
  230.96        2965.50           1429       18732.00     81832.74
  230.99        2965.75           1432       20039.00     87559.26
  231.02        2966.00           1436       21465.00     93809.41
  231.05        2966.25           1439       22647.00     98991.90
  231.08        2966.50           1442       23729.00    103737.30
  231.11        2966.75           1446       24883.00    108800.10
  231.14        2967.00           1449       25395.00    111046.70
  231.18        2967.25           1452       25329.00    110757.10
  231.21        2967.50           1456       25519.00    111590.90
  231.24        2967.75           1459       25531.00    111643.60
  231.27        2968.00           1462       25352.00    110858.10
  231.30        2968.25           1466       24800.00    108435.90
  231.33        2968.50           1469       23984.00    104855.90
  231.36        2968.75           1472       22785.00     99597.06
  231.39        2969.00           1476       21257.00     92897.60
  231.42        2969.25           1479       20120.00     87914.22
  231.45        2969.50           1482       19110.00     83488.72
  231.49        2969.75           1486       17504.00     76454.15
  231.52        2970.00           1489       16307.00     71213.00
  231.55        2970.25           1492       15130.00     66061.05
  231.58        2970.50           1496       13534.00     59077.60
  231.61        2970.75           1499       12326.00     53793.82
  231.64        2971.00           1502       11154.00     48669.10
  231.67        2971.25           1506        9648.00     42086.24
  231.70        2971.50           1509        8404.00     36650.56
  231.73        2971.75           1513        6824.00     29749.30
  231.76        2972.00           1516        5680.00     24754.21
  231.80        2972.25           1519        4538.00     19769.35
  231.83        2972.50           1523        3107.00     13525.10
  231.86        2972.75           1526        1942.00      8443.29
  231.89        2973.00           1529         976.00      4230.70
  231.92        2973.25           1533         400.00      1719.36
  231.95        2973.50           1536         272.00      1161.33
  231.98        2973.75           1539         231.00       982.59
  232.01        2974.00           1543         204.00       864.89
  232.04        2974.25           1546         150.00       629.48
  232.08        2974.50           1549         118.00       489.98
  232.11        2974.75           1553          94.00       385.36
  232.14        2975.00           1556          76.00       306.89
  232.17        2975.25           1559          54.00       210.99
  232.20        2975.50           1563          53.00       206.63
  232.23        2975.75           1566          46.00       176.11
  232.26        2976.00           1569          42.00       158.68
  232.29        2976.25           1573          62.00       245.86
  232.32        2976.50           1576          48.00       184.83
  232.35        2976.75           1579          47.00       180.47
  232.38        2977.00           1583          48.00       184.83
  232.41        2977.25           1586          52.00       202.27
  232.45        2977.50           1590          42.00       158.68
  232.48        2977.75           1593          43.00       163.03
  232.51        2978.00           1596          47.00       180.47
  232.54        2978.25           1600          45.00       171.75
  232.57        2978.50           1603          44.00       167.39
  232.60        2978.75           1606          52.00       202.27
  232.63        2979.00           1610          52.00       202.27
  232.66        2979.25           1613          42.00       158.68
  232.69        2979.50           1616          49.00       189.19
  232.73        2979.75           1620          46.00       176.11
  232.76        2980.00           1623          43.00       163.03
  232.79        2980.25           1626          41.00       154.32
  232.82        2980.50           1630          44.00       167.39
  232.85        2980.75           1633          45.00       171.75
  232.88        2981.00           1637          45.00       171.75
  232.91        2981.25           1640          46.00       176.11
  232.94        2981.50           1643          40.00       149.96
  232.97        2981.75           1647          44.00       167.39
  233.00        2982.00           1650          45.00       171.75
  233.03        2982.25           1653          42.00       158.68
  233.06        2982.50           1657          43.00       163.03
  233.09        2982.75           1660          42.00       158.68
  233.12        2983.00           1663          43.00       163.03
  233.16        2983.25           1667          45.00       171.75
  233.19        2983.50           1670          46.00       176.11
  233.22        2983.75           1673          40.00       149.96
  233.25        2984.00           1677          36.00       132.52
HS scan finished at 03:53:28
end
************************************************************
  HS Scan of (1) Internal mercury lamp
************************************************************
Integration time is 0.2294 seconds per sample
dh161018Manchester 53.47 2.23 2.804185pr1000
************************************************************
Dead Time -------------------------  3E-08 
Number of Cycles Used -------------  4 
Starting Wavelength (Angstroms) ---  2950 
Final Wavelength (Angstoms) -------  2984 
Wavelength Increment (Angstroms) --  .25 
Filter Wheel #1 Position ---------- (1) Ground quartz diffuser (ND=2.32)
Filter Wheel #2 Position ---------- (1) Neutral Density 0.494



************************************************************
HS scan start time = 18:12:02
Dark Count =  4 


Time (GMT)  Wavelength (Ang)  Step Number  Raw Counts  Counts/Second

 1092.40        2950.00           1222          46.00       183.09
 1092.47        2950.25           1226          55.00       222.32
 1092.50        2950.50           1229          49.00       196.17
 1092.53        2950.75           1232          49.00       196.17
 1092.56        2951.00           1236          51.00       204.88
 1092.59        2951.25           1239          51.00       204.88
 1092.62        2951.50           1242          56.00       226.68
 1092.65        2951.75           1246          44.00       174.37
 1092.68        2952.00           1249          46.00       183.09
 1092.71        2952.25           1252          50.00       200.52
 1092.74        2952.50           1256          53.00       213.60
 1092.77        2952.75           1259          54.00       217.96
 1092.81        2953.00           1262          49.00       196.17
 1092.84        2953.25           1266          49.00       196.17
 1092.87        2953.50           1269          52.00       209.24
 1092.90        2953.75           1272          54.00       217.96
 1092.93        2954.00           1276          54.00       217.96
 1092.96        2954.25           1279          47.00       187.45
 1092.99        2954.50           1282          51.00       204.88
 1093.02        2954.75           1286          52.00       209.24
 1093.05        2955.00           1289          46.00       183.09
 1093.08        2955.25           1292          54.00       217.96
 1093.12        2955.50           1296          41.00       161.29
 1093.15        2955.75           1299          53.00       213.60
 1093.18        2956.00           1302          52.00       209.24
 1093.21        2956.25           1306          49.00       196.17
 1093.24        2956.50           1309          52.00       209.24
 1093.27        2956.75           1312          51.00       204.88
 1093.30        2957.00           1316          46.00       183.09
 1093.33        2957.25           1319          46.00       183.09
 1093.36        2957.50           1322          51.00       204.88
 1093.39        2957.75           1326          50.00       200.52
 1093.42        2958.00           1329          53.00       213.60
 1093.45        2958.25           1332          47.00       187.45
 1093.48        2958.50           1336          47.00       187.45
 1093.52        2958.75           1339          49.00       196.17
 1093.55        2959.00           1342          55.00       222.32
 1093.58        2959.25           1346          59.00       239.76
 1093.61        2959.50           1349          57.00       231.04
 1093.64        2959.75           1352          54.00       217.96
 1093.67        2960.00           1356          93.00       387.97
 1093.70        2960.25           1359         113.00       475.16
 1093.73        2960.50           1362         134.00       566.71
 1093.76        2960.75           1366         182.00       775.96
 1093.79        2961.00           1369         221.00       945.97
 1093.82        2961.25           1372         241.00      1033.16
 1093.85        2961.50           1376         317.00      1364.48
 1093.88        2961.75           1379         472.00      2040.23
 1093.92        2962.00           1382         988.00      4290.00
 1093.95        2962.25           1386        2270.00      9880.87
 1093.98        2962.50           1389        3381.00     14727.52
 1094.01        2962.75           1392        4531.00     19745.78
 1094.04        2963.00           1396        6049.00     26372.21
 1094.07        2963.25           1399        7303.00     31848.20
 1094.10        2963.50           1402        8576.00     37409.01
 1094.13        2963.75           1406       10155.00     44309.08
 1094.16        2964.00           1409       11274.00     49200.73
 1094.19        2964.25           1412       12605.00     55021.00
 1094.23        2964.50           1416       14177.00     61897.75
 1094.26        2964.75           1419       15364.00     67092.19
 1094.29        2965.00           1422       16479.00     71973.03
 1094.32        2965.25           1426       17939.00     78366.25
 1094.35        2965.50           1429       19373.00     84647.99
 1094.38        2965.75           1432       20450.00     89367.44
 1094.41        2966.00           1436       22170.00     96907.31
 1094.44        2966.25           1439       23142.00    101169.70
 1094.47        2966.50           1442       24147.00    105578.00
 1094.50        2966.75           1446       25344.00    110830.00
 1094.53        2967.00           1449       25302.00    110645.70
 1094.56        2967.25           1452       25330.00    110768.50
 1094.60        2967.50           1456       25433.00    111220.50
 1094.63        2967.75           1459       25204.00    110215.60
 1094.66        2968.00           1462       25133.00    109904.10
 1094.69        2968.25           1466       24242.00    105994.80
 1094.72        2968.50           1469       23151.00    101209.20
 1094.75        2968.75           1472       21924.00     95828.72
 1094.78        2969.00           1476       20514.00     89647.93
 1094.81        2969.25           1479       19231.00     84025.84
 1094.84        2969.50           1482       18089.00     79023.21
 1094.88        2969.75           1486       16569.00     72367.06
 1094.91        2970.00           1489       15475.00     67578.03
 1094.94        2970.25           1492       14413.00     62930.38
 1094.97        2970.50           1496       12966.00     56599.96
 1095.00        2970.75           1499       11582.00     50547.39
 1095.03        2971.00           1502       10462.00     45650.97
 1095.06        2971.25           1506        8946.00     39025.61
 1095.09        2971.50           1509        7784.00     33949.12
 1095.12        2971.75           1513        6236.00     27188.69
 1095.15        2972.00           1516        5056.00     22037.23
 1095.18        2972.25           1519        3964.00     17271.37
 1095.21        2972.50           1523        2378.00     10351.95
 1095.25        2972.75           1526        1333.00      5794.38
 1095.28        2973.00           1529         566.00      2450.05
 1095.31        2973.25           1533         313.00      1347.05
 1095.34        2973.50           1536         240.00      1028.80
 1095.37        2973.75           1539         214.00       915.46
 1095.40        2974.00           1543         167.00       710.56
 1095.43        2974.25           1546         139.00       588.50
 1095.46        2974.50           1549         102.00       427.21
 1095.49        2974.75           1553          76.00       313.87
 1095.53        2975.00           1556          62.00       252.84
 1095.56        2975.25           1559          46.00       183.09
 1095.59        2975.50           1563          53.00       213.60
 1095.62        2975.75           1566          47.00       187.45
 1095.65        2976.00           1569          44.00       174.37
 1095.68        2976.25           1573          47.00       187.45
 1095.71        2976.50           1576          53.00       213.60
 1095.74        2976.75           1579          53.00       213.60
 1095.77        2977.00           1583          46.00       183.09
 1095.80        2977.25           1586          51.00       204.88
 1095.83        2977.50           1590          41.00       161.29
 1095.86        2977.75           1593          43.00       170.01
 1095.89        2978.00           1596          44.00       174.37
 1095.93        2978.25           1600          46.00       183.09
 1095.96        2978.50           1603          48.00       191.81
 1095.99        2978.75           1606          41.00       161.29
 1096.02        2979.00           1610          43.00       170.01
 1096.05        2979.25           1613          45.00       178.73
 1096.08        2979.50           1616          50.00       200.52
 1096.11        2979.75           1620          50.00       200.52
 1096.14        2980.00           1623          48.00       191.81
 1096.17        2980.25           1626          51.00       204.88
 1096.20        2980.50           1630          51.00       204.88
 1096.24        2980.75           1633          44.00       174.37
 1096.27        2981.00           1637          46.00       183.09
 1096.30        2981.25           1640          48.00       191.81
 1096.33        2981.50           1643          46.00       183.09
 1096.36        2981.75           1647          43.00       170.01
 1096.39        2982.00           1650          53.00       213.60
 1096.42        2982.25           1653          36.00       139.49
 1096.45        2982.50           1657          50.00       200.52
 1096.48        2982.75           1660          42.00       165.65
 1096.51        2983.00           1663          48.00       191.81
 1096.54        2983.25           1667          43.00       170.01
 1096.57        2983.50           1670          40.00       156.93
 1096.60        2983.75           1673          37.00       143.85
 1096.64        2984.00           1677          49.00       196.17
HS scan finished at 18:16:51
end
