************************************************************
  HS Scan of (1) Internal mercury lamp
************************************************************
Integration time is 0.2294 seconds per sample
dh091017Manchester 53.47 2.23 2.804185pr1000
************************************************************
Dead Time -------------------------  3E-08 
Number of Cycles Used -------------  4 
Starting Wavelength (Angstroms) ---  2950 
Final Wavelength (Angstoms) -------  2984 
Wavelength Increment (Angstroms) --  .25 
Filter Wheel #1 Position ---------- (1) Ground quartz diffuser (ND=2.32)
Filter Wheel #2 Position ---------- (1) Neutral Density 0.494



************************************************************
HS scan start time = 03:33:06
Dark Count =  6.1 


Time (GMT)  Wavelength (Ang)  Step Number  Raw Counts  Counts/Second

  213.47        2950.00           1222          69.00       274.20
  213.54        2950.25           1226          75.00       300.35
  213.57        2950.50           1229          71.00       282.91
  213.60        2950.75           1232          71.00       282.91
  213.63        2951.00           1236          69.00       274.20
  213.66        2951.25           1239          67.00       265.48
  213.69        2951.50           1242          67.00       265.48
  213.72        2951.75           1246          83.00       335.23
  213.75        2952.00           1249          72.00       287.27
  213.79        2952.25           1252          69.00       274.20
  213.82        2952.50           1256          67.00       265.48
  213.85        2952.75           1259          67.00       265.48
  213.88        2953.00           1262          65.00       256.76
  213.91        2953.25           1266          77.00       309.07
  213.94        2953.50           1269          71.00       282.91
  213.97        2953.75           1272          78.00       313.43
  214.00        2954.00           1276          72.00       287.27
  214.03        2954.25           1279          74.00       295.99
  214.06        2954.50           1282          68.00       269.84
  214.09        2954.75           1286          65.00       256.76
  214.13        2955.00           1289          67.00       265.48
  214.16        2955.25           1292          72.00       287.27
  214.19        2955.50           1296          67.00       265.48
  214.22        2955.75           1299          67.00       265.48
  214.25        2956.00           1302          72.00       287.27
  214.28        2956.25           1306          70.00       278.56
  214.31        2956.50           1309          76.00       304.71
  214.34        2956.75           1312          73.00       291.63
  214.37        2957.00           1316          73.00       291.63
  214.40        2957.25           1319          69.00       274.20
  214.43        2957.50           1322          61.00       239.32
  214.46        2957.75           1326          71.00       282.91
  214.49        2958.00           1329          67.00       265.48
  214.52        2958.25           1332          71.00       282.91
  214.55        2958.50           1336          62.00       243.68
  214.58        2958.75           1339          65.00       256.76
  214.61        2959.00           1342          69.00       274.20
  214.65        2959.25           1346          82.00       330.87
  214.68        2959.50           1349          79.00       317.79
  214.71        2959.75           1352          89.00       361.38
  214.74        2960.00           1356         108.00       444.21
  214.77        2960.25           1359         149.00       622.94
  214.80        2960.50           1362         180.00       758.08
  214.83        2960.75           1366         228.00       967.33
  214.86        2961.00           1369         290.00      1237.62
  214.89        2961.25           1372         310.00      1324.81
  214.92        2961.50           1376         390.00      1673.58
  214.95        2961.75           1379         508.00      2188.03
  214.99        2962.00           1382        1080.00      4682.00
  215.02        2962.25           1386        2767.00     12039.66
  215.05        2962.50           1389        4184.00     18222.25
  215.08        2962.75           1392        5590.00     24359.12
  215.11        2963.00           1396        7641.00     33315.32
  215.14        2963.25           1399        9154.00     39925.30
  215.17        2963.50           1402       10770.00     46988.16
  215.20        2963.75           1406       12920.00     56389.57
  215.23        2964.00           1409       14507.00     63332.51
  215.26        2964.25           1412       16089.00     70256.47
  215.30        2964.50           1416       18156.00     79307.47
  215.33        2964.75           1419       19772.00     86387.06
  215.36        2965.00           1422       21312.00     93136.51
  215.39        2965.25           1426       23343.00    102042.10
  215.42        2965.50           1429       24874.00    108758.40
  215.45        2965.75           1432       26500.00    115894.40
  215.48        2966.00           1436       28588.00    125062.50
  215.51        2966.25           1439       30147.00    131911.10
  215.54        2966.50           1442       31560.00    138120.80
  215.58        2966.75           1446       33008.00    144486.80
  215.61        2967.00           1449       33780.00    147881.70
  215.64        2967.25           1452       33823.00    148070.90
  215.67        2967.50           1456       33817.00    148044.50
  215.70        2967.75           1459       33789.00    147921.30
  215.73        2968.00           1462       33675.00    147419.90
  215.76        2968.25           1466       32782.00    143493.00
  215.79        2968.50           1469       31599.00    138292.30
  215.82        2968.75           1472       30113.00    131761.80
  215.86        2969.00           1476       28002.00    122489.00
  215.89        2969.25           1479       26567.00    116188.50
  215.92        2969.50           1482       24849.00    108648.70
  215.95        2969.75           1486       22979.00    100445.60
  215.98        2970.00           1489       21459.00     93780.91
  216.01        2970.25           1492       19697.00     86058.42
  216.04        2970.50           1496       17774.00     77634.40
  216.07        2970.75           1499       16052.00     70094.50
  216.10        2971.00           1502       14572.00     63616.94
  216.13        2971.25           1506       12516.00     54622.57
  216.17        2971.50           1509       11200.00     48868.02
  216.20        2971.75           1513        9279.00     40471.52
  216.23        2972.00           1516        7667.00     33428.89
  216.26        2972.25           1519        6204.00     27039.80
  216.29        2972.50           1523        4334.00     18876.86
  216.32        2972.75           1526        2709.00     11786.64
  216.35        2973.00           1529        1325.00      5750.34
  216.38        2973.25           1533         498.00      2144.43
  216.41        2973.50           1536         329.00      1407.64
  216.45        2973.75           1539         298.00      1272.50
  216.48        2974.00           1543         234.00       993.49
  216.51        2974.25           1546         184.00       775.52
  216.54        2974.50           1549         141.00       588.07
  216.57        2974.75           1553         109.00       448.57
  216.60        2975.00           1556          75.00       300.35
  216.63        2975.25           1559          73.00       291.63
  216.66        2975.50           1563          66.00       261.12
  216.69        2975.75           1566          69.00       274.20
  216.72        2976.00           1569          71.00       282.91
  216.75        2976.25           1573          63.00       248.04
  216.78        2976.50           1576          71.00       282.91
  216.82        2976.75           1579          71.00       282.91
  216.85        2977.00           1583          66.00       261.12
  216.88        2977.25           1586          62.00       243.68
  216.91        2977.50           1590          71.00       282.91
  216.94        2977.75           1593          61.00       239.32
  216.97        2978.00           1596          63.00       248.04
  217.00        2978.25           1600          71.00       282.91
  217.03        2978.50           1603          55.00       213.17
  217.06        2978.75           1606          68.00       269.84
  217.09        2979.00           1610          58.00       226.24
  217.12        2979.25           1613          73.00       291.63
  217.15        2979.50           1616          64.00       252.40
  217.18        2979.75           1620          68.00       269.84
  217.22        2980.00           1623          71.00       282.91
  217.25        2980.25           1626          72.00       287.27
  217.28        2980.50           1630          69.00       274.20
  217.31        2980.75           1633          67.00       265.48
  217.34        2981.00           1637          68.00       269.84
  217.37        2981.25           1640          74.00       295.99
  217.40        2981.50           1643          70.00       278.56
  217.43        2981.75           1647          60.00       234.96
  217.46        2982.00           1650          61.00       239.32
  217.49        2982.25           1653          64.00       252.40
  217.52        2982.50           1657          66.00       261.12
  217.55        2982.75           1660          65.00       256.76
  217.58        2983.00           1663          61.00       239.32
  217.61        2983.25           1667          62.00       243.68
  217.64        2983.50           1670          64.00       252.40
  217.68        2983.75           1673          62.00       243.68
  217.71        2984.00           1677          61.00       239.32
HS scan finished at 03:37:55
end
************************************************************
  HS Scan of (1) Internal mercury lamp
************************************************************
Integration time is 0.2294 seconds per sample
dh091017Manchester 53.47 2.23 2.857833pr1000
************************************************************
Dead Time -------------------------  3E-08 
Number of Cycles Used -------------  4 
Starting Wavelength (Angstroms) ---  2950 
Final Wavelength (Angstoms) -------  2984 
Wavelength Increment (Angstroms) --  .25 
Filter Wheel #1 Position ---------- (1) Ground quartz diffuser (ND=2.32)
Filter Wheel #2 Position ---------- (1) Neutral Density 0.494



************************************************************
HS scan start time = 18:12:05
Dark Count =  6.5 


Time (GMT)  Wavelength (Ang)  Step Number  Raw Counts  Counts/Second

 1092.45        2950.00           1222          77.00       307.33
 1092.51        2950.25           1226          73.00       289.89
 1092.54        2950.50           1229          67.00       263.73
 1092.58        2950.75           1232          79.00       316.04
 1092.61        2951.00           1236          74.00       294.25
 1092.64        2951.25           1239          59.00       228.86
 1092.67        2951.50           1242          71.00       281.17
 1092.70        2951.75           1246          68.00       268.09
 1092.73        2952.00           1249          79.00       316.04
 1092.76        2952.25           1252          66.00       259.37
 1092.79        2952.50           1256          75.00       298.61
 1092.82        2952.75           1259          74.00       294.25
 1092.85        2953.00           1262          66.00       259.37
 1092.88        2953.25           1266          69.00       272.45
 1092.92        2953.50           1269          72.00       285.53
 1092.95        2953.75           1272          65.00       255.02
 1092.98        2954.00           1276          64.00       250.66
 1093.01        2954.25           1279          72.00       285.53
 1093.04        2954.50           1282          73.00       289.89
 1093.07        2954.75           1286          67.00       263.73
 1093.10        2955.00           1289          64.00       250.66
 1093.13        2955.25           1292          67.00       263.73
 1093.16        2955.50           1296          77.00       307.33
 1093.19        2955.75           1299          68.00       268.09
 1093.22        2956.00           1302          78.00       311.69
 1093.25        2956.25           1306          77.00       307.33
 1093.28        2956.50           1309          72.00       285.53
 1093.32        2956.75           1312          69.00       272.45
 1093.35        2957.00           1316          73.00       289.89
 1093.38        2957.25           1319          70.00       276.81
 1093.41        2957.50           1322          77.00       307.33
 1093.44        2957.75           1326          71.00       281.17
 1093.47        2958.00           1329          69.00       272.45
 1093.50        2958.25           1332          73.00       289.89
 1093.53        2958.50           1336          68.00       268.09
 1093.56        2958.75           1339          76.00       302.97
 1093.59        2959.00           1342          66.00       259.37
 1093.62        2959.25           1346          63.00       246.30
 1093.65        2959.50           1349          79.00       316.04
 1093.69        2959.75           1352          96.00       390.15
 1093.72        2960.00           1356         123.00       507.85
 1093.75        2960.25           1359         153.00       638.63
 1093.78        2960.50           1362         199.00       839.17
 1093.81        2960.75           1366         257.00      1092.01
 1093.84        2961.00           1369         311.00      1327.43
 1093.87        2961.25           1372         332.00      1418.98
 1093.90        2961.50           1376         416.00      1785.19
 1093.93        2961.75           1379         566.00      2439.15
 1093.96        2962.00           1382        1210.00      5247.12
 1093.99        2962.25           1386        2954.00     12853.69
 1094.02        2962.50           1389        4524.00     19704.32
 1094.05        2962.75           1392        6058.00     26400.59
 1094.09        2963.00           1396        7963.00     34720.11
 1094.12        2963.25           1399        9459.00     41256.35
 1094.15        2963.50           1402       11087.00     48372.24
 1094.18        2963.75           1406       13246.00     57813.79
 1094.21        2964.00           1409       14801.00     64617.30
 1094.24        2964.25           1412       16422.00     71712.53
 1094.27        2964.50           1416       18692.00     81653.57
 1094.30        2964.75           1419       20141.00     88002.30
 1094.34        2965.00           1422       21637.00     94559.49
 1094.37        2965.25           1426       23622.00    103264.10
 1094.40        2965.50           1429       25411.00    111113.00
 1094.43        2965.75           1432       27087.00    118469.60
 1094.46        2966.00           1436       29162.00    127582.00
 1094.49        2966.25           1439       30515.00    133526.40
 1094.52        2966.50           1442       32056.00    140299.40
 1094.55        2966.75           1446       33642.00    147273.10
 1094.58        2967.00           1449       33957.00    148658.50
 1094.61        2967.25           1452       34167.00    149582.10
 1094.64        2967.50           1456       34226.00    149841.60
 1094.68        2967.75           1459       34117.00    149362.20
 1094.71        2968.00           1462       34080.00    149199.50
 1094.74        2968.25           1466       33168.00    145188.60
 1094.77        2968.50           1469       31698.00    138725.70
 1094.80        2968.75           1472       30236.00    132300.40
 1094.83        2969.00           1476       28291.00    123756.40
 1094.86        2969.25           1479       26682.00    116691.60
 1094.89        2969.50           1482       24999.00    109305.10
 1094.92        2969.75           1486       22844.00     99851.85
 1094.95        2970.00           1489       21473.00     93840.54
 1094.98        2970.25           1492       20061.00     87651.72
 1095.02        2970.50           1496       17845.00     77943.60
 1095.05        2970.75           1499       16367.00     71471.75
 1095.08        2971.00           1502       14762.00     64446.63
 1095.11        2971.25           1506       12494.00     54524.60
 1095.14        2971.50           1509       10875.00     47445.43
 1095.17        2971.75           1513        8862.00     38647.67
 1095.20        2972.00           1516        7218.00     31466.05
 1095.23        2972.25           1519        5674.00     24724.09
 1095.26        2972.50           1523        3637.00     15833.59
 1095.30        2972.75           1526        2301.00     10005.18
 1095.33        2973.00           1529        1041.00      4510.20
 1095.36        2973.25           1533         448.00      1924.70
 1095.39        2973.50           1536         333.00      1423.34
 1095.42        2973.75           1539         294.00      1253.32
 1095.45        2974.00           1543         260.00      1105.09
 1095.48        2974.25           1546         198.00       834.81
 1095.51        2974.50           1549         155.00       647.35
 1095.54        2974.75           1553         109.00       446.82
 1095.57        2975.00           1556          84.00       337.84
 1095.60        2975.25           1559          74.00       294.25
 1095.63        2975.50           1563          71.00       281.17
 1095.67        2975.75           1566          67.00       263.73
 1095.70        2976.00           1569          65.00       255.02
 1095.73        2976.25           1573          64.00       250.66
 1095.76        2976.50           1576          70.00       276.81
 1095.79        2976.75           1579          59.00       228.86
 1095.82        2977.00           1583          66.00       259.37
 1095.85        2977.25           1586          63.00       246.30
 1095.88        2977.50           1590          68.00       268.09
 1095.91        2977.75           1593          66.00       259.37
 1095.94        2978.00           1596          62.00       241.94
 1095.98        2978.25           1600          64.00       250.66
 1096.01        2978.50           1603          83.00       333.48
 1096.04        2978.75           1606          72.00       285.53
 1096.07        2979.00           1610          66.00       259.37
 1096.10        2979.25           1613          56.00       215.78
 1096.13        2979.50           1616          52.00       198.34
 1096.16        2979.75           1620          66.00       259.37
 1096.19        2980.00           1623          68.00       268.09
 1096.22        2980.25           1626          61.00       237.58
 1096.25        2980.50           1630          57.00       220.14
 1096.28        2980.75           1633          63.00       246.30
 1096.31        2981.00           1637          64.00       250.66
 1096.34        2981.25           1640          52.00       198.34
 1096.37        2981.50           1643          61.00       237.58
 1096.40        2981.75           1647          69.00       272.45
 1096.43        2982.00           1650          63.00       246.30
 1096.46        2982.25           1653          68.00       268.09
 1096.49        2982.50           1657          57.00       220.14
 1096.53        2982.75           1660          65.00       255.02
 1096.56        2983.00           1663          59.00       228.86
 1096.59        2983.25           1667          53.00       202.70
 1096.62        2983.50           1670          65.00       255.02
 1096.65        2983.75           1673          64.00       250.66
 1096.68        2984.00           1677          57.00       220.14
HS scan finished at 18:16:54
end
