************************************************************
  HS Scan of (1) Internal mercury lamp
************************************************************
Integration time is 0.2294 seconds per sample
dh071017Manchester 53.47 2.23 2.804185pr1000
************************************************************
Dead Time -------------------------  3E-08 
Number of Cycles Used -------------  4 
Starting Wavelength (Angstroms) ---  2950 
Final Wavelength (Angstoms) -------  2984 
Wavelength Increment (Angstroms) --  .25 
Filter Wheel #1 Position ---------- (1) Ground quartz diffuser (ND=2.32)
Filter Wheel #2 Position ---------- (1) Neutral Density 0.494



************************************************************
HS scan start time = 03:28:13
Dark Count =  8.399999 


Time (GMT)  Wavelength (Ang)  Step Number  Raw Counts  Counts/Second

  208.58        2950.00           1222          72.00       277.25
  208.65        2950.25           1226          80.00       312.12
  208.68        2950.50           1229          62.00       233.65
  208.71        2950.75           1232          70.00       268.53
  208.74        2951.00           1236          68.00       259.81
  208.77        2951.25           1239          66.00       251.09
  208.80        2951.50           1242          64.00       242.37
  208.83        2951.75           1246          70.00       268.53
  208.86        2952.00           1249          78.00       303.40
  208.89        2952.25           1252          65.00       246.73
  208.92        2952.50           1256          65.00       246.73
  208.95        2952.75           1259          80.00       312.12
  208.99        2953.00           1262          64.00       242.37
  209.02        2953.25           1266          71.00       272.89
  209.05        2953.50           1269          64.00       242.37
  209.08        2953.75           1272          77.00       299.04
  209.11        2954.00           1276          58.00       216.22
  209.14        2954.25           1279          62.00       233.65
  209.17        2954.50           1282          72.00       277.25
  209.20        2954.75           1286          67.00       255.45
  209.23        2955.00           1289          79.00       307.76
  209.26        2955.25           1292          68.00       259.81
  209.29        2955.50           1296          64.00       242.37
  209.32        2955.75           1299          74.00       285.97
  209.35        2956.00           1302          69.00       264.17
  209.39        2956.25           1306          76.00       294.68
  209.42        2956.50           1309          67.00       255.45
  209.45        2956.75           1312          67.00       255.45
  209.48        2957.00           1316          76.00       294.68
  209.51        2957.25           1319          71.00       272.89
  209.54        2957.50           1322          72.00       277.25
  209.57        2957.75           1326          67.00       255.45
  209.60        2958.00           1329          68.00       259.81
  209.63        2958.25           1332          61.00       229.30
  209.66        2958.50           1336          65.00       246.73
  209.69        2958.75           1339          66.00       251.09
  209.73        2959.00           1342          64.00       242.37
  209.76        2959.25           1346          71.00       272.89
  209.79        2959.50           1349          90.00       355.71
  209.82        2959.75           1352         104.00       416.74
  209.85        2960.00           1356         140.00       573.68
  209.88        2960.25           1359         165.00       682.66
  209.91        2960.50           1362         221.00       926.79
  209.94        2960.75           1366         264.00      1114.25
  209.97        2961.00           1369         318.00      1349.66
  210.00        2961.25           1372         335.00      1423.77
  210.03        2961.50           1376         418.00      1785.62
  210.07        2961.75           1379         539.00      2313.15
  210.10        2962.00           1382         992.00      4288.26
  210.13        2962.25           1386        2429.00     10555.22
  210.16        2962.50           1389        4034.00     17557.64
  210.19        2962.75           1392        5488.00     23903.80
  210.22        2963.00           1396        7362.00     32086.67
  210.25        2963.25           1399        9056.00     39487.02
  210.28        2963.50           1402       10561.00     46064.49
  210.31        2963.75           1406       12720.00     55504.73
  210.34        2964.00           1409       14338.00     62582.95
  210.37        2964.25           1412       16038.00     70023.13
  210.41        2964.50           1416       18038.00     78780.56
  210.44        2964.75           1419       19502.00     85193.92
  210.47        2965.00           1422       21135.00     92350.53
  210.50        2965.25           1426       23424.00    102387.20
  210.53        2965.50           1429       24997.00    109288.00
  210.56        2965.75           1432       26411.00    115493.60
  210.59        2966.00           1436       28745.00    125742.00
  210.62        2966.25           1439       30181.00    132050.40
  210.65        2966.50           1442       31465.00    137693.20
  210.69        2966.75           1446       33140.00    145057.10
  210.72        2967.00           1449       33905.00    148421.40
  210.75        2967.25           1452       33978.00    148742.50
  210.78        2967.50           1456       34036.00    148997.60
  210.81        2967.75           1459       34049.00    149054.80
  210.84        2968.00           1462       33840.00    148135.50
  210.87        2968.25           1466       33357.00    146011.40
  210.90        2968.50           1469       31955.00    139847.00
  210.93        2968.75           1472       30431.00    133148.90
  210.97        2969.00           1476       28427.00    124345.30
  211.00        2969.25           1479       26892.00    117605.10
  211.03        2969.50           1482       25328.00    110740.40
  211.06        2969.75           1486       23335.00    101996.90
  211.09        2970.00           1489       21713.00     94884.35
  211.12        2970.25           1492       20343.00     88879.22
  211.15        2970.50           1496       18496.00     80786.66
  211.18        2970.75           1499       16806.00     73385.45
  211.21        2971.00           1502       15278.00     66696.53
  211.24        2971.25           1506       13248.00     57814.23
  211.27        2971.50           1509       11702.00     51052.85
  211.31        2971.75           1513        9676.00     42196.37
  211.34        2972.00           1516        7967.00     34729.28
  211.37        2972.25           1519        6412.00     27937.97
  211.40        2972.50           1523        4517.00     19665.48
  211.43        2972.75           1526        3104.00     13499.80
  211.46        2973.00           1529        1639.00      7109.62
  211.49        2973.25           1533         594.00      2552.94
  211.52        2973.50           1536         363.00      1545.84
  211.55        2973.75           1539         302.00      1279.91
  211.58        2974.00           1543         242.00      1018.34
  211.61        2974.25           1546         177.00       734.98
  211.64        2974.50           1549         146.00       599.84
  211.68        2974.75           1553         106.00       425.46
  211.71        2975.00           1556          84.00       329.56
  211.74        2975.25           1559          74.00       285.97
  211.77        2975.50           1563          68.00       259.81
  211.80        2975.75           1566          61.00       229.30
  211.83        2976.00           1569          66.00       251.09
  211.86        2976.25           1573          66.00       251.09
  211.89        2976.50           1576          69.00       264.17
  211.92        2976.75           1579          68.00       259.81
  211.95        2977.00           1583          67.00       255.45
  211.98        2977.25           1586          65.00       246.73
  212.02        2977.50           1590          63.00       238.01
  212.05        2977.75           1593          62.00       233.65
  212.08        2978.00           1596          63.00       238.01
  212.11        2978.25           1600          62.00       233.65
  212.14        2978.50           1603          70.00       268.53
  212.17        2978.75           1606          63.00       238.01
  212.20        2979.00           1610          63.00       238.01
  212.23        2979.25           1613          63.00       238.01
  212.26        2979.50           1616          66.00       251.09
  212.29        2979.75           1620          73.00       281.61
  212.32        2980.00           1623          64.00       242.37
  212.35        2980.25           1626          69.00       264.17
  212.39        2980.50           1630          60.00       224.94
  212.42        2980.75           1633          69.00       264.17
  212.45        2981.00           1637          64.00       242.37
  212.48        2981.25           1640          59.00       220.58
  212.51        2981.50           1643          68.00       259.81
  212.54        2981.75           1647          67.00       255.45
  212.57        2982.00           1650          64.00       242.37
  212.60        2982.25           1653          62.00       233.65
  212.63        2982.50           1657          63.00       238.01
  212.66        2982.75           1660          55.00       203.14
  212.69        2983.00           1663          70.00       268.53
  212.72        2983.25           1667          56.00       207.50
  212.75        2983.50           1670          62.00       233.65
  212.78        2983.75           1673          58.00       216.22
  212.81        2984.00           1677          59.00       220.58
HS scan finished at 03:33:02
end
************************************************************
  HS Scan of (1) Internal mercury lamp
************************************************************
Integration time is 0.2294 seconds per sample
dh071017Manchester 53.47 2.23 2.804185pr1000
************************************************************
Dead Time -------------------------  3E-08 
Number of Cycles Used -------------  4 
Starting Wavelength (Angstroms) ---  2950 
Final Wavelength (Angstoms) -------  2984 
Wavelength Increment (Angstroms) --  .25 
Filter Wheel #1 Position ---------- (1) Ground quartz diffuser (ND=2.32)
Filter Wheel #2 Position ---------- (1) Neutral Density 0.494



************************************************************
HS scan start time = 18:42:02
Dark Count =  7 


Time (GMT)  Wavelength (Ang)  Step Number  Raw Counts  Counts/Second

 1122.40        2950.00           1222          63.00       244.12
 1122.47        2950.25           1226          64.00       248.48
 1122.50        2950.50           1229          67.00       261.55
 1122.53        2950.75           1232          63.00       244.12
 1122.56        2951.00           1236          66.00       257.19
 1122.59        2951.25           1239          71.00       278.99
 1122.62        2951.50           1242          62.00       239.76
 1122.65        2951.75           1246          73.00       287.71
 1122.68        2952.00           1249          68.00       265.91
 1122.72        2952.25           1252          61.00       235.40
 1122.75        2952.50           1256          66.00       257.19
 1122.78        2952.75           1259          63.00       244.12
 1122.81        2953.00           1262          66.00       257.19
 1122.84        2953.25           1266          62.00       239.76
 1122.87        2953.50           1269          58.00       222.32
 1122.90        2953.75           1272          69.00       270.27
 1122.93        2954.00           1276          61.00       235.40
 1122.96        2954.25           1279          62.00       239.76
 1122.99        2954.50           1282          67.00       261.55
 1123.02        2954.75           1286          65.00       252.84
 1123.05        2955.00           1289          58.00       222.32
 1123.08        2955.25           1292          65.00       252.84
 1123.11        2955.50           1296          58.00       222.32
 1123.14        2955.75           1299          64.00       248.48
 1123.17        2956.00           1302          67.00       261.55
 1123.21        2956.25           1306          62.00       239.76
 1123.24        2956.50           1309          71.00       278.99
 1123.27        2956.75           1312          68.00       265.91
 1123.30        2957.00           1316          70.00       274.63
 1123.33        2957.25           1319          68.00       265.91
 1123.36        2957.50           1322          61.00       235.40
 1123.39        2957.75           1326          65.00       252.84
 1123.42        2958.00           1329          61.00       235.40
 1123.45        2958.25           1332          72.00       283.35
 1123.48        2958.50           1336          70.00       274.63
 1123.51        2958.75           1339          61.00       235.40
 1123.54        2959.00           1342          58.00       222.32
 1123.57        2959.25           1346          67.00       261.55
 1123.61        2959.50           1349          68.00       265.91
 1123.64        2959.75           1352          73.00       287.71
 1123.67        2960.00           1356          99.00       401.05
 1123.70        2960.25           1359         130.00       536.19
 1123.73        2960.50           1362         166.00       693.13
 1123.76        2960.75           1366         222.00       937.25
 1123.79        2961.00           1369         248.00      1050.60
 1123.82        2961.25           1372         286.00      1216.26
 1123.85        2961.50           1376         359.00      1534.51
 1123.88        2961.75           1379         462.00      1983.55
 1123.92        2962.00           1382         898.00      3884.50
 1123.95        2962.25           1386        2297.00      9985.55
 1123.98        2962.50           1389        3663.00     15944.85
 1124.01        2962.75           1392        4982.00     21701.13
 1124.04        2963.00           1396        6619.00     28847.97
 1124.07        2963.25           1399        8002.00     34888.29
 1124.10        2963.50           1402        9408.00     41031.30
 1124.13        2963.75           1406       11347.00     49506.78
 1124.16        2964.00           1409       12699.00     55419.00
 1124.19        2964.25           1412       14231.00     62120.90
 1124.23        2964.50           1416       16012.00     69915.46
 1124.26        2964.75           1419       17429.00     76119.57
 1124.29        2965.00           1422       18828.00     82247.16
 1124.32        2965.25           1426       20463.00     89411.27
 1124.35        2965.50           1429       21874.00     95596.35
 1124.38        2965.75           1432       23280.00    101761.80
 1124.41        2966.00           1436       24929.00    108995.80
 1124.44        2966.25           1439       26337.00    115175.00
 1124.47        2966.50           1442       27405.00    119863.60
 1124.50        2966.75           1446       28988.00    126815.50
 1124.53        2967.00           1449       29632.00    129644.50
 1124.56        2967.25           1452       29664.00    129785.10
 1124.60        2967.50           1456       29601.00    129508.30
 1124.63        2967.75           1459       29593.00    129473.20
 1124.66        2968.00           1462       29521.00    129156.80
 1124.69        2968.25           1466       28837.00    126152.20
 1124.72        2968.50           1469       27688.00    121106.20
 1124.75        2968.75           1472       26320.00    115100.30
 1124.78        2969.00           1476       24631.00    107688.20
 1124.81        2969.25           1479       23408.00    102323.20
 1124.85        2969.50           1482       21787.00     95214.92
 1124.88        2969.75           1486       20209.00     88298.09
 1124.91        2970.00           1489       18693.00     81655.77
 1124.94        2970.25           1492       17278.00     75458.34
 1124.97        2970.50           1496       15572.00     67989.46
 1125.00        2970.75           1499       14041.00     61289.57
 1125.03        2971.00           1502       12726.00     55537.10
 1125.06        2971.25           1506       10919.00     47635.60
 1125.09        2971.50           1509        9525.00     41542.59
 1125.12        2971.75           1513        7747.00     33774.40
 1125.15        2972.00           1516        6411.00     27939.71
 1125.18        2972.25           1519        5086.00     22155.09
 1125.22        2972.50           1523        3378.00     14701.34
 1125.25        2972.75           1526        2058.00      8943.11
 1125.28        2973.00           1529         934.00      4041.47
 1125.31        2973.25           1533         393.00      1682.74
 1125.34        2973.50           1536         279.00      1185.74
 1125.37        2973.75           1539         235.00       993.93
 1125.40        2974.00           1543         202.00       850.07
 1125.43        2974.25           1546         157.00       653.89
 1125.46        2974.50           1549         127.00       523.11
 1125.49        2974.75           1553          91.00       366.18
 1125.52        2975.00           1556          69.00       270.27
 1125.56        2975.25           1559          61.00       235.40
 1125.59        2975.50           1563          65.00       252.84
 1125.62        2975.75           1566          68.00       265.91
 1125.65        2976.00           1569          56.00       213.60
 1125.68        2976.25           1573          60.00       231.04
 1125.71        2976.50           1576          59.00       226.68
 1125.74        2976.75           1579          60.00       231.04
 1125.77        2977.00           1583          56.00       213.60
 1125.80        2977.25           1586          62.00       239.76
 1125.83        2977.50           1590          62.00       239.76
 1125.87        2977.75           1593          66.00       257.19
 1125.90        2978.00           1596          65.00       252.84
 1125.93        2978.25           1600          59.00       226.68
 1125.96        2978.50           1603          60.00       231.04
 1125.99        2978.75           1606          62.00       239.76
 1126.02        2979.00           1610          64.00       248.48
 1126.05        2979.25           1613          69.00       270.27
 1126.08        2979.50           1616          57.00       217.96
 1126.11        2979.75           1620          70.00       274.63
 1126.14        2980.00           1623          63.00       244.12
 1126.17        2980.25           1626          55.00       209.24
 1126.20        2980.50           1630          51.00       191.81
 1126.23        2980.75           1633          60.00       231.04
 1126.26        2981.00           1637          64.00       248.48
 1126.29        2981.25           1640          56.00       213.60
 1126.33        2981.50           1643          58.00       222.32
 1126.36        2981.75           1647          50.00       187.45
 1126.39        2982.00           1650          60.00       231.04
 1126.42        2982.25           1653          54.00       204.88
 1126.45        2982.50           1657          50.00       187.45
 1126.48        2982.75           1660          58.00       222.32
 1126.51        2983.00           1663          61.00       235.40
 1126.54        2983.25           1667          51.00       191.81
 1126.57        2983.50           1670          52.00       196.17
 1126.60        2983.75           1673          56.00       213.60
 1126.63        2984.00           1677          51.00       191.81
HS scan finished at 18:46:51
end
