************************************************************
  HS Scan of (1) Internal mercury lamp
************************************************************
Integration time is 0.2294 seconds per sample
dh121017Manchester 53.47 2.23 2.804185pr1000
************************************************************
Dead Time -------------------------  3E-08 
Number of Cycles Used -------------  4 
Starting Wavelength (Angstroms) ---  2950 
Final Wavelength (Angstoms) -------  2984 
Wavelength Increment (Angstroms) --  .25 
Filter Wheel #1 Position ---------- (1) Ground quartz diffuser (ND=2.32)
Filter Wheel #2 Position ---------- (1) Neutral Density 0.494



************************************************************
HS scan start time = 03:41:29
Dark Count =  7.6 


Time (GMT)  Wavelength (Ang)  Step Number  Raw Counts  Counts/Second

  221.85        2950.00           1222          66.00       254.58
  221.91        2950.25           1226          71.00       276.38
  221.95        2950.50           1229          66.00       254.58
  221.98        2950.75           1232          70.00       272.02
  222.01        2951.00           1236          72.00       280.73
  222.04        2951.25           1239          66.00       254.58
  222.07        2951.50           1242          72.00       280.73
  222.10        2951.75           1246          74.00       289.45
  222.13        2952.00           1249          62.00       237.14
  222.16        2952.25           1252          72.00       280.73
  222.19        2952.50           1256          68.00       263.30
  222.22        2952.75           1259          68.00       263.30
  222.26        2953.00           1262          63.00       241.50
  222.29        2953.25           1266          70.00       272.02
  222.32        2953.50           1269          71.00       276.38
  222.35        2953.75           1272          68.00       263.30
  222.38        2954.00           1276          73.00       285.09
  222.41        2954.25           1279          63.00       241.50
  222.44        2954.50           1282          65.00       250.22
  222.47        2954.75           1286          75.00       293.81
  222.50        2955.00           1289          67.00       258.94
  222.53        2955.25           1292          64.00       245.86
  222.57        2955.50           1296          78.00       306.89
  222.60        2955.75           1299          75.00       293.81
  222.63        2956.00           1302          69.00       267.66
  222.66        2956.25           1306          72.00       280.73
  222.69        2956.50           1309          72.00       280.73
  222.72        2956.75           1312          74.00       289.45
  222.75        2957.00           1316          64.00       245.86
  222.78        2957.25           1319          77.00       302.53
  222.81        2957.50           1322          81.00       319.97
  222.84        2957.75           1326          70.00       272.02
  222.87        2958.00           1329          74.00       289.45
  222.91        2958.25           1332          70.00       272.02
  222.94        2958.50           1336          72.00       280.73
  222.97        2958.75           1339          64.00       245.86
  223.00        2959.00           1342          75.00       293.81
  223.03        2959.25           1346          76.00       298.17
  223.06        2959.50           1349          78.00       306.89
  223.09        2959.75           1352          82.00       324.33
  223.12        2960.00           1356         123.00       503.06
  223.15        2960.25           1359         144.00       594.61
  223.18        2960.50           1362         176.00       734.11
  223.21        2960.75           1366         235.00       991.31
  223.24        2961.00           1369         289.00      1226.72
  223.28        2961.25           1372         323.00      1374.95
  223.31        2961.50           1376         362.00      1544.97
  223.34        2961.75           1379         482.00      2068.13
  223.37        2962.00           1382         853.00      3685.67
  223.40        2962.25           1386        2346.00     10196.67
  223.43        2962.50           1389        3948.00     17185.84
  223.46        2962.75           1392        5292.00     23051.68
  223.49        2963.00           1396        7309.00     31858.68
  223.52        2963.25           1399        8820.00     38459.35
  223.55        2963.50           1402       10353.00     45158.79
  223.58        2963.75           1406       12473.00     54427.95
  223.62        2964.00           1409       14085.00     61479.46
  223.65        2964.25           1412       15792.00     68949.81
  223.68        2964.50           1416       17967.00     78473.11
  223.71        2964.75           1419       19583.00     85552.34
  223.74        2965.00           1422       21227.00     92757.33
  223.77        2965.25           1426       23283.00    101772.30
  223.80        2965.50           1429       25024.00    109410.00
  223.83        2965.75           1432       26473.00    115769.30
  223.86        2966.00           1436       28561.00    124937.40
  223.90        2966.25           1439       29960.00    131082.90
  223.93        2966.50           1442       31456.00    137657.10
  223.96        2966.75           1446       33154.00    145122.20
  223.99        2967.00           1449       33747.00    147730.00
  224.02        2967.25           1452       33948.00    148614.00
  224.05        2967.50           1456       34044.00    149036.30
  224.08        2967.75           1459       33842.00    148147.80
  224.11        2968.00           1462       33894.00    148376.50
  224.14        2968.25           1466       33111.00    144933.10
  224.17        2968.50           1469       31872.00    139485.70
  224.21        2968.75           1472       30190.00    132093.50
  224.24        2969.00           1476       28211.00    123400.20
  224.27        2969.25           1479       26727.00    116884.30
  224.30        2969.50           1482       25170.00    110050.60
  224.33        2969.75           1486       23070.00    100838.20
  224.36        2970.00           1489       21606.00     94418.78
  224.39        2970.25           1492       20008.00     87414.64
  224.42        2970.50           1496       18158.00     79309.66
  224.46        2970.75           1499       16567.00     72342.53
  224.49        2971.00           1502       14821.00     64700.01
  224.52        2971.25           1506       12741.00     55600.08
  224.55        2971.50           1509       11105.00     48446.13
  224.58        2971.75           1513        9094.00     39656.57
  224.61        2972.00           1516        7649.00     33343.71
  224.64        2972.25           1519        6114.00     26640.29
  224.67        2972.50           1523        4160.00     18110.97
  224.70        2972.75           1526        2715.00     11806.28
  224.73        2973.00           1529        1392.00      6035.97
  224.77        2973.25           1533         486.00      2085.57
  224.80        2973.50           1536         342.00      1457.78
  224.83        2973.75           1539         296.00      1257.24
  224.86        2974.00           1543         253.00      1069.78
  224.89        2974.25           1546         185.00       773.34
  224.92        2974.50           1549         139.00       572.81
  224.95        2974.75           1553         101.00       407.15
  224.98        2975.00           1556          83.00       328.69
  225.01        2975.25           1559          71.00       276.38
  225.04        2975.50           1563          74.00       289.45
  225.07        2975.75           1566          61.00       232.78
  225.11        2976.00           1569          56.00       210.99
  225.14        2976.25           1573          70.00       272.02
  225.17        2976.50           1576          75.00       293.81
  225.20        2976.75           1579          56.00       210.99
  225.23        2977.00           1583          66.00       254.58
  225.26        2977.25           1586          63.00       241.50
  225.29        2977.50           1590          67.00       258.94
  225.32        2977.75           1593          67.00       258.94
  225.35        2978.00           1596          58.00       219.71
  225.38        2978.25           1600          64.00       245.86
  225.41        2978.50           1603          64.00       245.86
  225.44        2978.75           1606          65.00       250.22
  225.47        2979.00           1610          66.00       254.58
  225.51        2979.25           1613          60.00       228.42
  225.54        2979.50           1616          66.00       254.58
  225.57        2979.75           1620          65.00       250.22
  225.60        2980.00           1623          59.00       224.06
  225.63        2980.25           1626          68.00       263.30
  225.66        2980.50           1630          60.00       228.42
  225.69        2980.75           1633          69.00       267.66
  225.72        2981.00           1637          63.00       241.50
  225.75        2981.25           1640          66.00       254.58
  225.78        2981.50           1643          59.00       224.06
  225.81        2981.75           1647          61.00       232.78
  225.84        2982.00           1650          66.00       254.58
  225.88        2982.25           1653          56.00       210.99
  225.91        2982.50           1657          63.00       241.50
  225.94        2982.75           1660          64.00       245.86
  225.97        2983.00           1663          62.00       237.14
  226.00        2983.25           1667          57.00       215.35
  226.03        2983.50           1670          58.00       219.71
  226.06        2983.75           1673          64.00       245.86
  226.09        2984.00           1677          60.00       228.42
HS scan finished at 03:46:18
end
************************************************************
  HS Scan of (1) Internal mercury lamp
************************************************************
Integration time is 0.2294 seconds per sample
dh121017Manchester 53.47 2.23 2.804185pr1000
************************************************************
Dead Time -------------------------  3E-08 
Number of Cycles Used -------------  4 
Starting Wavelength (Angstroms) ---  2950 
Final Wavelength (Angstoms) -------  2984 
Wavelength Increment (Angstroms) --  .25 
Filter Wheel #1 Position ---------- (1) Ground quartz diffuser (ND=2.32)
Filter Wheel #2 Position ---------- (1) Neutral Density 0.494



************************************************************
HS scan start time = 18:12:01
Dark Count =  5.7 


Time (GMT)  Wavelength (Ang)  Step Number  Raw Counts  Counts/Second

 1092.38        2950.00           1222          74.00       297.74
 1092.44        2950.25           1226          67.00       267.22
 1092.47        2950.50           1229          71.00       284.66
 1092.51        2950.75           1232          72.00       289.02
 1092.54        2951.00           1236          78.00       315.17
 1092.57        2951.25           1239          78.00       315.17
 1092.60        2951.50           1242          67.00       267.22
 1092.63        2951.75           1246          68.00       271.58
 1092.66        2952.00           1249          77.00       310.81
 1092.69        2952.25           1252          75.00       302.10
 1092.72        2952.50           1256          68.00       271.58
 1092.75        2952.75           1259          68.00       271.58
 1092.78        2953.00           1262          70.00       280.30
 1092.81        2953.25           1266          73.00       293.38
 1092.84        2953.50           1269          70.00       280.30
 1092.87        2953.75           1272          71.00       284.66
 1092.91        2954.00           1276          79.00       319.53
 1092.94        2954.25           1279          73.00       293.38
 1092.97        2954.50           1282          70.00       280.30
 1093.00        2954.75           1286          69.00       275.94
 1093.03        2955.00           1289          80.00       323.89
 1093.06        2955.25           1292          68.00       271.58
 1093.09        2955.50           1296          72.00       289.02
 1093.12        2955.75           1299          72.00       289.02
 1093.15        2956.00           1302          76.00       306.45
 1093.18        2956.25           1306          68.00       271.58
 1093.22        2956.50           1309          61.00       241.07
 1093.25        2956.75           1312          79.00       319.53
 1093.28        2957.00           1316          83.00       336.97
 1093.31        2957.25           1319          60.00       236.71
 1093.34        2957.50           1322          69.00       275.94
 1093.37        2957.75           1326          69.00       275.94
 1093.40        2958.00           1329          70.00       280.30
 1093.43        2958.25           1332          62.00       245.42
 1093.46        2958.50           1336          78.00       315.17
 1093.49        2958.75           1339          67.00       267.22
 1093.53        2959.00           1342          65.00       258.50
 1093.56        2959.25           1346          70.00       280.30
 1093.59        2959.50           1349          78.00       315.17
 1093.62        2959.75           1352         104.00       428.51
 1093.65        2960.00           1356         111.00       459.03
 1093.68        2960.25           1359         161.00       677.00
 1093.71        2960.50           1362         191.00       807.78
 1093.74        2960.75           1366         241.00      1025.75
 1093.77        2961.00           1369         282.00      1204.49
 1093.80        2961.25           1372         340.00      1457.34
 1093.83        2961.50           1376         413.00      1775.60
 1093.87        2961.75           1379         691.00      2987.63
 1093.90        2962.00           1382        1433.00      6223.05
 1093.93        2962.25           1386        3262.00     14200.91
 1093.96        2962.50           1389        4707.00     20506.51
 1093.99        2962.75           1392        6163.00     26862.53
 1094.02        2963.00           1396        8235.00     35911.82
 1094.05        2963.25           1399        9877.00     43086.61
 1094.08        2963.50           1402       11642.00     50802.31
 1094.11        2963.75           1406       13559.00     59186.52
 1094.15        2964.00           1409       15338.00     66970.96
 1094.18        2964.25           1412       16939.00     73979.62
 1094.21        2964.50           1416       19019.00     83089.60
 1094.24        2964.75           1419       20527.00     89697.46
 1094.27        2965.00           1422       22073.00     96474.56
 1094.30        2965.25           1426       24097.00    105351.20
 1094.33        2965.50           1429       25619.00    112029.40
 1094.36        2965.75           1432       27210.00    119013.10
 1094.39        2966.00           1436       29517.00    129145.00
 1094.43        2966.25           1439       31072.00    135977.70
 1094.46        2966.50           1442       32349.00    141591.00
 1094.49        2966.75           1446       33387.00    146155.10
 1094.52        2967.00           1449       33574.00    146977.50
 1094.55        2967.25           1452       33545.00    146850.00
 1094.58        2967.50           1456       33615.00    147157.80
 1094.61        2967.75           1459       33562.00    146924.70
 1094.64        2968.00           1462       33227.00    145451.50
 1094.67        2968.25           1466       31965.00    139902.90
 1094.71        2968.50           1469       30593.00    133872.70
 1094.74        2968.75           1472       29093.00    127282.40
 1094.77        2969.00           1476       26833.00    117358.00
 1094.80        2969.25           1479       25419.00    111151.60
 1094.83        2969.50           1482       23785.00    103982.60
 1094.86        2969.75           1486       21656.00     94646.30
 1094.89        2970.00           1489       19972.00     87265.22
 1094.92        2970.25           1492       18703.00     81705.26
 1094.95        2970.50           1496       16667.00     72788.68
 1094.99        2970.75           1499       15160.00     66191.90
 1095.02        2971.00           1502       13767.00     60096.48
 1095.05        2971.25           1506       11826.00     51606.86
 1095.08        2971.50           1509       10186.00     44437.14
 1095.11        2971.75           1513        8200.00     35758.92
 1095.14        2972.00           1516        6502.00     28342.75
 1095.17        2972.25           1519        5025.00     21894.50
 1095.20        2972.50           1523        3080.00     13406.87
 1095.23        2972.75           1526        1715.00      7452.84
 1095.26        2973.00           1529         736.00      3183.83
 1095.29        2973.25           1533         395.00      1697.12
 1095.33        2973.50           1536         317.00      1357.07
 1095.36        2973.75           1539         259.00      1104.22
 1095.39        2974.00           1543         226.00       960.36
 1095.42        2974.25           1546         169.00       711.87
 1095.45        2974.50           1549         121.00       502.62
 1095.48        2974.75           1553          85.00       345.69
 1095.51        2975.00           1556          76.00       306.45
 1095.54        2975.25           1559          70.00       280.30
 1095.57        2975.50           1563          68.00       271.58
 1095.60        2975.75           1566          68.00       271.58
 1095.63        2976.00           1569          63.00       249.78
 1095.66        2976.25           1573          69.00       275.94
 1095.69        2976.50           1576          63.00       249.78
 1095.73        2976.75           1579          60.00       236.71
 1095.76        2977.00           1583          70.00       280.30
 1095.79        2977.25           1586          67.00       267.22
 1095.82        2977.50           1590          66.00       262.86
 1095.85        2977.75           1593          68.00       271.58
 1095.88        2978.00           1596          70.00       280.30
 1095.91        2978.25           1600          70.00       280.30
 1095.94        2978.50           1603          72.00       289.02
 1095.97        2978.75           1606          64.00       254.14
 1096.00        2979.00           1610          63.00       249.78
 1096.03        2979.25           1613          65.00       258.50
 1096.07        2979.50           1616          70.00       280.30
 1096.10        2979.75           1620          63.00       249.78
 1096.13        2980.00           1623          65.00       258.50
 1096.16        2980.25           1626          62.00       245.42
 1096.19        2980.50           1630          67.00       267.22
 1096.22        2980.75           1633          70.00       280.30
 1096.25        2981.00           1637          67.00       267.22
 1096.28        2981.25           1640          69.00       275.94
 1096.31        2981.50           1643          70.00       280.30
 1096.34        2981.75           1647          60.00       236.71
 1096.37        2982.00           1650          68.00       271.58
 1096.40        2982.25           1653          65.00       258.50
 1096.43        2982.50           1657          62.00       245.42
 1096.46        2982.75           1660          58.00       227.99
 1096.49        2983.00           1663          62.00       245.42
 1096.53        2983.25           1667          63.00       249.78
 1096.56        2983.50           1670          56.00       219.27
 1096.59        2983.75           1673          63.00       249.78
 1096.62        2984.00           1677          61.00       241.07
HS scan finished at 18:16:50
end
