************************************************************
  HS Scan of (1) Internal mercury lamp
************************************************************
Integration time is 0.2294 seconds per sample
dh101017Manchester 53.47 2.23 2.804185pr1000
************************************************************
Dead Time -------------------------  3E-08 
Number of Cycles Used -------------  4 
Starting Wavelength (Angstroms) ---  2950 
Final Wavelength (Angstoms) -------  2984 
Wavelength Increment (Angstroms) --  .25 
Filter Wheel #1 Position ---------- (1) Ground quartz diffuser (ND=2.32)
Filter Wheel #2 Position ---------- (1) Neutral Density 0.494



************************************************************
HS scan start time = 18:11:59
Dark Count =  6.4 


Time (GMT)  Wavelength (Ang)  Step Number  Raw Counts  Counts/Second

 1092.35        2950.00           1222          71.00       281.61
 1092.41        2950.25           1226          76.00       303.40
 1092.44        2950.50           1229          68.00       268.53
 1092.47        2950.75           1232          68.00       268.53
 1092.51        2951.00           1236          73.00       290.33
 1092.54        2951.25           1239          66.00       259.81
 1092.57        2951.50           1242          73.00       290.33
 1092.60        2951.75           1246          72.00       285.97
 1092.63        2952.00           1249          69.00       272.89
 1092.66        2952.25           1252          70.00       277.25
 1092.69        2952.50           1256          72.00       285.97
 1092.72        2952.75           1259          68.00       268.53
 1092.75        2953.00           1262          73.00       290.33
 1092.78        2953.25           1266          65.00       255.45
 1092.81        2953.50           1269          76.00       303.40
 1092.84        2953.75           1272          72.00       285.97
 1092.87        2954.00           1276          73.00       290.33
 1092.90        2954.25           1279          60.00       233.65
 1092.93        2954.50           1282          75.00       299.04
 1092.97        2954.75           1286          66.00       259.81
 1093.00        2955.00           1289          69.00       272.89
 1093.03        2955.25           1292          69.00       272.89
 1093.06        2955.50           1296          72.00       285.97
 1093.09        2955.75           1299          67.00       264.17
 1093.12        2956.00           1302          67.00       264.17
 1093.15        2956.25           1306          66.00       259.81
 1093.18        2956.50           1309          70.00       277.25
 1093.21        2956.75           1312          67.00       264.17
 1093.24        2957.00           1316          75.00       299.04
 1093.27        2957.25           1319          71.00       281.61
 1093.30        2957.50           1322          65.00       255.45
 1093.33        2957.75           1326          73.00       290.33
 1093.36        2958.00           1329          64.00       251.09
 1093.39        2958.25           1332          69.00       272.89
 1093.43        2958.50           1336          55.00       211.86
 1093.46        2958.75           1339          72.00       285.97
 1093.49        2959.00           1342          69.00       272.89
 1093.52        2959.25           1346          68.00       268.53
 1093.55        2959.50           1349          81.00       325.20
 1093.58        2959.75           1352          97.00       394.95
 1093.61        2960.00           1356         114.00       469.06
 1093.64        2960.25           1359         132.00       547.52
 1093.67        2960.50           1362         185.00       778.57
 1093.70        2960.75           1366         229.00       970.39
 1093.73        2961.00           1369         284.00      1210.16
 1093.76        2961.25           1372         317.00      1354.02
 1093.79        2961.50           1376         408.00      1750.75
 1093.82        2961.75           1379         624.00      2692.46
 1093.86        2962.00           1382        1418.00      6154.58
 1093.89        2962.25           1386        3232.00     14066.97
 1093.92        2962.50           1389        4835.00     21062.13
 1093.95        2962.75           1392        6378.00     27798.24
 1093.98        2963.00           1396        8386.00     36568.43
 1094.01        2963.25           1399       10025.00     43730.39
 1094.04        2963.50           1402       11718.00     51131.56
 1094.07        2963.75           1406       13785.00     60172.17
 1094.10        2964.00           1409       15202.00     66372.66
 1094.14        2964.25           1412       16767.00     73223.46
 1094.17        2964.50           1416       18939.00     82736.06
 1094.20        2964.75           1419       20338.00     88866.07
 1094.23        2965.00           1422       21858.00     95528.83
 1094.26        2965.25           1426       23920.00    104571.70
 1094.29        2965.50           1429       25455.00    111306.50
 1094.32        2965.75           1432       27067.00    118382.20
 1094.35        2966.00           1436       29344.00    128381.90
 1094.38        2966.25           1439       30702.00    134348.60
 1094.41        2966.50           1442       32069.00    140357.00
 1094.44        2966.75           1446       33453.00    146442.30
 1094.47        2967.00           1449       33773.00    147849.60
 1094.51        2967.25           1452       33911.00    148456.60
 1094.54        2967.50           1456       33848.00    148179.50
 1094.57        2967.75           1459       33724.00    147634.10
 1094.60        2968.00           1462       33421.00    146301.60
 1094.63        2968.25           1466       32311.00    141420.90
 1094.66        2968.50           1469       30929.00    135346.20
 1094.69        2968.75           1472       29387.00    128570.80
 1094.72        2969.00           1476       27391.00    119804.70
 1094.75        2969.25           1479       25676.00    112276.40
 1094.78        2969.50           1482       24284.00    106168.50
 1094.81        2969.75           1486       21984.00     96081.27
 1094.85        2970.00           1489       20448.00     89348.16
 1094.88        2970.25           1492       19058.00     83257.40
 1094.91        2970.50           1496       17165.00     74966.15
 1094.94        2970.75           1499       15596.00     68097.13
 1094.97        2971.00           1502       13891.00     60635.92
 1095.00        2971.25           1506       11866.00     51778.72
 1095.03        2971.50           1509       10263.00     44770.64
 1095.06        2971.75           1513        8007.00     34912.75
 1095.09        2972.00           1516        6558.00     28584.23
 1095.13        2972.25           1519        5115.00     22284.29
 1095.16        2972.50           1523        3058.00     13307.84
 1095.19        2972.75           1526        1690.00      7340.76
 1095.22        2973.00           1529         752.00      3250.54
 1095.25        2973.25           1533         398.00      1707.15
 1095.28        2973.50           1536         318.00      1358.38
 1095.31        2973.75           1539         290.00      1236.31
 1095.34        2974.00           1543         237.00      1005.26
 1095.37        2974.25           1546         184.00       774.21
 1095.41        2974.50           1549         150.00       625.99
 1095.44        2974.75           1553          99.00       403.67
 1095.47        2975.00           1556          86.00       347.00
 1095.50        2975.25           1559          74.00       294.68
 1095.53        2975.50           1563          71.00       281.61
 1095.56        2975.75           1566          67.00       264.17
 1095.59        2976.00           1569          68.00       268.53
 1095.62        2976.25           1573          66.00       259.81
 1095.65        2976.50           1576          71.00       281.61
 1095.68        2976.75           1579          73.00       290.33
 1095.71        2977.00           1583          65.00       255.45
 1095.74        2977.25           1586          62.00       242.37
 1095.78        2977.50           1590          66.00       259.81
 1095.81        2977.75           1593          64.00       251.09
 1095.84        2978.00           1596          63.00       246.73
 1095.87        2978.25           1600          72.00       285.97
 1095.90        2978.50           1603          74.00       294.68
 1095.93        2978.75           1606          73.00       290.33
 1095.96        2979.00           1610          67.00       264.17
 1095.99        2979.25           1613          61.00       238.01
 1096.02        2979.50           1616          71.00       281.61
 1096.05        2979.75           1620          66.00       259.81
 1096.08        2980.00           1623          63.00       246.73
 1096.11        2980.25           1626          57.00       220.58
 1096.15        2980.50           1630          69.00       272.89
 1096.18        2980.75           1633          59.00       229.30
 1096.21        2981.00           1637          65.00       255.45
 1096.24        2981.25           1640          64.00       251.09
 1096.27        2981.50           1643          58.00       224.94
 1096.30        2981.75           1647          59.00       229.30
 1096.33        2982.00           1650          65.00       255.45
 1096.36        2982.25           1653          64.00       251.09
 1096.39        2982.50           1657          67.00       264.17
 1096.42        2982.75           1660          61.00       238.01
 1096.45        2983.00           1663          64.00       251.09
 1096.48        2983.25           1667          56.00       216.22
 1096.51        2983.50           1670          60.00       233.65
 1096.54        2983.75           1673          61.00       238.01
 1096.58        2984.00           1677          63.00       246.73
HS scan finished at 18:16:47
end
