************************************************************
  HS Scan of (1) Internal mercury lamp
************************************************************
Integration time is 0.2294 seconds per sample
dh261017Manchester 53.47 2.23 2.804185pr1000
************************************************************
Dead Time -------------------------  3E-08 
Number of Cycles Used -------------  4 
Starting Wavelength (Angstroms) ---  2950 
Final Wavelength (Angstoms) -------  2984 
Wavelength Increment (Angstroms) --  .25 
Filter Wheel #1 Position ---------- (1) Ground quartz diffuser (ND=2.32)
Filter Wheel #2 Position ---------- (1) Neutral Density 0.494



************************************************************
HS scan start time = 04:09:34
Dark Count =  6 


Time (GMT)  Wavelength (Ang)  Step Number  Raw Counts  Counts/Second

  249.94        2950.00           1222          73.00       292.07
  250.01        2950.25           1226          65.00       257.19
  250.04        2950.50           1229          80.00       322.58
  250.07        2950.75           1232          74.00       296.43
  250.10        2951.00           1236          68.00       270.27
  250.13        2951.25           1239          76.00       305.15
  250.16        2951.50           1242          65.00       257.19
  250.19        2951.75           1246          58.00       226.68
  250.23        2952.00           1249          69.00       274.63
  250.26        2952.25           1252          69.00       274.63
  250.29        2952.50           1256          68.00       270.27
  250.32        2952.75           1259          67.00       265.91
  250.35        2953.00           1262          74.00       296.43
  250.38        2953.25           1266          64.00       252.84
  250.41        2953.50           1269          69.00       274.63
  250.44        2953.75           1272          80.00       322.58
  250.47        2954.00           1276          64.00       252.84
  250.50        2954.25           1279          65.00       257.19
  250.53        2954.50           1282          66.00       261.55
  250.56        2954.75           1286          70.00       278.99
  250.59        2955.00           1289          73.00       292.07
  250.62        2955.25           1292          66.00       261.55
  250.66        2955.50           1296          70.00       278.99
  250.69        2955.75           1299          69.00       274.63
  250.72        2956.00           1302          70.00       278.99
  250.75        2956.25           1306          71.00       283.35
  250.78        2956.50           1309          61.00       239.76
  250.81        2956.75           1312          67.00       265.91
  250.84        2957.00           1316          76.00       305.15
  250.87        2957.25           1319          66.00       261.55
  250.90        2957.50           1322          66.00       261.55
  250.93        2957.75           1326          64.00       252.84
  250.96        2958.00           1329          65.00       257.19
  250.99        2958.25           1332          70.00       278.99
  251.03        2958.50           1336          71.00       283.35
  251.06        2958.75           1339          74.00       296.43
  251.09        2959.00           1342          68.00       270.27
  251.12        2959.25           1346          72.00       287.71
  251.15        2959.50           1349          76.00       305.15
  251.18        2959.75           1352          87.00       353.10
  251.21        2960.00           1356         124.00       514.39
  251.24        2960.25           1359         152.00       636.46
  251.27        2960.50           1362         190.00       802.11
  251.30        2960.75           1366         224.00       950.33
  251.33        2961.00           1369         275.00      1172.67
  251.36        2961.25           1372         342.00      1464.76
  251.39        2961.50           1376         385.00      1652.22
  251.42        2961.75           1379         579.00      2498.01
  251.45        2962.00           1382        1158.00      5022.55
  251.49        2962.25           1386        2852.00     12410.90
  251.52        2962.50           1389        4417.00     19239.52
  251.55        2962.75           1392        5909.00     25752.23
  251.58        2963.00           1396        8017.00     34958.18
  251.61        2963.25           1399        9481.00     41354.68
  251.64        2963.50           1402       10934.00     47705.55
  251.67        2963.75           1406       12961.00     56569.33
  251.70        2964.00           1409       14708.00     64212.51
  251.73        2964.25           1412       16347.00     71386.38
  251.77        2964.50           1416       18490.00     80770.90
  251.80        2964.75           1419       20042.00     87570.65
  251.83        2965.00           1422       21573.00     94281.11
  251.86        2965.25           1426       23543.00    102919.70
  251.89        2965.50           1429       25074.00    109636.40
  251.92        2965.75           1432       26408.00    115491.00
  251.95        2966.00           1436       28489.00    124628.10
  251.98        2966.25           1439       29928.00    130949.40
  252.01        2966.50           1442       31414.00    137479.50
  252.04        2966.75           1446       32810.00    143616.60
  252.07        2967.00           1449       33572.00    146967.40
  252.11        2967.25           1452       33635.00    147244.50
  252.14        2967.50           1456       33655.00    147332.40
  252.17        2967.75           1459       33560.00    146914.60
  252.20        2968.00           1462       33620.00    147178.50
  252.23        2968.25           1466       32719.00    143216.40
  252.26        2968.50           1469       31415.00    137483.90
  252.29        2968.75           1472       30050.00    131485.40
  252.32        2969.00           1476       27996.00    122463.10
  252.35        2969.25           1479       26570.00    116202.10
  252.38        2969.50           1482       25099.00    109746.10
  252.42        2969.75           1486       22994.00    100511.90
  252.45        2970.00           1489       21216.00     92716.12
  252.48        2970.25           1492       19758.00     86326.16
  252.51        2970.50           1496       17661.00     77139.95
  252.54        2970.75           1499       16090.00     70261.28
  252.57        2971.00           1502       14520.00     63389.83
  252.60        2971.25           1506       12512.00     54605.51
  252.63        2971.50           1509       10982.00     47915.39
  252.66        2971.75           1513        8921.00     38907.64
  252.70        2972.00           1516        7432.00     32402.89
  252.73        2972.25           1519        5822.00     25372.40
  252.76        2972.50           1523        3685.00     16045.21
  252.79        2972.75           1526        2374.00     10325.78
  252.82        2973.00           1529        1041.00      4512.38
  252.85        2973.25           1533         479.00      2062.03
  252.88        2973.50           1536         333.00      1425.52
  252.91        2973.75           1539         278.00      1185.74
  252.94        2974.00           1543         256.00      1089.84
  252.97        2974.25           1546         175.00       736.72
  253.00        2974.50           1549         133.00       553.63
  253.03        2974.75           1553         116.00       479.52
  253.06        2975.00           1556          76.00       305.15
  253.10        2975.25           1559          69.00       274.63
  253.13        2975.50           1563          70.00       278.99
  253.16        2975.75           1566          68.00       270.27
  253.19        2976.00           1569          63.00       248.48
  253.22        2976.25           1573          55.00       213.60
  253.25        2976.50           1576          69.00       274.63
  253.28        2976.75           1579          73.00       292.07
  253.31        2977.00           1583          68.00       270.27
  253.34        2977.25           1586          68.00       270.27
  253.37        2977.50           1590          58.00       226.68
  253.40        2977.75           1593          67.00       265.91
  253.43        2978.00           1596          75.00       300.79
  253.47        2978.25           1600          63.00       248.48
  253.50        2978.50           1603          57.00       222.32
  253.53        2978.75           1606          60.00       235.40
  253.56        2979.00           1610          63.00       248.48
  253.59        2979.25           1613          69.00       274.63
  253.62        2979.50           1616          69.00       274.63
  253.65        2979.75           1620          64.00       252.84
  253.68        2980.00           1623          64.00       252.84
  253.71        2980.25           1626          69.00       274.63
  253.74        2980.50           1630          68.00       270.27
  253.77        2980.75           1633          62.00       244.12
  253.81        2981.00           1637          57.00       222.32
  253.84        2981.25           1640          60.00       235.40
  253.87        2981.50           1643          57.00       222.32
  253.90        2981.75           1647          58.00       226.68
  253.93        2982.00           1650          67.00       265.91
  253.96        2982.25           1653          59.00       231.04
  253.99        2982.50           1657          62.00       244.12
  254.02        2982.75           1660          61.00       239.76
  254.05        2983.00           1663          53.00       204.88
  254.08        2983.25           1667          61.00       239.76
  254.11        2983.50           1670          65.00       257.19
  254.14        2983.75           1673          59.00       231.04
  254.18        2984.00           1677          52.00       200.52
HS scan finished at 04:14:23
end
************************************************************
  HS Scan of (1) Internal mercury lamp
************************************************************
Integration time is 0.2294 seconds per sample
dh261017Manchester 53.47 2.23 2.804185pr1000
************************************************************
Dead Time -------------------------  3E-08 
Number of Cycles Used -------------  4 
Starting Wavelength (Angstroms) ---  2950 
Final Wavelength (Angstoms) -------  2984 
Wavelength Increment (Angstroms) --  .25 
Filter Wheel #1 Position ---------- (1) Ground quartz diffuser (ND=2.32)
Filter Wheel #2 Position ---------- (1) Neutral Density 0.494



************************************************************
HS scan start time = 17:42:01
Dark Count =  8 


Time (GMT)  Wavelength (Ang)  Step Number  Raw Counts  Counts/Second

 1062.39        2950.00           1222          71.00       274.63
 1062.46        2950.25           1226          75.00       292.07
 1062.49        2950.50           1229          68.00       261.55
 1062.52        2950.75           1232          69.00       265.91
 1062.55        2951.00           1236          72.00       278.99
 1062.58        2951.25           1239          66.00       252.84
 1062.62        2951.50           1242          57.00       213.60
 1062.65        2951.75           1246          65.00       248.48
 1062.68        2952.00           1249          66.00       252.84
 1062.71        2952.25           1252          68.00       261.55
 1062.74        2952.50           1256          66.00       252.84
 1062.77        2952.75           1259          76.00       296.43
 1062.80        2953.00           1262          71.00       274.63
 1062.83        2953.25           1266          72.00       278.99
 1062.86        2953.50           1269          67.00       257.19
 1062.89        2953.75           1272          70.00       270.27
 1062.92        2954.00           1276          64.00       244.12
 1062.96        2954.25           1279          70.00       270.27
 1062.99        2954.50           1282          75.00       292.07
 1063.02        2954.75           1286          81.00       318.22
 1063.05        2955.00           1289          74.00       287.71
 1063.08        2955.25           1292          74.00       287.71
 1063.11        2955.50           1296          66.00       252.84
 1063.14        2955.75           1299          64.00       244.12
 1063.17        2956.00           1302          65.00       248.48
 1063.20        2956.25           1306          68.00       261.55
 1063.23        2956.50           1309          68.00       261.55
 1063.26        2956.75           1312          72.00       278.99
 1063.29        2957.00           1316          64.00       244.12
 1063.33        2957.25           1319          66.00       252.84
 1063.36        2957.50           1322          69.00       265.91
 1063.39        2957.75           1326          73.00       283.35
 1063.42        2958.00           1329          68.00       261.55
 1063.45        2958.25           1332          75.00       292.07
 1063.48        2958.50           1336          57.00       213.60
 1063.51        2958.75           1339          68.00       261.55
 1063.54        2959.00           1342          65.00       248.48
 1063.57        2959.25           1346          71.00       274.63
 1063.60        2959.50           1349          79.00       309.51
 1063.64        2959.75           1352          91.00       361.82
 1063.67        2960.00           1356         116.00       470.80
 1063.70        2960.25           1359         146.00       601.58
 1063.73        2960.50           1362         203.00       850.07
 1063.76        2960.75           1366         229.00       963.41
 1063.79        2961.00           1369         286.00      1211.90
 1063.82        2961.25           1372         321.00      1364.48
 1063.85        2961.50           1376         419.00      1791.73
 1063.88        2961.75           1379         582.00      2502.37
 1063.91        2962.00           1382        1271.00      5506.58
 1063.94        2962.25           1386        3013.00     13104.54
 1063.97        2962.50           1389        4434.00     19304.99
 1064.01        2962.75           1392        5860.00     25529.57
 1064.04        2963.00           1396        7745.00     33761.29
 1064.07        2963.25           1399        9256.00     40362.71
 1064.10        2963.50           1402       10886.00     47486.96
 1064.13        2963.75           1406       12916.00     56363.75
 1064.16        2964.00           1409       14425.00     62965.39
 1064.19        2964.25           1412       16260.00     70996.75
 1064.22        2964.50           1416       18507.00     80836.60
 1064.25        2964.75           1419       20125.00     87925.60
 1064.29        2965.00           1422       21500.00     93952.32
 1064.32        2965.25           1426       23704.00    103617.20
 1064.35        2965.50           1429       25176.00    110075.20
 1064.38        2965.75           1432       26902.00    117650.80
 1064.41        2966.00           1436       28818.00    126064.40
 1064.44        2966.25           1439       30143.00    131885.20
 1064.47        2966.50           1442       31632.00    138429.00
 1064.50        2966.75           1446       33010.00    144487.20
 1064.53        2967.00           1449       33320.00    145850.40
 1064.56        2967.25           1452       33305.00    145784.40
 1064.60        2967.50           1456       33362.00    146035.10
 1064.63        2967.75           1459       33306.00    145788.80
 1064.66        2968.00           1462       33144.00    145076.40
 1064.69        2968.25           1466       32065.00    140332.40
 1064.72        2968.50           1469       30730.00    134464.60
 1064.75        2968.75           1472       29308.00    128216.70
 1064.78        2969.00           1476       27271.00    119270.80
 1064.81        2969.25           1479       25946.00    113454.40
 1064.84        2969.50           1482       24474.00    106995.00
 1064.88        2969.75           1486       22419.00     97981.57
 1064.91        2970.00           1489       20867.00     91177.57
 1064.94        2970.25           1492       19415.00     84814.48
 1064.97        2970.50           1496       17307.00     75580.95
 1065.00        2970.75           1499       15867.00     69276.35
 1065.03        2971.00           1502       14086.00     61482.09
 1065.06        2971.25           1506       12064.00     52637.55
 1065.09        2971.50           1509       10420.00     45449.90
 1065.12        2971.75           1513        8583.00     37422.11
 1065.15        2972.00           1516        7086.00     30883.01
 1065.19        2972.25           1519        5569.00     24259.15
 1065.22        2972.50           1523        3739.00     16272.11
 1065.25        2972.75           1526        2216.00      9627.89
 1065.28        2973.00           1529        1017.00      4399.01
 1065.31        2973.25           1533         451.00      1931.24
 1065.34        2973.50           1536         339.00      1442.96
 1065.37        2973.75           1539         289.00      1224.98
 1065.40        2974.00           1543         249.00      1050.60
 1065.43        2974.25           1546         174.00       723.64
 1065.46        2974.50           1549         138.00       566.71
 1065.49        2974.75           1553         109.00       440.28
 1065.53        2975.00           1556          87.00       344.38
 1065.56        2975.25           1559          78.00       305.15
 1065.59        2975.50           1563          67.00       257.19
 1065.62        2975.75           1566          52.00       191.81
 1065.65        2976.00           1569          59.00       222.32
 1065.68        2976.25           1573          67.00       257.19
 1065.71        2976.50           1576          57.00       213.60
 1065.74        2976.75           1579          66.00       252.84
 1065.77        2977.00           1583          62.00       235.40
 1065.80        2977.25           1586          64.00       244.12
 1065.83        2977.50           1590          65.00       248.48
 1065.86        2977.75           1593          74.00       287.71
 1065.89        2978.00           1596          59.00       222.32
 1065.92        2978.25           1600          63.00       239.76
 1065.95        2978.50           1603          57.00       213.60
 1065.99        2978.75           1606          67.00       257.19
 1066.02        2979.00           1610          64.00       244.12
 1066.05        2979.25           1613          65.00       248.48
 1066.08        2979.50           1616          65.00       248.48
 1066.11        2979.75           1620          57.00       213.60
 1066.14        2980.00           1623          71.00       274.63
 1066.17        2980.25           1626          61.00       231.04
 1066.20        2980.50           1630          62.00       235.40
 1066.23        2980.75           1633          65.00       248.48
 1066.26        2981.00           1637          55.00       204.88
 1066.29        2981.25           1640          57.00       213.60
 1066.32        2981.50           1643          59.00       222.32
 1066.36        2981.75           1647          60.00       226.68
 1066.39        2982.00           1650          61.00       231.04
 1066.42        2982.25           1653          65.00       248.48
 1066.45        2982.50           1657          62.00       235.40
 1066.48        2982.75           1660          63.00       239.76
 1066.51        2983.00           1663          69.00       265.91
 1066.54        2983.25           1667          57.00       213.60
 1066.57        2983.50           1670          60.00       226.68
 1066.60        2983.75           1673          62.00       235.40
 1066.63        2984.00           1677          67.00       257.19
HS scan finished at 17:46:51
end
