************************************************************
  HS Scan of (1) Internal mercury lamp
************************************************************
Integration time is 0.2294 seconds per sample
dh211018Manchester 53.47 2.23 2.804185pr1000
************************************************************
Dead Time -------------------------  3E-08 
Number of Cycles Used -------------  4 
Starting Wavelength (Angstroms) ---  2950 
Final Wavelength (Angstoms) -------  2984 
Wavelength Increment (Angstroms) --  .25 
Filter Wheel #1 Position ---------- (1) Ground quartz diffuser (ND=2.32)
Filter Wheel #2 Position ---------- (1) Neutral Density 0.494



************************************************************
HS scan start time = 03:59:11
Dark Count =  6.7 


Time (GMT)  Wavelength (Ang)  Step Number  Raw Counts  Counts/Second

  239.55        2950.00           1222          64.00       249.78
  239.61        2950.25           1226          53.00       201.83
  239.64        2950.50           1229          45.00       166.96
  239.67        2950.75           1232          48.00       180.04
  239.70        2951.00           1236          54.00       206.19
  239.73        2951.25           1239          52.00       197.47
  239.77        2951.50           1242          45.00       166.96
  239.80        2951.75           1246          48.00       180.04
  239.83        2952.00           1249          55.00       210.55
  239.86        2952.25           1252          49.00       184.40
  239.89        2952.50           1256          49.00       184.40
  239.92        2952.75           1259          54.00       206.19
  239.95        2953.00           1262          49.00       184.40
  239.98        2953.25           1266          49.00       184.40
  240.01        2953.50           1269          47.00       175.68
  240.04        2953.75           1272          50.00       188.75
  240.07        2954.00           1276          56.00       214.91
  240.10        2954.25           1279          46.00       171.32
  240.13        2954.50           1282          43.00       158.24
  240.17        2954.75           1286          44.00       162.60
  240.20        2955.00           1289          47.00       175.68
  240.23        2955.25           1292          44.00       162.60
  240.26        2955.50           1296          50.00       188.75
  240.29        2955.75           1299          52.00       197.47
  240.32        2956.00           1302          54.00       206.19
  240.35        2956.25           1306          47.00       175.68
  240.38        2956.50           1309          52.00       197.47
  240.41        2956.75           1312          49.00       184.40
  240.44        2957.00           1316          48.00       180.04
  240.47        2957.25           1319          56.00       214.91
  240.51        2957.50           1322          51.00       193.11
  240.54        2957.75           1326          49.00       184.40
  240.57        2958.00           1329          49.00       184.40
  240.60        2958.25           1332          54.00       206.19
  240.63        2958.50           1336          47.00       175.68
  240.66        2958.75           1339          58.00       223.63
  240.69        2959.00           1342          52.00       197.47
  240.72        2959.25           1346          52.00       197.47
  240.75        2959.50           1349          52.00       197.47
  240.78        2959.75           1352          57.00       219.27
  240.81        2960.00           1356          84.00       336.97
  240.85        2960.25           1359         106.00       432.87
  240.88        2960.50           1362         137.00       568.01
  240.91        2960.75           1366         173.00       724.95
  240.94        2961.00           1369         194.00       816.50
  240.97        2961.25           1372         233.00       986.52
  241.00        2961.50           1376         308.00      1313.48
  241.03        2961.75           1379         408.00      1749.44
  241.06        2962.00           1382         922.00      3990.45
  241.09        2962.25           1386        2286.00      9938.88
  241.12        2962.50           1389        3547.00     15440.02
  241.15        2962.75           1392        4528.00     19720.90
  241.19        2963.00           1396        6200.00     27019.71
  241.22        2963.25           1399        7145.00     31146.35
  241.25        2963.50           1402        8307.00     36221.99
  241.28        2963.75           1406        9792.00     42710.75
  241.31        2964.00           1409       10929.00     47680.63
  241.34        2964.25           1412       12128.00     52923.10
  241.37        2964.50           1416       13715.00     59864.62
  241.40        2964.75           1419       14894.00     65023.41
  241.43        2965.00           1422       15970.00     69732.91
  241.47        2965.25           1426       17594.00     76843.47
  241.50        2965.50           1429       18723.00     81788.50
  241.53        2965.75           1432       20268.00     88557.99
  241.56        2966.00           1436       21485.00     93892.27
  241.59        2966.25           1439       22681.00     99136.18
  241.62        2966.50           1442       23738.00    103772.00
  241.65        2966.75           1446       24942.00    109054.10
  241.68        2967.00           1449       25256.00    110432.00
  241.71        2967.25           1452       25307.00    110655.80
  241.74        2967.50           1456       25226.00    110300.30
  241.77        2967.75           1459       25248.00    110396.90
  241.81        2968.00           1462       25110.00    109791.30
  241.84        2968.25           1466       24396.00    106658.50
  241.87        2968.50           1469       23319.00    101934.20
  241.90        2968.75           1472       22197.00     97013.85
  241.93        2969.00           1476       20961.00     91595.29
  241.96        2969.25           1479       19635.00     85784.13
  241.99        2969.50           1482       18587.00     81192.75
  242.02        2969.75           1486       17009.00     74281.75
  242.05        2970.00           1489       15807.00     69019.40
  242.08        2970.25           1492       14588.00     63684.33
  242.12        2970.50           1496       13206.00     57637.95
  242.15        2970.75           1499       12035.00     52516.42
  242.18        2971.00           1502       10803.00     47129.80
  242.21        2971.25           1506        9100.00     39686.72
  242.24        2971.50           1509        7937.00     34605.65
  242.27        2971.75           1513        6507.00     28360.21
  242.30        2972.00           1516        5247.00     22859.18
  242.33        2972.25           1519        4129.00     17979.62
  242.36        2972.50           1523        2586.00     11247.48
  242.40        2972.75           1526        1590.00      6903.35
  242.43        2973.00           1529         752.00      3249.23
  242.46        2973.25           1533         334.00      1426.83
  242.49        2973.50           1536         241.00      1021.39
  242.52        2973.75           1539         212.00       894.97
  242.55        2974.00           1543         173.00       724.95
  242.58        2974.25           1546         133.00       550.58
  242.61        2974.50           1549          98.00       398.00
  242.64        2974.75           1553          76.00       302.10
  242.67        2975.00           1556          66.00       258.50
  242.70        2975.25           1559          47.00       175.68
  242.73        2975.50           1563          52.00       197.47
  242.77        2975.75           1566          52.00       197.47
  242.80        2976.00           1569          59.00       227.99
  242.83        2976.25           1573          52.00       197.47
  242.86        2976.50           1576          43.00       158.24
  242.89        2976.75           1579          48.00       180.04
  242.92        2977.00           1583          39.00       140.80
  242.95        2977.25           1586          44.00       162.60
  242.98        2977.50           1590          44.00       162.60
  243.01        2977.75           1593          48.00       180.04
  243.04        2978.00           1596          41.00       149.52
  243.07        2978.25           1600          55.00       210.55
  243.11        2978.50           1603          44.00       162.60
  243.14        2978.75           1606          53.00       201.83
  243.17        2979.00           1610          49.00       184.40
  243.20        2979.25           1613          39.00       140.80
  243.23        2979.50           1616          44.00       162.60
  243.26        2979.75           1620          50.00       188.75
  243.29        2980.00           1623          44.00       162.60
  243.32        2980.25           1626          43.00       158.24
  243.35        2980.50           1630          46.00       171.32
  243.38        2980.75           1633          46.00       171.32
  243.41        2981.00           1637          42.00       153.88
  243.44        2981.25           1640          47.00       175.68
  243.47        2981.50           1643          46.00       171.32
  243.50        2981.75           1647          45.00       166.96
  243.54        2982.00           1650          50.00       188.75
  243.57        2982.25           1653          40.00       145.16
  243.60        2982.50           1657          39.00       140.80
  243.63        2982.75           1660          42.00       153.88
  243.66        2983.00           1663          47.00       175.68
  243.69        2983.25           1667          50.00       188.75
  243.72        2983.50           1670          47.00       175.68
  243.75        2983.75           1673          46.00       171.32
  243.78        2984.00           1677          49.00       184.40
HS scan finished at 04:04:00
end
************************************************************
  HS Scan of (1) Internal mercury lamp
************************************************************
Integration time is 0.2294 seconds per sample
dh211018Manchester 53.47 2.23 2.804185pr1000
************************************************************
Dead Time -------------------------  3E-08 
Number of Cycles Used -------------  4 
Starting Wavelength (Angstroms) ---  2950 
Final Wavelength (Angstoms) -------  2984 
Wavelength Increment (Angstroms) --  .25 
Filter Wheel #1 Position ---------- (1) Ground quartz diffuser (ND=2.32)
Filter Wheel #2 Position ---------- (1) Neutral Density 0.494



************************************************************
HS scan start time = 18:12:01
Dark Count =  5.6 


Time (GMT)  Wavelength (Ang)  Step Number  Raw Counts  Counts/Second

 1092.38        2950.00           1222          47.00       180.47
 1092.45        2950.25           1226          51.00       197.91
 1092.48        2950.50           1229          59.00       232.78
 1092.51        2950.75           1232          47.00       180.47
 1092.54        2951.00           1236          54.00       210.99
 1092.57        2951.25           1239          46.00       176.11
 1092.60        2951.50           1242          50.00       193.55
 1092.63        2951.75           1246          48.00       184.83
 1092.66        2952.00           1249          50.00       193.55
 1092.69        2952.25           1252          49.00       189.19
 1092.72        2952.50           1256          48.00       184.83
 1092.75        2952.75           1259          50.00       193.55
 1092.78        2953.00           1262          51.00       197.91
 1092.82        2953.25           1266          47.00       180.47
 1092.85        2953.50           1269          50.00       193.55
 1092.88        2953.75           1272          44.00       167.39
 1092.91        2954.00           1276          51.00       197.91
 1092.94        2954.25           1279          54.00       210.99
 1092.97        2954.50           1282          46.00       176.11
 1093.00        2954.75           1286          53.00       206.63
 1093.03        2955.00           1289          44.00       167.39
 1093.06        2955.25           1292          53.00       206.63
 1093.09        2955.50           1296          47.00       180.47
 1093.12        2955.75           1299          50.00       193.55
 1093.15        2956.00           1302          52.00       202.27
 1093.19        2956.25           1306          54.00       210.99
 1093.22        2956.50           1309          51.00       197.91
 1093.25        2956.75           1312          59.00       232.78
 1093.28        2957.00           1316          61.00       241.50
 1093.31        2957.25           1319          51.00       197.91
 1093.34        2957.50           1322          51.00       197.91
 1093.37        2957.75           1326          52.00       202.27
 1093.40        2958.00           1329          48.00       184.83
 1093.43        2958.25           1332          52.00       202.27
 1093.46        2958.50           1336          54.00       210.99
 1093.49        2958.75           1339          50.00       193.55
 1093.52        2959.00           1342          51.00       197.91
 1093.55        2959.25           1346          52.00       202.27
 1093.58        2959.50           1349          56.00       219.71
 1093.61        2959.75           1352          63.00       250.22
 1093.65        2960.00           1356          77.00       311.25
 1093.68        2960.25           1359         111.00       459.47
 1093.71        2960.50           1362         130.00       542.29
 1093.74        2960.75           1366         178.00       751.54
 1093.77        2961.00           1369         214.00       908.48
 1093.80        2961.25           1372         231.00       982.59
 1093.83        2961.50           1376         290.00      1239.80
 1093.86        2961.75           1379         433.00      1863.23
 1093.89        2962.00           1382         930.00      4030.13
 1093.92        2962.25           1386        2276.00      9900.06
 1093.96        2962.50           1389        3483.00     15165.57
 1093.99        2962.75           1392        4517.00     19677.70
 1094.02        2963.00           1396        6082.00     26509.31
 1094.05        2963.25           1399        7145.00     31151.16
 1094.08        2963.50           1402        8354.00     36432.13
 1094.11        2963.75           1406        9763.00     42588.82
 1094.14        2964.00           1409       11090.00     48389.29
 1094.17        2964.25           1412       12236.00     53400.22
 1094.20        2964.50           1416       13891.00     60639.42
 1094.24        2964.75           1419       15128.00     66052.30
 1094.27        2965.00           1422       16410.00     71663.94
 1094.30        2965.25           1426       17916.00     78258.51
 1094.33        2965.50           1429       19058.00     83260.90
 1094.36        2965.75           1432       20202.00     88273.56
 1094.39        2966.00           1436       21798.00     95269.30
 1094.42        2966.25           1439       22940.00    100276.80
 1094.45        2966.50           1442       23798.00    104040.00
 1094.48        2966.75           1446       24949.00    109089.70
 1094.52        2967.00           1449       25253.00    110423.60
 1094.55        2967.25           1452       25150.00    109971.60
 1094.58        2967.50           1456       25333.00    110774.70
 1094.61        2967.75           1459       25273.00    110511.40
 1094.64        2968.00           1462       24922.00    108971.20
 1094.67        2968.25           1466       24279.00    106150.10
 1094.70        2968.50           1469       23246.00    101618.80
 1094.73        2968.75           1472       22051.00     96378.53
 1094.76        2969.00           1476       20596.00     90000.31
 1094.80        2969.25           1479       19533.00     85342.03
 1094.83        2969.50           1482       18413.00     80435.37
 1094.86        2969.75           1486       16981.00     74163.96
 1094.89        2970.00           1489       15807.00     69024.22
 1094.92        2970.25           1492       14577.00     63641.01
 1094.95        2970.50           1496       13135.00     57332.19
 1094.98        2970.75           1499       11924.00     52035.83
 1095.01        2971.00           1502       10727.00     46802.37
 1095.04        2971.25           1506        9036.00     39411.88
 1095.08        2971.50           1509        7879.00     34357.11
 1095.11        2971.75           1513        6448.00     28107.39
 1095.14        2972.00           1516        5215.00     22724.29
 1095.17        2972.25           1519        4171.00     18167.70
 1095.20        2972.50           1523        2677.00     11649.23
 1095.23        2972.75           1526        1575.00      6842.73
 1095.26        2973.00           1529         741.00      3206.06
 1095.29        2973.25           1533         333.00      1427.26
 1095.32        2973.50           1536         245.00      1043.62
 1095.35        2973.75           1539         216.00       917.20
 1095.39        2974.00           1543         166.00       699.23
 1095.42        2974.25           1546         132.00       551.01
 1095.45        2974.50           1549         109.00       450.75
 1095.48        2974.75           1553          79.00       319.97
 1095.51        2975.00           1556          68.00       272.02
 1095.54        2975.25           1559          49.00       189.19
 1095.57        2975.50           1563          51.00       197.91
 1095.60        2975.75           1566          43.00       163.03
 1095.63        2976.00           1569          44.00       167.39
 1095.66        2976.25           1573          47.00       180.47
 1095.69        2976.50           1576          53.00       206.63
 1095.72        2976.75           1579          52.00       202.27
 1095.75        2977.00           1583          49.00       189.19
 1095.79        2977.25           1586          47.00       180.47
 1095.82        2977.50           1590          46.00       176.11
 1095.85        2977.75           1593          49.00       189.19
 1095.88        2978.00           1596          45.00       171.75
 1095.91        2978.25           1600          46.00       176.11
 1095.94        2978.50           1603          43.00       163.03
 1095.97        2978.75           1606          48.00       184.83
 1096.00        2979.00           1610          47.00       180.47
 1096.03        2979.25           1613          54.00       210.99
 1096.07        2979.50           1616          46.00       176.11
 1096.10        2979.75           1620          38.00       141.24
 1096.13        2980.00           1623          46.00       176.11
 1096.16        2980.25           1626          49.00       189.19
 1096.19        2980.50           1630          51.00       197.91
 1096.22        2980.75           1633          47.00       180.47
 1096.25        2981.00           1637          46.00       176.11
 1096.28        2981.25           1640          52.00       202.27
 1096.31        2981.50           1643          48.00       184.83
 1096.34        2981.75           1647          42.00       158.68
 1096.37        2982.00           1650          40.00       149.96
 1096.41        2982.25           1653          46.00       176.11
 1096.44        2982.50           1657          40.00       149.96
 1096.47        2982.75           1660          46.00       176.11
 1096.50        2983.00           1663          45.00       171.75
 1096.53        2983.25           1667          44.00       167.39
 1096.56        2983.50           1670          38.00       141.24
 1096.59        2983.75           1673          45.00       171.75
 1096.62        2984.00           1677          45.00       171.75
HS scan finished at 18:16:50
end
