************************************************************
  HS Scan of (1) Internal mercury lamp
************************************************************
Integration time is 0.2294 seconds per sample
dh251018Manchester 53.47 2.23 2.804185pr1000
************************************************************
Dead Time -------------------------  3E-08 
Number of Cycles Used -------------  4 
Starting Wavelength (Angstroms) ---  2950 
Final Wavelength (Angstoms) -------  2984 
Wavelength Increment (Angstroms) --  .25 
Filter Wheel #1 Position ---------- (1) Ground quartz diffuser (ND=2.32)
Filter Wheel #2 Position ---------- (1) Neutral Density 0.494



************************************************************
HS scan start time = 04:07:09
Dark Count =  4.6 


Time (GMT)  Wavelength (Ang)  Step Number  Raw Counts  Counts/Second

  247.52        2950.00           1222          47.00       184.83
  247.59        2950.25           1226          54.00       215.35
  247.62        2950.50           1229          59.00       237.14
  247.65        2950.75           1232          49.00       193.55
  247.68        2951.00           1236          54.00       215.35
  247.72        2951.25           1239          52.00       206.63
  247.75        2951.50           1242          54.00       215.35
  247.78        2951.75           1246          49.00       193.55
  247.81        2952.00           1249          46.00       180.47
  247.84        2952.25           1252          47.00       184.83
  247.87        2952.50           1256          50.00       197.91
  247.90        2952.75           1259          42.00       163.03
  247.93        2953.00           1262          42.00       163.03
  247.96        2953.25           1266          50.00       197.91
  247.99        2953.50           1269          52.00       206.63
  248.03        2953.75           1272          55.00       219.71
  248.06        2954.00           1276          50.00       197.91
  248.09        2954.25           1279          50.00       197.91
  248.12        2954.50           1282          51.00       202.27
  248.15        2954.75           1286          51.00       202.27
  248.18        2955.00           1289          55.00       219.71
  248.21        2955.25           1292          50.00       197.91
  248.24        2955.50           1296          51.00       202.27
  248.27        2955.75           1299          49.00       193.55
  248.31        2956.00           1302          50.00       197.91
  248.34        2956.25           1306          52.00       206.63
  248.37        2956.50           1309          56.00       224.06
  248.40        2956.75           1312          50.00       197.91
  248.43        2957.00           1316          46.00       180.47
  248.46        2957.25           1319          47.00       184.83
  248.49        2957.50           1322          50.00       197.91
  248.52        2957.75           1326          57.00       228.42
  248.55        2958.00           1329          47.00       184.83
  248.58        2958.25           1332          47.00       184.83
  248.61        2958.50           1336          49.00       193.55
  248.64        2958.75           1339          60.00       241.50
  248.67        2959.00           1342          48.00       189.19
  248.70        2959.25           1346          55.00       219.71
  248.74        2959.50           1349          57.00       228.42
  248.77        2959.75           1352          55.00       219.71
  248.80        2960.00           1356          85.00       350.48
  248.83        2960.25           1359         103.00       428.95
  248.86        2960.50           1362         131.00       551.01
  248.89        2960.75           1366         170.00       721.03
  248.92        2961.00           1369         203.00       864.89
  248.95        2961.25           1372         241.00      1030.55
  248.98        2961.50           1376         288.00      1235.44
  249.02        2961.75           1379         427.00      1841.43
  249.05        2962.00           1382         951.00      4126.06
  249.08        2962.25           1386        2263.00      9847.72
  249.11        2962.50           1389        3330.00     14502.39
  249.14        2962.75           1392        4499.00     19603.50
  249.17        2963.00           1396        5922.00     25815.10
  249.20        2963.25           1399        7031.00     30657.65
  249.23        2963.50           1402        8218.00     35842.36
  249.26        2963.75           1406        9811.00     42802.98
  249.30        2964.00           1409       10905.00     47584.89
  249.33        2964.25           1412       12154.00     53045.99
  249.36        2964.50           1416       13863.00     60521.30
  249.39        2964.75           1419       15066.00     65785.33
  249.42        2965.00           1422       16283.00     71112.32
  249.45        2965.25           1426       17934.00     78341.72
  249.48        2965.50           1429       19115.00     83515.01
  249.51        2965.75           1432       20161.00     88098.28
  249.54        2966.00           1436       21842.00     95466.58
  249.57        2966.25           1439       22928.00    100228.60
  249.60        2966.50           1442       23878.00    104395.30
  249.63        2966.75           1446       24806.00    108466.60
  249.67        2967.00           1449       25112.00    109809.30
  249.70        2967.25           1452       25326.00    110748.40
  249.73        2967.50           1456       25137.00    109919.00
  249.76        2967.75           1459       25200.00    110195.40
  249.79        2968.00           1462       25056.00    109563.60
  249.82        2968.25           1466       24171.00    105680.70
  249.85        2968.50           1469       23131.00    101118.80
  249.88        2968.75           1472       22211.00     97084.44
  249.91        2969.00           1476       20598.00     90013.46
  249.94        2969.25           1479       19601.00     85644.35
  249.98        2969.50           1482       18551.00     81044.24
  250.01        2969.75           1486       16828.00     73498.41
  250.04        2970.00           1489       15794.00     68971.69
  250.07        2970.25           1492       14539.00     63479.10
  250.10        2970.50           1496       13006.00     56772.29
  250.13        2970.75           1499       11895.00     51913.40
  250.16        2971.00           1502       10770.00     46994.72
  250.19        2971.25           1506        9031.00     39394.40
  250.22        2971.50           1509        7889.00     34405.15
  250.26        2971.75           1513        6343.00     27653.27
  250.29        2972.00           1516        5160.00     22488.58
  250.32        2972.25           1519        4126.00     17975.69
  250.35        2972.50           1523        2668.00     11614.33
  250.38        2972.75           1526        1622.00      7052.06
  250.41        2973.00           1529         774.00      3354.30
  250.44        2973.25           1533         354.00      1523.17
  250.47        2973.50           1536         280.00      1200.57
  250.50        2973.75           1539         251.00      1074.14
  250.53        2974.00           1543         192.00       816.93
  250.56        2974.25           1546         161.00       681.79
  250.59        2974.50           1549         116.00       485.62
  250.63        2974.75           1553          85.00       350.48
  250.66        2975.00           1556          63.00       254.58
  250.69        2975.25           1559          59.00       237.14
  250.72        2975.50           1563          51.00       202.27
  250.75        2975.75           1566          47.00       184.83
  250.78        2976.00           1569          47.00       184.83
  250.81        2976.25           1573          54.00       215.35
  250.84        2976.50           1576          50.00       197.91
  250.87        2976.75           1579          52.00       206.63
  250.90        2977.00           1583          46.00       180.47
  250.93        2977.25           1586          48.00       189.19
  250.96        2977.50           1590          48.00       189.19
  250.99        2977.75           1593          43.00       167.39
  251.03        2978.00           1596          39.00       149.96
  251.06        2978.25           1600          45.00       176.11
  251.09        2978.50           1603          41.00       158.68
  251.12        2978.75           1606          48.00       189.19
  251.15        2979.00           1610          40.00       154.32
  251.18        2979.25           1613          43.00       167.39
  251.21        2979.50           1616          43.00       167.39
  251.24        2979.75           1620          45.00       176.11
  251.27        2980.00           1623          47.00       184.83
  251.30        2980.25           1626          49.00       193.55
  251.33        2980.50           1630          47.00       184.83
  251.36        2980.75           1633          50.00       197.91
  251.39        2981.00           1637          53.00       210.99
  251.43        2981.25           1640          48.00       189.19
  251.46        2981.50           1643          47.00       184.83
  251.49        2981.75           1647          50.00       197.91
  251.52        2982.00           1650          45.00       176.11
  251.55        2982.25           1653          44.00       171.75
  251.58        2982.50           1657          45.00       176.11
  251.61        2982.75           1660          40.00       154.32
  251.64        2983.00           1663          41.00       158.68
  251.67        2983.25           1667          44.00       171.75
  251.70        2983.50           1670          44.00       171.75
  251.73        2983.75           1673          48.00       189.19
  251.76        2984.00           1677          46.00       180.47
HS scan finished at 04:11:59
end
************************************************************
  HS Scan of (1) Internal mercury lamp
************************************************************
Integration time is 0.2294 seconds per sample
dh251018Manchester 53.47 2.23 2.804185pr1000
************************************************************
Dead Time -------------------------  3E-08 
Number of Cycles Used -------------  4 
Starting Wavelength (Angstroms) ---  2950 
Final Wavelength (Angstoms) -------  2984 
Wavelength Increment (Angstroms) --  .25 
Filter Wheel #1 Position ---------- (1) Ground quartz diffuser (ND=2.32)
Filter Wheel #2 Position ---------- (1) Neutral Density 0.494



************************************************************
HS scan start time = 17:42:06
Dark Count =  5.1 


Time (GMT)  Wavelength (Ang)  Step Number  Raw Counts  Counts/Second

 1062.48        2950.00           1222          46.00       178.29
 1062.55        2950.25           1226          50.00       195.73
 1062.58        2950.50           1229          46.00       178.29
 1062.61        2950.75           1232          48.00       187.01
 1062.64        2951.00           1236          46.00       178.29
 1062.67        2951.25           1239          52.00       204.45
 1062.70        2951.50           1242          47.00       182.65
 1062.73        2951.75           1246          48.00       187.01
 1062.76        2952.00           1249          46.00       178.29
 1062.79        2952.25           1252          51.00       200.09
 1062.82        2952.50           1256          52.00       204.45
 1062.85        2952.75           1259          44.00       169.57
 1062.89        2953.00           1262          50.00       195.73
 1062.92        2953.25           1266          50.00       195.73
 1062.95        2953.50           1269          43.00       165.21
 1062.98        2953.75           1272          50.00       195.73
 1063.01        2954.00           1276          50.00       195.73
 1063.04        2954.25           1279          49.00       191.37
 1063.07        2954.50           1282          51.00       200.09
 1063.10        2954.75           1286          45.00       173.93
 1063.14        2955.00           1289          59.00       234.96
 1063.17        2955.25           1292          51.00       200.09
 1063.20        2955.50           1296          48.00       187.01
 1063.23        2955.75           1299          46.00       178.29
 1063.26        2956.00           1302          55.00       217.53
 1063.29        2956.25           1306          51.00       200.09
 1063.32        2956.50           1309          57.00       226.24
 1063.35        2956.75           1312          49.00       191.37
 1063.38        2957.00           1316          42.00       160.86
 1063.41        2957.25           1319          49.00       191.37
 1063.44        2957.50           1322          54.00       213.17
 1063.48        2957.75           1326          48.00       187.01
 1063.51        2958.00           1329          48.00       187.01
 1063.54        2958.25           1332          56.00       221.88
 1063.57        2958.50           1336          51.00       200.09
 1063.60        2958.75           1339          49.00       191.37
 1063.63        2959.00           1342          50.00       195.73
 1063.66        2959.25           1346          50.00       195.73
 1063.69        2959.50           1349          50.00       195.73
 1063.72        2959.75           1352          54.00       213.17
 1063.75        2960.00           1356          76.00       309.07
 1063.78        2960.25           1359          97.00       400.62
 1063.81        2960.50           1362         115.00       479.08
 1063.85        2960.75           1366         160.00       675.25
 1063.88        2961.00           1369         181.00       766.80
 1063.91        2961.25           1372         225.00       958.62
 1063.94        2961.50           1376         276.00      1180.95
 1063.97        2961.75           1379         426.00      1834.89
 1064.00        2962.00           1382         939.00      4071.55
 1064.03        2962.25           1386        2357.00     10255.55
 1064.06        2962.50           1389        3439.00     14975.78
 1064.09        2962.75           1392        4604.00     20059.58
 1064.12        2963.00           1396        6099.00     26585.71
 1064.15        2963.25           1399        7122.00     31052.89
 1064.19        2963.50           1402        8230.00     35892.60
 1064.22        2963.75           1406        9856.00     42997.46
 1064.25        2964.00           1409       10946.00     47761.94
 1064.28        2964.25           1412       12167.00     53100.66
 1064.31        2964.50           1416       13761.00     60072.86
 1064.34        2964.75           1419       14878.00     64960.39
 1064.37        2965.00           1422       16206.00     70773.04
 1064.40        2965.25           1426       17627.00     76995.00
 1064.43        2965.50           1429       18883.00     82496.43
 1064.46        2965.75           1432       20088.00     87776.18
 1064.50        2966.00           1436       21526.00     94079.02
 1064.53        2966.25           1439       22728.00     99349.29
 1064.56        2966.50           1442       23809.00    104090.50
 1064.59        2966.75           1446       24762.00    108271.40
 1064.62        2967.00           1449       24817.00    108512.70
 1064.65        2967.25           1452       24944.00    109069.90
 1064.68        2967.50           1456       24989.00    109267.40
 1064.71        2967.75           1459       24920.00    108964.60
 1064.74        2968.00           1462       24861.00    108705.70
 1064.78        2968.25           1466       23998.00    104919.50
 1064.81        2968.50           1469       22984.00    100472.00
 1064.84        2968.75           1472       21974.00     96043.12
 1064.87        2969.00           1476       20546.00     89783.36
 1064.90        2969.25           1479       19426.00     84875.39
 1064.93        2969.50           1482       18257.00     79754.25
 1064.96        2969.75           1486       16975.00     74139.88
 1064.99        2970.00           1489       15645.00     68317.30
 1065.02        2970.25           1492       14281.00     62347.99
 1065.05        2970.50           1496       12938.00     56472.67
 1065.09        2970.75           1499       11724.00     51163.48
 1065.12        2971.00           1502       10565.00     46096.40
 1065.15        2971.25           1506        9031.00     39392.21
 1065.18        2971.50           1509        7801.00     34018.57
 1065.21        2971.75           1513        6150.00     26808.39
 1065.24        2972.00           1516        5149.00     22438.38
 1065.27        2972.25           1519        3993.00     17393.12
 1065.30        2972.50           1523        2528.00     11001.45
 1065.33        2972.75           1526        1567.00      6810.02
 1065.36        2973.00           1529         739.00      3199.52
 1065.40        2973.25           1533         346.00      1486.12
 1065.43        2973.50           1536         283.00      1211.47
 1065.46        2973.75           1539         236.00      1006.57
 1065.49        2974.00           1543         196.00       832.19
 1065.52        2974.25           1546         153.00       644.74
 1065.55        2974.50           1549         130.00       544.47
 1065.58        2974.75           1553          89.00       365.74
 1065.61        2975.00           1556          62.00       248.04
 1065.64        2975.25           1559          48.00       187.01
 1065.67        2975.50           1563          49.00       191.37
 1065.71        2975.75           1566          44.00       169.57
 1065.74        2976.00           1569          48.00       187.01
 1065.77        2976.25           1573          47.00       182.65
 1065.80        2976.50           1576          46.00       178.29
 1065.83        2976.75           1579          50.00       195.73
 1065.86        2977.00           1583          56.00       221.88
 1065.89        2977.25           1586          44.00       169.57
 1065.92        2977.50           1590          47.00       182.65
 1065.95        2977.75           1593          49.00       191.37
 1065.98        2978.00           1596          49.00       191.37
 1066.01        2978.25           1600          45.00       173.93
 1066.04        2978.50           1603          44.00       169.57
 1066.08        2978.75           1606          49.00       191.37
 1066.11        2979.00           1610          46.00       178.29
 1066.14        2979.25           1613          46.00       178.29
 1066.17        2979.50           1616          46.00       178.29
 1066.20        2979.75           1620          45.00       173.93
 1066.23        2980.00           1623          48.00       187.01
 1066.26        2980.25           1626          46.00       178.29
 1066.29        2980.50           1630          50.00       195.73
 1066.32        2980.75           1633          41.00       156.50
 1066.35        2981.00           1637          42.00       160.86
 1066.38        2981.25           1640          49.00       191.37
 1066.41        2981.50           1643          44.00       169.57
 1066.45        2981.75           1647          52.00       204.45
 1066.48        2982.00           1650          42.00       160.86
 1066.51        2982.25           1653          48.00       187.01
 1066.54        2982.50           1657          45.00       173.93
 1066.57        2982.75           1660          42.00       160.86
 1066.60        2983.00           1663          46.00       178.29
 1066.63        2983.25           1667          42.00       160.86
 1066.66        2983.50           1670          44.00       169.57
 1066.69        2983.75           1673          48.00       187.01
 1066.72        2984.00           1677          50.00       195.73
HS scan finished at 17:46:56
end
