************************************************************
  HS Scan of (1) Internal mercury lamp
************************************************************
Integration time is 0.2294 seconds per sample
dh211017Manchester 53.47 2.23 2.804185pr1000
************************************************************
Dead Time -------------------------  3E-08 
Number of Cycles Used -------------  4 
Starting Wavelength (Angstroms) ---  2950 
Final Wavelength (Angstoms) -------  2984 
Wavelength Increment (Angstroms) --  .25 
Filter Wheel #1 Position ---------- (1) Ground quartz diffuser (ND=2.32)
Filter Wheel #2 Position ---------- (1) Neutral Density 0.494



************************************************************
HS scan start time = 03:59:40
Dark Count =  6.5 


Time (GMT)  Wavelength (Ang)  Step Number  Raw Counts  Counts/Second

  240.03        2950.00           1222          66.00       259.37
  240.10        2950.25           1226          68.00       268.09
  240.13        2950.50           1229          60.00       233.22
  240.16        2950.75           1232          71.00       281.17
  240.19        2951.00           1236          67.00       263.73
  240.22        2951.25           1239          69.00       272.45
  240.25        2951.50           1242          74.00       294.25
  240.29        2951.75           1246          72.00       285.53
  240.32        2952.00           1249          71.00       281.17
  240.35        2952.25           1252          72.00       285.53
  240.38        2952.50           1256          65.00       255.02
  240.41        2952.75           1259          64.00       250.66
  240.44        2953.00           1262          70.00       276.81
  240.47        2953.25           1266          67.00       263.73
  240.50        2953.50           1269          86.00       346.56
  240.53        2953.75           1272          74.00       294.25
  240.56        2954.00           1276          73.00       289.89
  240.60        2954.25           1279          72.00       285.53
  240.63        2954.50           1282          67.00       263.73
  240.66        2954.75           1286          76.00       302.97
  240.69        2955.00           1289          73.00       289.89
  240.72        2955.25           1292          69.00       272.45
  240.75        2955.50           1296          73.00       289.89
  240.78        2955.75           1299          62.00       241.94
  240.81        2956.00           1302          65.00       255.02
  240.84        2956.25           1306          59.00       228.86
  240.87        2956.50           1309          68.00       268.09
  240.90        2956.75           1312          67.00       263.73
  240.93        2957.00           1316          65.00       255.02
  240.96        2957.25           1319          64.00       250.66
  240.99        2957.50           1322          76.00       302.97
  241.02        2957.75           1326          75.00       298.61
  241.06        2958.00           1329          65.00       255.02
  241.09        2958.25           1332          83.00       333.48
  241.12        2958.50           1336          69.00       272.45
  241.15        2958.75           1339          70.00       276.81
  241.18        2959.00           1342          59.00       228.86
  241.21        2959.25           1346          63.00       246.30
  241.24        2959.50           1349          71.00       281.17
  241.27        2959.75           1352          74.00       294.25
  241.30        2960.00           1356         106.00       433.75
  241.33        2960.25           1359         134.00       555.81
  241.36        2960.50           1362         156.00       651.71
  241.39        2960.75           1366         202.00       852.24
  241.43        2961.00           1369         249.00      1057.14
  241.46        2961.25           1372         299.00      1275.11
  241.49        2961.50           1376         355.00      1519.25
  241.52        2961.75           1379         426.00      1828.78
  241.55        2962.00           1382         673.00      2905.66
  241.58        2962.25           1386        1825.00      7929.09
  241.61        2962.50           1389        3321.00     14454.83
  241.64        2962.75           1392        4760.00     20734.34
  241.67        2963.00           1396        6881.00     29994.29
  241.70        2963.25           1399        8458.00     36882.55
  241.73        2963.50           1402        9827.00     42864.59
  241.77        2963.75           1406       11990.00     52320.51
  241.80        2964.00           1409       13550.00     59143.64
  241.83        2964.25           1412       15174.00     66249.68
  241.86        2964.50           1416       17588.00     76818.06
  241.89        2964.75           1419       19159.00     83699.44
  241.92        2965.00           1422       20606.00     90040.19
  241.95        2965.25           1426       22796.00     99641.35
  241.98        2965.50           1429       24219.00    105882.90
  242.01        2965.75           1432       25950.00    113478.50
  242.04        2966.00           1436       28013.00    122535.50
  242.08        2966.25           1439       29394.00    128601.10
  242.11        2966.50           1442       30843.00    134967.80
  242.14        2966.75           1446       32792.00    143535.20
  242.17        2967.00           1449       33449.00    146424.30
  242.20        2967.25           1452       34063.00    149124.70
  242.23        2967.50           1456       33992.00    148812.40
  242.26        2967.75           1459       33807.00    147998.70
  242.29        2968.00           1462       34011.00    148896.00
  242.32        2968.25           1466       33637.00    147251.10
  242.36        2968.50           1469       32715.00    143196.70
  242.39        2968.75           1472       31464.00    137697.10
  242.42        2969.00           1476       29327.00    128306.80
  242.45        2969.25           1479       27842.00    121784.60
  242.48        2969.50           1482       26204.00    114593.40
  242.51        2969.75           1486       24168.00    105659.20
  242.54        2970.00           1489       22609.00     98821.31
  242.57        2970.25           1492       21072.00     92082.71
  242.60        2970.50           1496       19120.00     83528.58
  242.64        2970.75           1499       17446.00     76196.21
  242.67        2971.00           1502       15823.00     69090.31
  242.70        2971.25           1506       13770.00     60106.11
  242.73        2971.50           1509       12099.00     52797.16
  242.76        2971.75           1513       10148.00     44267.56
  242.79        2972.00           1516        8607.00     37533.52
  242.82        2972.25           1519        7067.00     30806.58
  242.85        2972.50           1523        5249.00     22868.78
  242.88        2972.75           1526        3767.00     16400.83
  242.91        2973.00           1529        2231.00      9699.86
  242.94        2973.25           1533         756.00      3267.54
  242.97        2973.50           1536         431.00      1850.58
  243.00        2973.75           1539         328.00      1401.54
  243.04        2974.00           1543         279.00      1187.92
  243.07        2974.25           1546         223.00       943.79
  243.10        2974.50           1549         186.00       782.49
  243.13        2974.75           1553         131.00       542.73
  243.16        2975.00           1556         116.00       477.34
  243.19        2975.25           1559          79.00       316.04
  243.22        2975.50           1563          74.00       294.25
  243.25        2975.75           1566          74.00       294.25
  243.28        2976.00           1569          74.00       294.25
  243.31        2976.25           1573          67.00       263.73
  243.34        2976.50           1576          79.00       316.04
  243.37        2976.75           1579          59.00       228.86
  243.40        2977.00           1583          64.00       250.66
  243.44        2977.25           1586          58.00       224.50
  243.47        2977.50           1590          63.00       246.30
  243.50        2977.75           1593          57.00       220.14
  243.53        2978.00           1596          62.00       241.94
  243.56        2978.25           1600          61.00       237.58
  243.59        2978.50           1603          70.00       276.81
  243.62        2978.75           1606          66.00       259.37
  243.65        2979.00           1610          60.00       233.22
  243.68        2979.25           1613          62.00       241.94
  243.71        2979.50           1616          71.00       281.17
  243.74        2979.75           1620          60.00       233.22
  243.77        2980.00           1623          61.00       237.58
  243.80        2980.25           1626          66.00       259.37
  243.83        2980.50           1630          57.00       220.14
  243.87        2980.75           1633          68.00       268.09
  243.90        2981.00           1637          65.00       255.02
  243.93        2981.25           1640          60.00       233.22
  243.96        2981.50           1643          70.00       276.81
  243.99        2981.75           1647          61.00       237.58
  244.02        2982.00           1650          65.00       255.02
  244.05        2982.25           1653          54.00       207.06
  244.08        2982.50           1657          60.00       233.22
  244.11        2982.75           1660          66.00       259.37
  244.14        2983.00           1663          59.00       228.86
  244.17        2983.25           1667          56.00       215.78
  244.20        2983.50           1670          59.00       228.86
  244.24        2983.75           1673          51.00       193.99
  244.27        2984.00           1677          51.00       193.99
HS scan finished at 04:04:29
end
************************************************************
  HS Scan of (1) Internal mercury lamp
************************************************************
Integration time is 0.2294 seconds per sample
dh211017Manchester 53.47 2.23 2.804185pr1000
************************************************************
Dead Time -------------------------  3E-08 
Number of Cycles Used -------------  4 
Starting Wavelength (Angstroms) ---  2950 
Final Wavelength (Angstoms) -------  2984 
Wavelength Increment (Angstroms) --  .25 
Filter Wheel #1 Position ---------- (1) Ground quartz diffuser (ND=2.32)
Filter Wheel #2 Position ---------- (1) Neutral Density 0.494



************************************************************
HS scan start time = 18:12:05
Dark Count =  6.9 


Time (GMT)  Wavelength (Ang)  Step Number  Raw Counts  Counts/Second

 1092.46        2950.00           1222          65.00       253.27
 1092.52        2950.25           1226          74.00       292.50
 1092.55        2950.50           1229          76.00       301.22
 1092.58        2950.75           1232          63.00       244.55
 1092.62        2951.00           1236          68.00       266.35
 1092.65        2951.25           1239          65.00       253.27
 1092.68        2951.50           1242          68.00       266.35
 1092.71        2951.75           1246          65.00       253.27
 1092.74        2952.00           1249          83.00       331.74
 1092.77        2952.25           1252          74.00       292.50
 1092.80        2952.50           1256          70.00       275.07
 1092.83        2952.75           1259          79.00       314.30
 1092.86        2953.00           1262          64.00       248.91
 1092.89        2953.25           1266          73.00       288.15
 1092.92        2953.50           1269          68.00       266.35
 1092.95        2953.75           1272          79.00       314.30
 1092.98        2954.00           1276          72.00       283.79
 1093.02        2954.25           1279          63.00       244.55
 1093.05        2954.50           1282          78.00       309.94
 1093.08        2954.75           1286          70.00       275.07
 1093.11        2955.00           1289          72.00       283.79
 1093.14        2955.25           1292          63.00       244.55
 1093.17        2955.50           1296          69.00       270.71
 1093.20        2955.75           1299          65.00       253.27
 1093.23        2956.00           1302          70.00       275.07
 1093.26        2956.25           1306          65.00       253.27
 1093.29        2956.50           1309          62.00       240.19
 1093.32        2956.75           1312          75.00       296.86
 1093.35        2957.00           1316          68.00       266.35
 1093.38        2957.25           1319          70.00       275.07
 1093.42        2957.50           1322          65.00       253.27
 1093.45        2957.75           1326          73.00       288.15
 1093.48        2958.00           1329          75.00       296.86
 1093.51        2958.25           1332          70.00       275.07
 1093.54        2958.50           1336          67.00       261.99
 1093.57        2958.75           1339          76.00       301.22
 1093.60        2959.00           1342          70.00       275.07
 1093.63        2959.25           1346          79.00       314.30
 1093.66        2959.50           1349          89.00       357.89
 1093.69        2959.75           1352          94.00       379.69
 1093.72        2960.00           1356         122.00       501.75
 1093.75        2960.25           1359         160.00       667.41
 1093.78        2960.50           1362         174.00       728.44
 1093.81        2960.75           1366         245.00      1037.96
 1093.84        2961.00           1369         281.00      1194.90
 1093.87        2961.25           1372         329.00      1404.16
 1093.91        2961.50           1376         391.00      1674.45
 1093.94        2961.75           1379         549.00      2363.29
 1093.97        2962.00           1382        1172.00      5079.68
 1094.00        2962.25           1386        2781.00     12097.24
 1094.03        2962.50           1389        4298.00     18716.26
 1094.06        2962.75           1392        5911.00     25757.04
 1094.09        2963.00           1396        7925.00     34552.36
 1094.12        2963.25           1399        9463.00     41272.08
 1094.15        2963.50           1402       11069.00     48291.80
 1094.19        2963.75           1406       13221.00     57702.68
 1094.22        2964.00           1409       14923.00     65149.44
 1094.25        2964.25           1412       16519.00     72135.46
 1094.28        2964.50           1416       18406.00     80399.00
 1094.31        2964.75           1419       19970.00     87251.18
 1094.34        2965.00           1422       21540.00     94132.50
 1094.37        2965.25           1426       23785.00    103977.30
 1094.40        2965.50           1429       25323.00    110725.10
 1094.43        2965.75           1432       26870.00    117515.10
 1094.47        2966.00           1436       28999.00    126864.20
 1094.50        2966.25           1439       30467.00    133313.70
 1094.53        2966.50           1442       31924.00    139717.40
 1094.56        2966.75           1446       33468.00    146506.10
 1094.59        2967.00           1449       33701.00    147530.80
 1094.62        2967.25           1452       33848.00    148177.30
 1094.65        2967.50           1456       33858.00    148221.30
 1094.68        2967.75           1459       33880.00    148318.10
 1094.71        2968.00           1462       33677.00    147425.20
 1094.75        2968.25           1466       32789.00    143520.30
 1094.78        2968.50           1469       31221.00    136627.30
 1094.81        2968.75           1472       29648.00    129715.20
 1094.84        2969.00           1476       27772.00    121475.50
 1094.87        2969.25           1479       26100.00    114135.10
 1094.90        2969.50           1482       24559.00    107372.80
 1094.93        2969.75           1486       22361.00     97732.07
 1094.96        2970.00           1489       20784.00     90818.59
 1094.99        2970.25           1492       19295.00     84293.54
 1095.02        2970.50           1496       17428.00     76115.63
 1095.05        2970.75           1499       15900.00     69425.62
 1095.09        2971.00           1502       14441.00     63040.21
 1095.12        2971.25           1506       12528.00     54671.55
 1095.15        2971.50           1509       10835.00     47268.82
 1095.18        2971.75           1513        8658.00     37754.60
 1095.21        2972.00           1516        7051.00     30734.95
 1095.24        2972.25           1519        5579.00     24307.61
 1095.27        2972.50           1523        3577.00     15570.04
 1095.30        2972.75           1526        2166.00      9414.60
 1095.33        2973.00           1529         966.00      4181.43
 1095.36        2973.25           1533         422.00      1809.60
 1095.39        2973.50           1536         315.00      1343.12
 1095.42        2973.75           1539         266.00      1129.51
 1095.46        2974.00           1543         211.00       889.74
 1095.49        2974.25           1546         147.00       610.73
 1095.52        2974.50           1549         120.00       493.03
 1095.55        2974.75           1553          92.00       370.97
 1095.58        2975.00           1556          80.00       318.66
 1095.61        2975.25           1559          66.00       257.63
 1095.64        2975.50           1563          65.00       253.27
 1095.67        2975.75           1566          65.00       253.27
 1095.70        2976.00           1569          75.00       296.86
 1095.73        2976.25           1573          72.00       283.79
 1095.76        2976.50           1576          55.00       209.68
 1095.79        2976.75           1579          65.00       253.27
 1095.82        2977.00           1583          64.00       248.91
 1095.86        2977.25           1586          60.00       231.48
 1095.89        2977.50           1590          63.00       244.55
 1095.92        2977.75           1593          64.00       248.91
 1095.95        2978.00           1596          63.00       244.55
 1095.98        2978.25           1600          66.00       257.63
 1096.01        2978.50           1603          64.00       248.91
 1096.04        2978.75           1606          63.00       244.55
 1096.07        2979.00           1610          59.00       227.12
 1096.10        2979.25           1613          75.00       296.86
 1096.13        2979.50           1616          68.00       266.35
 1096.16        2979.75           1620          68.00       266.35
 1096.19        2980.00           1623          66.00       257.63
 1096.22        2980.25           1626          61.00       235.83
 1096.25        2980.50           1630          60.00       231.48
 1096.28        2980.75           1633          57.00       218.40
 1096.32        2981.00           1637          62.00       240.19
 1096.35        2981.25           1640          70.00       275.07
 1096.38        2981.50           1643          69.00       270.71
 1096.41        2981.75           1647          65.00       253.27
 1096.44        2982.00           1650          68.00       266.35
 1096.47        2982.25           1653          60.00       231.48
 1096.50        2982.50           1657          63.00       244.55
 1096.53        2982.75           1660          66.00       257.63
 1096.56        2983.00           1663          64.00       248.91
 1096.59        2983.25           1667          64.00       248.91
 1096.62        2983.50           1670          58.00       222.76
 1096.66        2983.75           1673          60.00       231.48
 1096.69        2984.00           1677          59.00       227.12
HS scan finished at 18:16:54
end
