************************************************************
  HS Scan of (1) Internal mercury lamp
************************************************************
Integration time is 0.2294 seconds per sample
dh171018Manchester 53.47 2.23 2.804185pr1000
************************************************************
Dead Time -------------------------  3E-08 
Number of Cycles Used -------------  4 
Starting Wavelength (Angstroms) ---  2950 
Final Wavelength (Angstoms) -------  2984 
Wavelength Increment (Angstroms) --  .25 
Filter Wheel #1 Position ---------- (1) Ground quartz diffuser (ND=2.32)
Filter Wheel #2 Position ---------- (1) Neutral Density 0.494



************************************************************
HS scan start time = 03:50:49
Dark Count =  7.6 


Time (GMT)  Wavelength (Ang)  Step Number  Raw Counts  Counts/Second

  231.18        2950.00           1222          55.00       206.63
  231.24        2950.25           1226          46.00       167.39
  231.28        2950.50           1229          54.00       202.27
  231.31        2950.75           1232          51.00       189.19
  231.34        2951.00           1236          52.00       193.55
  231.37        2951.25           1239          53.00       197.91
  231.40        2951.50           1242          50.00       184.83
  231.43        2951.75           1246          45.00       163.03
  231.46        2952.00           1249          50.00       184.83
  231.49        2952.25           1252          48.00       176.11
  231.53        2952.50           1256          45.00       163.03
  231.56        2952.75           1259          54.00       202.27
  231.59        2953.00           1262          55.00       206.63
  231.62        2953.25           1266          54.00       202.27
  231.65        2953.50           1269          48.00       176.11
  231.68        2953.75           1272          50.00       184.83
  231.71        2954.00           1276          48.00       176.11
  231.74        2954.25           1279          44.00       158.68
  231.77        2954.50           1282          54.00       202.27
  231.80        2954.75           1286          51.00       189.19
  231.83        2955.00           1289          57.00       215.35
  231.86        2955.25           1292          46.00       167.39
  231.90        2955.50           1296          48.00       176.11
  231.93        2955.75           1299          53.00       197.91
  231.96        2956.00           1302          57.00       215.35
  231.99        2956.25           1306          46.00       167.39
  232.02        2956.50           1309          48.00       176.11
  232.05        2956.75           1312          49.00       180.47
  232.08        2957.00           1316          55.00       206.63
  232.11        2957.25           1319          47.00       171.75
  232.14        2957.50           1322          50.00       184.83
  232.17        2957.75           1326          50.00       184.83
  232.20        2958.00           1329          49.00       180.47
  232.24        2958.25           1332          47.00       171.75
  232.27        2958.50           1336          51.00       189.19
  232.30        2958.75           1339          47.00       171.75
  232.33        2959.00           1342          52.00       193.55
  232.36        2959.25           1346          51.00       189.19
  232.39        2959.50           1349          52.00       193.55
  232.42        2959.75           1352          66.00       254.58
  232.45        2960.00           1356          74.00       289.45
  232.48        2960.25           1359         103.00       415.87
  232.51        2960.50           1362         147.00       607.68
  232.54        2960.75           1366         177.00       738.46
  232.57        2961.00           1369         198.00       830.01
  232.61        2961.25           1372         248.00      1047.98
  232.64        2961.50           1376         282.00      1196.21
  232.67        2961.75           1379         335.00      1427.26
  232.70        2962.00           1382         543.00      2334.08
  232.73        2962.25           1386        1484.00      6437.16
  232.76        2962.50           1389        2594.00     11278.44
  232.79        2962.75           1392        3657.00     15916.05
  232.82        2963.00           1396        5220.00     22737.39
  232.85        2963.25           1399        6324.00     27557.21
  232.88        2963.50           1402        7617.00     33203.94
  232.91        2963.75           1406        9148.00     39892.53
  232.95        2964.00           1409       10336.00     45084.49
  232.98        2964.25           1412       11562.00     50444.20
  233.01        2964.50           1416       13230.00     57738.99
  233.04        2964.75           1419       14435.00     63010.89
  233.07        2965.00           1422       15568.00     67969.31
  233.10        2965.25           1426       17154.00     74912.73
  233.13        2965.50           1429       18240.00     79668.82
  233.16        2965.75           1432       19494.00     85162.38
  233.19        2966.00           1436       20973.00     91643.94
  233.23        2966.25           1439       21904.00     95725.25
  233.26        2966.50           1442       23203.00    101421.50
  233.29        2966.75           1446       24703.00    108001.50
  233.32        2967.00           1449       25265.00    110467.50
  233.35        2967.25           1452       25542.00    111683.10
  233.38        2967.50           1456       25395.00    111038.00
  233.41        2967.75           1459       25375.00    110950.20
  233.44        2968.00           1462       25369.00    110923.90
  233.47        2968.25           1466       25190.00    110138.40
  233.51        2968.50           1469       24354.00    106470.30
  233.54        2968.75           1472       23208.00    101443.40
  233.57        2969.00           1476       21646.00     94594.12
  233.60        2969.25           1479       20506.00     89597.09
  233.63        2969.50           1482       19257.00     84123.99
  233.66        2969.75           1486       17740.00     77478.93
  233.69        2970.00           1489       16664.00     72767.22
  233.72        2970.25           1492       15367.00     67089.56
  233.75        2970.50           1496       14012.00     61160.07
  233.78        2970.75           1499       12784.00     55788.15
  233.81        2971.00           1502       11665.00     50894.57
  233.85        2971.25           1506       10056.00     43860.64
  233.88        2971.50           1509        8911.00     38856.95
  233.91        2971.75           1513        7472.00     32570.61
  233.94        2972.00           1516        6213.00     27072.55
  233.97        2972.25           1519        4985.00     21711.61
  234.00        2972.50           1523        3514.00     15292.11
  234.03        2972.75           1526        2368.00     10292.63
  234.06        2973.00           1529        1269.00      5499.60
  234.09        2973.25           1533         428.00      1832.71
  234.12        2973.50           1536         278.00      1178.77
  234.15        2973.75           1539         217.00       912.84
  234.18        2974.00           1543         174.00       725.39
  234.22        2974.25           1546         144.00       594.61
  234.25        2974.50           1549         109.00       442.03
  234.28        2974.75           1553          68.00       263.30
  234.31        2975.00           1556          63.00       241.50
  234.34        2975.25           1559          53.00       197.91
  234.37        2975.50           1563          51.00       189.19
  234.40        2975.75           1566          62.00       237.14
  234.43        2976.00           1569          57.00       215.35
  234.46        2976.25           1573          45.00       163.03
  234.49        2976.50           1576          47.00       171.75
  234.52        2976.75           1579          49.00       180.47
  234.55        2977.00           1583          50.00       184.83
  234.58        2977.25           1586          45.00       163.03
  234.61        2977.50           1590          49.00       180.47
  234.64        2977.75           1593          48.00       176.11
  234.68        2978.00           1596          51.00       189.19
  234.71        2978.25           1600          42.00       149.96
  234.74        2978.50           1603          52.00       193.55
  234.77        2978.75           1606          48.00       176.11
  234.80        2979.00           1610          47.00       171.75
  234.83        2979.25           1613          55.00       206.63
  234.86        2979.50           1616          48.00       176.11
  234.89        2979.75           1620          52.00       193.55
  234.92        2980.00           1623          41.00       145.60
  234.95        2980.25           1626          44.00       158.68
  234.98        2980.50           1630          46.00       167.39
  235.02        2980.75           1633          51.00       189.19
  235.05        2981.00           1637          45.00       163.03
  235.08        2981.25           1640          41.00       145.60
  235.11        2981.50           1643          59.00       224.06
  235.14        2981.75           1647          45.00       163.03
  235.17        2982.00           1650          44.00       158.68
  235.20        2982.25           1653          46.00       167.39
  235.23        2982.50           1657          42.00       149.96
  235.26        2982.75           1660          52.00       193.55
  235.29        2983.00           1663          52.00       193.55
  235.32        2983.25           1667          48.00       176.11
  235.35        2983.50           1670          41.00       145.60
  235.38        2983.75           1673          48.00       176.11
  235.41        2984.00           1677          41.00       145.60
HS scan finished at 03:55:38
end
************************************************************
  HS Scan of (1) Internal mercury lamp
************************************************************
Integration time is 0.2294 seconds per sample
dh171018Manchester 53.47 2.23 2.804185pr1000
************************************************************
Dead Time -------------------------  3E-08 
Number of Cycles Used -------------  4 
Starting Wavelength (Angstroms) ---  2950 
Final Wavelength (Angstoms) -------  2984 
Wavelength Increment (Angstroms) --  .25 
Filter Wheel #1 Position ---------- (1) Ground quartz diffuser (ND=2.32)
Filter Wheel #2 Position ---------- (1) Neutral Density 0.494



************************************************************
HS scan start time = 18:12:04
Dark Count =  6.3 


Time (GMT)  Wavelength (Ang)  Step Number  Raw Counts  Counts/Second

 1092.44        2950.00           1222          50.00       190.50
 1092.51        2950.25           1226          54.00       207.94
 1092.54        2950.50           1229          56.00       216.65
 1092.57        2950.75           1232          51.00       194.86
 1092.60        2951.00           1236          50.00       190.50
 1092.63        2951.25           1239          52.00       199.22
 1092.66        2951.50           1242          57.00       221.01
 1092.69        2951.75           1246          53.00       203.58
 1092.72        2952.00           1249          47.00       177.42
 1092.75        2952.25           1252          55.00       212.29
 1092.78        2952.50           1256          43.00       159.98
 1092.81        2952.75           1259          51.00       194.86
 1092.84        2953.00           1262          59.00       229.73
 1092.88        2953.25           1266          54.00       207.94
 1092.91        2953.50           1269          45.00       168.70
 1092.94        2953.75           1272          54.00       207.94
 1092.97        2954.00           1276          51.00       194.86
 1093.00        2954.25           1279          46.00       173.06
 1093.03        2954.50           1282          46.00       173.06
 1093.06        2954.75           1286          53.00       203.58
 1093.09        2955.00           1289          48.00       181.78
 1093.12        2955.25           1292          52.00       199.22
 1093.15        2955.50           1296          50.00       190.50
 1093.18        2955.75           1299          50.00       190.50
 1093.21        2956.00           1302          52.00       199.22
 1093.24        2956.25           1306          54.00       207.94
 1093.27        2956.50           1309          50.00       190.50
 1093.30        2956.75           1312          49.00       186.14
 1093.33        2957.00           1316          48.00       181.78
 1093.37        2957.25           1319          53.00       203.58
 1093.40        2957.50           1322          53.00       203.58
 1093.43        2957.75           1326          46.00       173.06
 1093.46        2958.00           1329          40.00       146.91
 1093.49        2958.25           1332          49.00       186.14
 1093.52        2958.50           1336          49.00       186.14
 1093.55        2958.75           1339          55.00       212.29
 1093.58        2959.00           1342          46.00       173.06
 1093.61        2959.25           1346          54.00       207.94
 1093.64        2959.50           1349          52.00       199.22
 1093.67        2959.75           1352          73.00       290.76
 1093.70        2960.00           1356          81.00       325.64
 1093.74        2960.25           1359         103.00       421.54
 1093.77        2960.50           1362         126.00       521.80
 1093.80        2960.75           1366         175.00       735.41
 1093.83        2961.00           1369         211.00       892.35
 1093.86        2961.25           1372         235.00       996.98
 1093.89        2961.50           1376         291.00      1241.11
 1093.92        2961.75           1379         460.00      1977.89
 1093.95        2962.00           1382         992.00      4297.42
 1093.98        2962.25           1386        2302.00     10010.42
 1094.01        2962.50           1389        3465.00     15083.98
 1094.04        2962.75           1392        4506.00     19626.64
 1094.07        2963.00           1396        6060.00     26410.19
 1094.10        2963.25           1399        7155.00     31191.77
 1094.13        2963.50           1402        8316.00     36263.06
 1094.17        2963.75           1406        9815.00     42813.02
 1094.20        2964.00           1409       11066.00     48281.30
 1094.23        2964.25           1412       12211.00     53287.82
 1094.26        2964.50           1416       13764.00     60080.73
 1094.29        2964.75           1419       15087.00     65869.80
 1094.32        2965.00           1422       16365.00     71463.86
 1094.35        2965.25           1426       17622.00     76967.84
 1094.38        2965.50           1429       18847.00     82333.46
 1094.41        2965.75           1432       20134.00     87972.49
 1094.44        2966.00           1436       21606.00     94424.46
 1094.48        2966.25           1439       22752.00     99449.28
 1094.51        2966.50           1442       24023.00    105023.90
 1094.54        2966.75           1446       24956.00    109117.30
 1094.57        2967.00           1449       25400.00    111065.60
 1094.60        2967.25           1452       25257.00    110438.10
 1094.63        2967.50           1456       25140.00    109924.70
 1094.66        2967.75           1459       25216.00    110258.20
 1094.69        2968.00           1462       25148.00    109959.80
 1094.72        2968.25           1466       24350.00    106458.50
 1094.76        2968.50           1469       23498.00    102721.00
 1094.79        2968.75           1472       22320.00     97554.92
 1094.82        2969.00           1476       20746.00     90654.66
 1094.85        2969.25           1479       19711.00     86118.90
 1094.88        2969.50           1482       18509.00     80852.81
 1094.91        2969.75           1486       17004.00     74261.60
 1094.94        2970.00           1489       15789.00     68942.36
 1094.97        2970.25           1492       14666.00     64027.41
 1095.00        2970.50           1496       13148.00     57385.98
 1095.03        2970.75           1499       11970.00     52233.92
 1095.07        2971.00           1502       10692.00     46646.32
 1095.10        2971.25           1506        9185.00     40059.89
 1095.13        2971.50           1509        7989.00     34834.56
 1095.16        2971.75           1513        6438.00     28060.67
 1095.19        2972.00           1516        5219.00     22738.70
 1095.22        2972.25           1519        4218.00     18369.75
 1095.25        2972.50           1523        2733.00     11890.47
 1095.28        2972.75           1526        1630.00      7079.53
 1095.31        2973.00           1529         766.00      3312.01
 1095.34        2973.25           1533         335.00      1432.93
 1095.37        2973.50           1536         237.00      1005.70
 1095.40        2973.75           1539         205.00       866.20
 1095.43        2974.00           1543         170.00       713.62
 1095.47        2974.25           1546         136.00       565.40
 1095.50        2974.50           1549         100.00       408.46
 1095.53        2974.75           1553          68.00       268.96
 1095.56        2975.00           1556          60.00       234.09
 1095.59        2975.25           1559          54.00       207.94
 1095.62        2975.50           1563          43.00       159.98
 1095.65        2975.75           1566          51.00       194.86
 1095.68        2976.00           1569          49.00       186.14
 1095.71        2976.25           1573          49.00       186.14
 1095.74        2976.50           1576          38.00       138.19
 1095.77        2976.75           1579          48.00       181.78
 1095.80        2977.00           1583          43.00       159.98
 1095.83        2977.25           1586          50.00       190.50
 1095.87        2977.50           1590          58.00       225.37
 1095.90        2977.75           1593          52.00       199.22
 1095.93        2978.00           1596          51.00       194.86
 1095.96        2978.25           1600          52.00       199.22
 1095.99        2978.50           1603          45.00       168.70
 1096.02        2978.75           1606          50.00       190.50
 1096.05        2979.00           1610          50.00       190.50
 1096.08        2979.25           1613          53.00       203.58
 1096.11        2979.50           1616          39.00       142.55
 1096.14        2979.75           1620          49.00       186.14
 1096.17        2980.00           1623          40.00       146.91
 1096.20        2980.25           1626          47.00       177.42
 1096.23        2980.50           1630          49.00       186.14
 1096.26        2980.75           1633          51.00       194.86
 1096.29        2981.00           1637          47.00       177.42
 1096.33        2981.25           1640          43.00       159.98
 1096.36        2981.50           1643          48.00       181.78
 1096.39        2981.75           1647          44.00       164.34
 1096.42        2982.00           1650          48.00       181.78
 1096.45        2982.25           1653          42.00       155.62
 1096.48        2982.50           1657          48.00       181.78
 1096.51        2982.75           1660          44.00       164.34
 1096.54        2983.00           1663          43.00       159.98
 1096.57        2983.25           1667          45.00       168.70
 1096.60        2983.50           1670          43.00       159.98
 1096.63        2983.75           1673          43.00       159.98
 1096.66        2984.00           1677          43.00       159.98
HS scan finished at 18:16:53
end
