************************************************************
  HS Scan of (1) Internal mercury lamp
************************************************************
Integration time is 0.2294 seconds per sample
dh251017Manchester 53.47 2.23 2.804185pr1000
************************************************************
Dead Time -------------------------  3E-08 
Number of Cycles Used -------------  4 
Starting Wavelength (Angstroms) ---  2950 
Final Wavelength (Angstoms) -------  2984 
Wavelength Increment (Angstroms) --  .25 
Filter Wheel #1 Position ---------- (1) Ground quartz diffuser (ND=2.32)
Filter Wheel #2 Position ---------- (1) Neutral Density 0.494



************************************************************
HS scan start time = 04:07:35
Dark Count =  6.9 


Time (GMT)  Wavelength (Ang)  Step Number  Raw Counts  Counts/Second

  247.95        2950.00           1222          72.00       283.79
  248.02        2950.25           1226          64.00       248.91
  248.05        2950.50           1229          65.00       253.27
  248.08        2950.75           1232          65.00       253.27
  248.11        2951.00           1236          61.00       235.83
  248.14        2951.25           1239          63.00       244.55
  248.17        2951.50           1242          61.00       235.83
  248.20        2951.75           1246          86.00       344.82
  248.23        2952.00           1249          69.00       270.71
  248.27        2952.25           1252          74.00       292.50
  248.30        2952.50           1256          70.00       275.07
  248.33        2952.75           1259          66.00       257.63
  248.36        2953.00           1262          65.00       253.27
  248.39        2953.25           1266          65.00       253.27
  248.42        2953.50           1269          71.00       279.43
  248.45        2953.75           1272          71.00       279.43
  248.48        2954.00           1276          59.00       227.12
  248.51        2954.25           1279          66.00       257.63
  248.54        2954.50           1282          70.00       275.07
  248.57        2954.75           1286          73.00       288.15
  248.61        2955.00           1289          63.00       244.55
  248.64        2955.25           1292          65.00       253.27
  248.67        2955.50           1296          64.00       248.91
  248.70        2955.75           1299          68.00       266.35
  248.73        2956.00           1302          73.00       288.15
  248.76        2956.25           1306          69.00       270.71
  248.79        2956.50           1309          73.00       288.15
  248.82        2956.75           1312          62.00       240.19
  248.85        2957.00           1316          63.00       244.55
  248.88        2957.25           1319          65.00       253.27
  248.91        2957.50           1322          78.00       309.94
  248.95        2957.75           1326          64.00       248.91
  248.98        2958.00           1329          69.00       270.71
  249.01        2958.25           1332          65.00       253.27
  249.04        2958.50           1336          78.00       309.94
  249.07        2958.75           1339          64.00       248.91
  249.10        2959.00           1342          70.00       275.07
  249.13        2959.25           1346          69.00       270.71
  249.16        2959.50           1349          79.00       314.30
  249.19        2959.75           1352          87.00       349.18
  249.22        2960.00           1356         124.00       510.47
  249.25        2960.25           1359         142.00       588.94
  249.28        2960.50           1362         192.00       806.91
  249.31        2960.75           1366         238.00      1007.44
  249.34        2961.00           1369         290.00      1234.13
  249.37        2961.25           1372         323.00      1378.00
  249.41        2961.50           1376         414.00      1774.72
  249.44        2961.75           1379         635.00      2738.24
  249.47        2962.00           1382        1345.00      5834.06
  249.50        2962.25           1386        3216.00     13994.98
  249.53        2962.50           1389        4782.00     20828.62
  249.56        2962.75           1392        6386.00     27830.99
  249.59        2963.00           1396        8313.00     36247.33
  249.62        2963.25           1399        9783.00     42670.54
  249.65        2963.50           1402       11447.00     49944.44
  249.68        2963.75           1406       13436.00     58643.19
  249.71        2964.00           1409       15140.00     66099.13
  249.74        2964.25           1412       16727.00     73046.13
  249.77        2964.50           1416       18745.00     81883.99
  249.80        2964.75           1419       20444.00     89328.43
  249.83        2965.00           1422       21986.00     96087.84
  249.86        2965.25           1426       24393.00    106644.50
  249.89        2965.50           1429       26024.00    113801.60
  249.92        2965.75           1432       27380.00    119754.20
  249.96        2966.00           1436       29634.00    129653.70
  249.99        2966.25           1439       31054.00    135893.30
  250.02        2966.50           1442       32392.00    141774.80
  250.05        2966.75           1446       33614.00    147148.20
  250.08        2967.00           1449       33906.00    148432.40
  250.11        2967.25           1452       33791.00    147926.60
  250.14        2967.50           1456       33868.00    148265.30
  250.17        2967.75           1459       33679.00    147434.00
  250.20        2968.00           1462       33452.00    146435.70
  250.24        2968.25           1466       32282.00    141291.20
  250.27        2968.50           1469       30879.00    135124.20
  250.30        2968.75           1472       29611.00    129552.70
  250.33        2969.00           1476       27605.00    120742.20
  250.36        2969.25           1479       26008.00    113731.30
  250.39        2969.50           1482       24507.00    107144.60
  250.42        2969.75           1486       22584.00     98709.92
  250.45        2970.00           1489       21049.00     91980.14
  250.48        2970.25           1492       19403.00     84766.72
  250.52        2970.50           1496       17400.00     75993.02
  250.55        2970.75           1499       15780.00     68900.33
  250.58        2971.00           1502       14102.00     61556.91
  250.61        2971.25           1506       12066.00     52651.11
  250.64        2971.50           1509       10337.00     45091.90
  250.67        2971.75           1513        8409.00     36666.73
  250.70        2972.00           1516        6829.00     29765.45
  250.73        2972.25           1519        5412.00     23578.58
  250.76        2972.50           1523        3340.00     14535.98
  250.79        2972.75           1526        1896.00      8237.00
  250.82        2973.00           1529         848.00      3666.92
  250.86        2973.25           1533         408.00      1748.57
  250.89        2973.50           1536         342.00      1460.83
  250.92        2973.75           1539         286.00      1216.70
  250.95        2974.00           1543         240.00      1016.16
  250.98        2974.25           1546         178.00       745.88
  251.01        2974.50           1549         149.00       619.45
  251.04        2974.75           1553         102.00       414.56
  251.07        2975.00           1556          77.00       305.58
  251.10        2975.25           1559          69.00       270.71
  251.13        2975.50           1563          63.00       244.55
  251.16        2975.75           1566          64.00       248.91
  251.19        2976.00           1569          65.00       253.27
  251.23        2976.25           1573          67.00       261.99
  251.26        2976.50           1576          67.00       261.99
  251.29        2976.75           1579          74.00       292.50
  251.32        2977.00           1583          64.00       248.91
  251.35        2977.25           1586          62.00       240.19
  251.38        2977.50           1590          55.00       209.68
  251.41        2977.75           1593          63.00       244.55
  251.44        2978.00           1596          61.00       235.83
  251.47        2978.25           1600          65.00       253.27
  251.50        2978.50           1603          61.00       235.83
  251.53        2978.75           1606          64.00       248.91
  251.56        2979.00           1610          63.00       244.55
  251.59        2979.25           1613          62.00       240.19
  251.63        2979.50           1616          69.00       270.71
  251.66        2979.75           1620          61.00       235.83
  251.69        2980.00           1623          64.00       248.91
  251.72        2980.25           1626          60.00       231.48
  251.75        2980.50           1630          63.00       244.55
  251.78        2980.75           1633          68.00       266.35
  251.81        2981.00           1637          62.00       240.19
  251.84        2981.25           1640          65.00       253.27
  251.87        2981.50           1643          60.00       231.48
  251.90        2981.75           1647          63.00       244.55
  251.93        2982.00           1650          66.00       257.63
  251.96        2982.25           1653          60.00       231.48
  252.00        2982.50           1657          67.00       261.99
  252.03        2982.75           1660          58.00       222.76
  252.06        2983.00           1663          67.00       261.99
  252.09        2983.25           1667          66.00       257.63
  252.12        2983.50           1670          60.00       231.48
  252.15        2983.75           1673          62.00       240.19
  252.18        2984.00           1677          54.00       205.32
HS scan finished at 04:12:24
end
************************************************************
  HS Scan of (1) Internal mercury lamp
************************************************************
Integration time is 0.2294 seconds per sample
dh251017Manchester 53.47 2.23 2.804185pr1000
************************************************************
Dead Time -------------------------  3E-08 
Number of Cycles Used -------------  4 
Starting Wavelength (Angstroms) ---  2950 
Final Wavelength (Angstoms) -------  2984 
Wavelength Increment (Angstroms) --  .25 
Filter Wheel #1 Position ---------- (1) Ground quartz diffuser (ND=2.32)
Filter Wheel #2 Position ---------- (1) Neutral Density 0.494



************************************************************
HS scan start time = 17:42:02
Dark Count =  7 


Time (GMT)  Wavelength (Ang)  Step Number  Raw Counts  Counts/Second

 1062.40        2950.00           1222          72.00       283.35
 1062.47        2950.25           1226          63.00       244.12
 1062.50        2950.50           1229          68.00       265.91
 1062.53        2950.75           1232          63.00       244.12
 1062.56        2951.00           1236          66.00       257.19
 1062.59        2951.25           1239          67.00       261.55
 1062.63        2951.50           1242          64.00       248.48
 1062.66        2951.75           1246          70.00       274.63
 1062.69        2952.00           1249          66.00       257.19
 1062.72        2952.25           1252          70.00       274.63
 1062.75        2952.50           1256          65.00       252.84
 1062.78        2952.75           1259          68.00       265.91
 1062.81        2953.00           1262          57.00       217.96
 1062.84        2953.25           1266          61.00       235.40
 1062.87        2953.50           1269          72.00       283.35
 1062.90        2953.75           1272          70.00       274.63
 1062.93        2954.00           1276          66.00       257.19
 1062.96        2954.25           1279          72.00       283.35
 1063.00        2954.50           1282          62.00       239.76
 1063.03        2954.75           1286          62.00       239.76
 1063.06        2955.00           1289          71.00       278.99
 1063.09        2955.25           1292          70.00       274.63
 1063.12        2955.50           1296          74.00       292.07
 1063.15        2955.75           1299          60.00       231.04
 1063.18        2956.00           1302          68.00       265.91
 1063.21        2956.25           1306          70.00       274.63
 1063.24        2956.50           1309          69.00       270.27
 1063.27        2956.75           1312          64.00       248.48
 1063.30        2957.00           1316          74.00       292.07
 1063.33        2957.25           1319          67.00       261.55
 1063.36        2957.50           1322          65.00       252.84
 1063.39        2957.75           1326          69.00       270.27
 1063.42        2958.00           1329          65.00       252.84
 1063.45        2958.25           1332          70.00       274.63
 1063.48        2958.50           1336          73.00       287.71
 1063.51        2958.75           1339          72.00       283.35
 1063.55        2959.00           1342          70.00       274.63
 1063.58        2959.25           1346          72.00       283.35
 1063.61        2959.50           1349          69.00       270.27
 1063.64        2959.75           1352          89.00       357.46
 1063.67        2960.00           1356         119.00       488.24
 1063.70        2960.25           1359         160.00       666.97
 1063.73        2960.50           1362         172.00       719.28
 1063.76        2960.75           1366         234.00       989.57
 1063.79        2961.00           1369         278.00      1181.38
 1063.82        2961.25           1372         319.00      1360.13
 1063.85        2961.50           1376         422.00      1809.17
 1063.89        2961.75           1379         544.00      2341.05
 1063.92        2962.00           1382        1249.00      5415.00
 1063.95        2962.25           1386        2991.00     13012.93
 1063.98        2962.50           1389        4575.00     19924.72
 1064.01        2962.75           1392        6025.00     26254.33
 1064.04        2963.00           1396        7967.00     34735.39
 1064.07        2963.25           1399        9540.00     41608.14
 1064.10        2963.50           1402       10924.00     47657.46
 1064.13        2963.75           1406       13086.00     57111.72
 1064.16        2964.00           1409       14474.00     63184.17
 1064.19        2964.25           1412       16326.00     71290.06
 1064.23        2964.50           1416       18354.00     80170.79
 1064.26        2964.75           1419       19791.00     86466.38
 1064.29        2965.00           1422       21328.00     93202.69
 1064.32        2965.25           1426       23586.00    103104.00
 1064.35        2965.50           1429       25208.00    110220.00
 1064.38        2965.75           1432       26835.00    117361.10
 1064.41        2966.00           1436       28762.00    125822.80
 1064.44        2966.25           1439       30225.00    132249.90
 1064.47        2966.50           1442       31741.00    138912.50
 1064.50        2966.75           1446       32961.00    144276.10
 1064.54        2967.00           1449       33387.00    146149.40
 1064.57        2967.25           1452       33452.00    146435.30
 1064.60        2967.50           1456       33579.00    146993.80
 1064.63        2967.75           1459       33483.00    146571.60
 1064.66        2968.00           1462       33277.00    145665.70
 1064.69        2968.25           1466       32276.00    141264.40
 1064.72        2968.50           1469       30917.00    135290.80
 1064.75        2968.75           1472       29516.00    129134.90
 1064.78        2969.00           1476       27647.00    120926.10
 1064.81        2969.25           1479       26052.00    113924.00
 1064.85        2969.50           1482       24516.00    107183.70
 1064.88        2969.75           1486       22660.00     99042.76
 1064.91        2970.00           1489       20921.00     91418.64
 1064.94        2970.25           1492       19492.00     85156.25
 1064.97        2970.50           1496       17525.00     76539.98
 1065.00        2970.75           1499       15842.00     69171.29
 1065.03        2971.00           1502       14282.00     62344.05
 1065.06        2971.25           1506       12199.00     53232.29
 1065.09        2971.50           1509       10684.00     46608.28
 1065.12        2971.75           1513        8610.00     37544.45
 1065.15        2972.00           1516        7003.00     30524.89
 1065.19        2972.25           1519        5548.00     24171.84
 1065.22        2972.50           1523        3510.00     15277.27
 1065.25        2972.75           1526        2151.00      9348.74
 1065.28        2973.00           1529        1004.00      4346.69
 1065.31        2973.25           1533         427.00      1830.96
 1065.34        2973.50           1536         318.00      1355.77
 1065.37        2973.75           1539         294.00      1251.14
 1065.40        2974.00           1543         256.00      1085.48
 1065.43        2974.25           1546         182.00       762.88
 1065.46        2974.50           1549         158.00       658.25
 1065.50        2974.75           1553          87.00       348.74
 1065.53        2975.00           1556          86.00       344.38
 1065.56        2975.25           1559          72.00       283.35
 1065.59        2975.50           1563          68.00       265.91
 1065.62        2975.75           1566          51.00       191.81
 1065.65        2976.00           1569          67.00       261.55
 1065.68        2976.25           1573          58.00       222.32
 1065.71        2976.50           1576          57.00       217.96
 1065.74        2976.75           1579          61.00       235.40
 1065.77        2977.00           1583          65.00       252.84
 1065.80        2977.25           1586          62.00       239.76
 1065.83        2977.50           1590          74.00       292.07
 1065.86        2977.75           1593          66.00       257.19
 1065.89        2978.00           1596          69.00       270.27
 1065.92        2978.25           1600          61.00       235.40
 1065.95        2978.50           1603          70.00       274.63
 1065.99        2978.75           1606          62.00       239.76
 1066.02        2979.00           1610          71.00       278.99
 1066.05        2979.25           1613          62.00       239.76
 1066.08        2979.50           1616          70.00       274.63
 1066.11        2979.75           1620          55.00       209.24
 1066.14        2980.00           1623          59.00       226.68
 1066.17        2980.25           1626          61.00       235.40
 1066.20        2980.50           1630          64.00       248.48
 1066.23        2980.75           1633          53.00       200.52
 1066.26        2981.00           1637          58.00       222.32
 1066.29        2981.25           1640          72.00       283.35
 1066.32        2981.50           1643          75.00       296.43
 1066.35        2981.75           1647          55.00       209.24
 1066.39        2982.00           1650          66.00       257.19
 1066.42        2982.25           1653          60.00       231.04
 1066.45        2982.50           1657          63.00       244.12
 1066.48        2982.75           1660          57.00       217.96
 1066.51        2983.00           1663          65.00       252.84
 1066.54        2983.25           1667          61.00       235.40
 1066.57        2983.50           1670          66.00       257.19
 1066.60        2983.75           1673          56.00       213.60
 1066.63        2984.00           1677          65.00       252.84
HS scan finished at 17:46:51
end
