************************************************************
  HS Scan of (1) Internal mercury lamp
************************************************************
Integration time is 0.2294 seconds per sample
dh191018Manchester 53.47 2.23 2.804185pr1000
************************************************************
Dead Time -------------------------  3E-08 
Number of Cycles Used -------------  4 
Starting Wavelength (Angstroms) ---  2950 
Final Wavelength (Angstoms) -------  2984 
Wavelength Increment (Angstroms) --  .25 
Filter Wheel #1 Position ---------- (1) Ground quartz diffuser (ND=2.32)
Filter Wheel #2 Position ---------- (1) Neutral Density 0.494



************************************************************
HS scan start time = 03:55:03
Dark Count =  7 


Time (GMT)  Wavelength (Ang)  Step Number  Raw Counts  Counts/Second

  235.42        2950.00           1222          50.00       187.45
  235.49        2950.25           1226          45.00       165.65
  235.52        2950.50           1229          50.00       187.45
  235.55        2950.75           1232          52.00       196.17
  235.58        2951.00           1236          45.00       165.65
  235.61        2951.25           1239          50.00       187.45
  235.64        2951.50           1242          48.00       178.73
  235.67        2951.75           1246          67.00       261.55
  235.70        2952.00           1249          52.00       196.17
  235.73        2952.25           1252          51.00       191.81
  235.76        2952.50           1256          49.00       183.09
  235.80        2952.75           1259          49.00       183.09
  235.83        2953.00           1262          48.00       178.73
  235.86        2953.25           1266          53.00       200.52
  235.89        2953.50           1269          50.00       187.45
  235.92        2953.75           1272          51.00       191.81
  235.95        2954.00           1276          51.00       191.81
  235.98        2954.25           1279          49.00       183.09
  236.01        2954.50           1282          51.00       191.81
  236.04        2954.75           1286          50.00       187.45
  236.07        2955.00           1289          50.00       187.45
  236.10        2955.25           1292          48.00       178.73
  236.13        2955.50           1296          54.00       204.88
  236.16        2955.75           1299          46.00       170.01
  236.20        2956.00           1302          51.00       191.81
  236.23        2956.25           1306          47.00       174.37
  236.26        2956.50           1309          50.00       187.45
  236.29        2956.75           1312          62.00       239.76
  236.32        2957.00           1316          50.00       187.45
  236.35        2957.25           1319          50.00       187.45
  236.38        2957.50           1322          55.00       209.24
  236.41        2957.75           1326          48.00       178.73
  236.44        2958.00           1329          49.00       183.09
  236.47        2958.25           1332          43.00       156.93
  236.50        2958.50           1336          43.00       156.93
  236.53        2958.75           1339          47.00       174.37
  236.57        2959.00           1342          47.00       174.37
  236.60        2959.25           1346          52.00       196.17
  236.63        2959.50           1349          49.00       183.09
  236.66        2959.75           1352          57.00       217.96
  236.69        2960.00           1356          74.00       292.07
  236.72        2960.25           1359         101.00       409.77
  236.75        2960.50           1362         130.00       536.19
  236.78        2960.75           1366         159.00       662.61
  236.81        2961.00           1369         193.00       810.83
  236.84        2961.25           1372         209.00       880.58
  236.87        2961.50           1376         269.00      1142.15
  236.91        2961.75           1379         360.00      1538.87
  236.94        2962.00           1382         755.00      3261.00
  236.97        2962.25           1386        2008.00      8725.04
  237.00        2962.50           1389        3114.00     13549.54
  237.03        2962.75           1392        4211.00     18336.15
  237.06        2963.00           1396        5648.00     24608.40
  237.09        2963.25           1399        6896.00     30057.61
  237.12        2963.50           1402        7997.00     34866.44
  237.15        2963.75           1406        9611.00     41918.42
  237.19        2964.00           1409       10815.00     47180.95
  237.22        2964.25           1412       11953.00     52156.53
  237.25        2964.50           1416       13491.00     58883.36
  237.28        2964.75           1419       14515.00     63363.58
  237.31        2965.00           1422       15798.00     68978.69
  237.34        2965.25           1426       17260.00     75379.51
  237.37        2965.50           1429       18223.00     79597.00
  237.40        2965.75           1432       19645.00     85826.63
  237.43        2966.00           1436       21268.00     92939.68
  237.47        2966.25           1439       22448.00     98113.12
  237.50        2966.50           1442       23516.00    102796.90
  237.53        2966.75           1446       24872.00    108745.70
  237.56        2967.00           1449       25325.00    110733.40
  237.59        2967.25           1452       25213.00    110241.90
  237.62        2967.50           1456       25172.00    110062.00
  237.65        2967.75           1459       25238.00    110351.60
  237.68        2968.00           1462       25375.00    110952.80
  237.71        2968.25           1466       24545.00    107310.90
  237.74        2968.50           1469       23639.00    103336.40
  237.78        2968.75           1472       22584.00     98709.49
  237.81        2969.00           1476       21137.00     92365.44
  237.84        2969.25           1479       19992.00     87347.15
  237.87        2969.50           1482       18801.00     82128.88
  237.90        2969.75           1486       17284.00     75484.61
  237.93        2970.00           1489       16098.00     70291.93
  237.96        2970.25           1492       14896.00     65030.85
  237.99        2970.50           1496       13618.00     59438.94
  238.02        2970.75           1499       12329.00     53800.80
  238.05        2971.00           1502       11204.00     48881.57
  238.09        2971.25           1506        9618.00     41949.01
  238.12        2971.50           1509        8434.00     36775.51
  238.15        2971.75           1513        6775.00     29529.20
  238.18        2972.00           1516        5644.00     24590.93
  238.21        2972.25           1519        4568.00     19894.17
  238.24        2972.50           1523        3013.00     13108.90
  238.27        2972.75           1526        1885.00      8188.59
  238.30        2973.00           1529         935.00      4045.83
  238.33        2973.25           1533         374.00      1599.90
  238.37        2973.50           1536         283.00      1203.18
  238.40        2973.75           1539         242.00      1024.44
  238.43        2974.00           1543         203.00       854.42
  238.46        2974.25           1546         166.00       693.13
  238.49        2974.50           1549         125.00       514.39
  238.52        2974.75           1553          86.00       344.38
  238.55        2975.00           1556          70.00       274.63
  238.58        2975.25           1559          57.00       217.96
  238.61        2975.50           1563          54.00       204.88
  238.64        2975.75           1566          50.00       187.45
  238.67        2976.00           1569          52.00       196.17
  238.71        2976.25           1573          47.00       174.37
  238.74        2976.50           1576          50.00       187.45
  238.77        2976.75           1579          55.00       209.24
  238.80        2977.00           1583          49.00       183.09
  238.83        2977.25           1586          45.00       165.65
  238.86        2977.50           1590          48.00       178.73
  238.89        2977.75           1593          44.00       161.29
  238.92        2978.00           1596          48.00       178.73
  238.95        2978.25           1600          46.00       170.01
  238.98        2978.50           1603          48.00       178.73
  239.01        2978.75           1606          44.00       161.29
  239.04        2979.00           1610          48.00       178.73
  239.07        2979.25           1613          43.00       156.93
  239.10        2979.50           1616          40.00       143.85
  239.14        2979.75           1620          43.00       156.93
  239.17        2980.00           1623          41.00       148.21
  239.20        2980.25           1626          45.00       165.65
  239.23        2980.50           1630          47.00       174.37
  239.26        2980.75           1633          47.00       174.37
  239.29        2981.00           1637          49.00       183.09
  239.32        2981.25           1640          43.00       156.93
  239.35        2981.50           1643          47.00       174.37
  239.38        2981.75           1647          42.00       152.57
  239.41        2982.00           1650          46.00       170.01
  239.44        2982.25           1653          42.00       152.57
  239.47        2982.50           1657          44.00       161.29
  239.51        2982.75           1660          39.00       139.49
  239.54        2983.00           1663          53.00       200.52
  239.57        2983.25           1667          46.00       170.01
  239.60        2983.50           1670          39.00       139.49
  239.63        2983.75           1673          44.00       161.29
  239.66        2984.00           1677          43.00       156.93
HS scan finished at 03:59:53
end
************************************************************
  HS Scan of (1) Internal mercury lamp
************************************************************
Integration time is 0.2294 seconds per sample
dh191018Manchester 53.47 2.23 2.804185pr1000
************************************************************
Dead Time -------------------------  3E-08 
Number of Cycles Used -------------  4 
Starting Wavelength (Angstroms) ---  2950 
Final Wavelength (Angstoms) -------  2984 
Wavelength Increment (Angstroms) --  .25 
Filter Wheel #1 Position ---------- (1) Ground quartz diffuser (ND=2.32)
Filter Wheel #2 Position ---------- (1) Neutral Density 0.494



************************************************************
HS scan start time = 18:11:59
Dark Count =  4.6 


Time (GMT)  Wavelength (Ang)  Step Number  Raw Counts  Counts/Second

 1092.36        2950.00           1222          43.00       167.39
 1092.43        2950.25           1226          50.00       197.91
 1092.46        2950.50           1229          53.00       210.99
 1092.49        2950.75           1232          47.00       184.83
 1092.52        2951.00           1236          61.00       245.86
 1092.55        2951.25           1239          52.00       206.63
 1092.58        2951.50           1242          46.00       180.47
 1092.61        2951.75           1246          55.00       219.71
 1092.64        2952.00           1249          53.00       210.99
 1092.67        2952.25           1252          54.00       215.35
 1092.70        2952.50           1256          48.00       189.19
 1092.73        2952.75           1259          56.00       224.06
 1092.76        2953.00           1262          54.00       215.35
 1092.80        2953.25           1266          56.00       224.06
 1092.83        2953.50           1269          49.00       193.55
 1092.86        2953.75           1272          47.00       184.83
 1092.89        2954.00           1276          50.00       197.91
 1092.92        2954.25           1279          47.00       184.83
 1092.95        2954.50           1282          54.00       215.35
 1092.98        2954.75           1286          46.00       180.47
 1093.01        2955.00           1289          48.00       189.19
 1093.04        2955.25           1292          53.00       210.99
 1093.07        2955.50           1296          47.00       184.83
 1093.10        2955.75           1299          49.00       193.55
 1093.13        2956.00           1302          53.00       210.99
 1093.16        2956.25           1306          55.00       219.71
 1093.20        2956.50           1309          48.00       189.19
 1093.23        2956.75           1312          51.00       202.27
 1093.26        2957.00           1316          52.00       206.63
 1093.29        2957.25           1319          50.00       197.91
 1093.32        2957.50           1322          59.00       237.14
 1093.35        2957.75           1326          48.00       189.19
 1093.38        2958.00           1329          51.00       202.27
 1093.41        2958.25           1332          47.00       184.83
 1093.44        2958.50           1336          46.00       180.47
 1093.47        2958.75           1339          52.00       206.63
 1093.50        2959.00           1342          52.00       206.63
 1093.53        2959.25           1346          50.00       197.91
 1093.56        2959.50           1349          56.00       224.06
 1093.59        2959.75           1352          63.00       254.58
 1093.63        2960.00           1356          81.00       333.05
 1093.66        2960.25           1359         103.00       428.95
 1093.69        2960.50           1362         127.00       533.57
 1093.72        2960.75           1366         166.00       703.59
 1093.75        2961.00           1369         202.00       860.53
 1093.78        2961.25           1372         234.00      1000.03
 1093.81        2961.50           1376         278.00      1191.85
 1093.84        2961.75           1379         386.00      1662.68
 1093.87        2962.00           1382         744.00      3223.50
 1093.90        2962.25           1386        2076.00      9032.09
 1093.94        2962.50           1389        3185.00     13869.76
 1093.97        2962.75           1392        4376.00     19066.70
 1094.00        2963.00           1396        5829.00     25409.08
 1094.03        2963.25           1399        6998.00     30513.53
 1094.06        2963.50           1402        8241.00     35942.84
 1094.09        2963.75           1406        9724.00     42422.75
 1094.12        2964.00           1409       10955.00     47803.48
 1094.15        2964.25           1412       12094.00     52783.61
 1094.18        2964.50           1416       13705.00     59830.05
 1094.21        2964.75           1419       14733.00     64328.04
 1094.24        2965.00           1422       16094.00     70284.93
 1094.28        2965.25           1426       17540.00     76616.18
 1094.31        2965.50           1429       18871.00     82446.05
 1094.34        2965.75           1432       20039.00     87563.64
 1094.37        2966.00           1436       21508.00     94002.30
 1094.40        2966.25           1439       22601.00     98794.56
 1094.43        2966.50           1442       23878.00    104395.30
 1094.46        2966.75           1446       24745.00    108198.90
 1094.49        2967.00           1449       25073.00    109638.20
 1094.52        2967.25           1452       25269.00    110498.20
 1094.56        2967.50           1456       25312.00    110686.90
 1094.59        2967.75           1459       25213.00    110252.50
 1094.62        2968.00           1462       24992.00    109282.70
 1094.65        2968.25           1466       24229.00    105935.10
 1094.68        2968.50           1469       23264.00    101702.20
 1094.71        2968.75           1472       22274.00     97360.68
 1094.74        2969.00           1476       20581.00     89938.94
 1094.77        2969.25           1479       19540.00     85377.07
 1094.80        2969.50           1482       18231.00     79642.56
 1094.83        2969.75           1486       16932.00     73953.78
 1094.86        2970.00           1489       15665.00     68407.03
 1094.90        2970.25           1492       14469.00     63172.80
 1094.93        2970.50           1496       13117.00     57257.82
 1094.96        2970.75           1499       11911.00     51983.36
 1094.99        2971.00           1502       10728.00     46811.12
 1095.02        2971.25           1506        9193.00     40102.27
 1095.05        2971.50           1509        7852.00     34243.53
 1095.08        2971.75           1513        6440.00     28076.82
 1095.11        2972.00           1516        5271.00     22973.11
 1095.14        2972.25           1519        4189.00     18250.62
 1095.17        2972.50           1523        2637.00     11479.11
 1095.20        2972.75           1526        1664.00      7235.22
 1095.23        2973.00           1529         842.00      3650.79
 1095.27        2973.25           1533         334.00      1435.98
 1095.30        2973.50           1536         253.00      1082.86
 1095.33        2973.75           1539         221.00       943.36
 1095.36        2974.00           1543         179.00       760.26
 1095.39        2974.25           1546         145.00       612.04
 1095.42        2974.50           1549         102.00       424.59
 1095.45        2974.75           1553          85.00       350.48
 1095.48        2975.00           1556          57.00       228.42
 1095.51        2975.25           1559          57.00       228.42
 1095.54        2975.50           1563          44.00       171.75
 1095.57        2975.75           1566          42.00       163.03
 1095.60        2976.00           1569          49.00       193.55
 1095.63        2976.25           1573          53.00       210.99
 1095.66        2976.50           1576          46.00       180.47
 1095.70        2976.75           1579          50.00       197.91
 1095.73        2977.00           1583          45.00       176.11
 1095.76        2977.25           1586          45.00       176.11
 1095.79        2977.50           1590          45.00       176.11
 1095.82        2977.75           1593          46.00       180.47
 1095.85        2978.00           1596          45.00       176.11
 1095.88        2978.25           1600          47.00       184.83
 1095.91        2978.50           1603          45.00       176.11
 1095.94        2978.75           1606          61.00       245.86
 1095.97        2979.00           1610          56.00       224.06
 1096.01        2979.25           1613          47.00       184.83
 1096.04        2979.50           1616          49.00       193.55
 1096.07        2979.75           1620          44.00       171.75
 1096.10        2980.00           1623          42.00       163.03
 1096.13        2980.25           1626          43.00       167.39
 1096.16        2980.50           1630          43.00       167.39
 1096.19        2980.75           1633          50.00       197.91
 1096.22        2981.00           1637          42.00       163.03
 1096.25        2981.25           1640          40.00       154.32
 1096.28        2981.50           1643          42.00       163.03
 1096.31        2981.75           1647          35.00       132.52
 1096.34        2982.00           1650          47.00       184.83
 1096.38        2982.25           1653          42.00       163.03
 1096.41        2982.50           1657          49.00       193.55
 1096.44        2982.75           1660          43.00       167.39
 1096.47        2983.00           1663          43.00       167.39
 1096.50        2983.25           1667          46.00       180.47
 1096.53        2983.50           1670          51.00       202.27
 1096.56        2983.75           1673          47.00       184.83
 1096.59        2984.00           1677          50.00       197.91
HS scan finished at 18:16:48
end
