************************************************************
  HS Scan of (1) Internal mercury lamp
************************************************************
Integration time is 0.2294 seconds per sample
dh231018Manchester 53.47 2.23 2.804185pr1000
************************************************************
Dead Time -------------------------  3E-08 
Number of Cycles Used -------------  4 
Starting Wavelength (Angstroms) ---  2950 
Final Wavelength (Angstoms) -------  2984 
Wavelength Increment (Angstroms) --  .25 
Filter Wheel #1 Position ---------- (1) Ground quartz diffuser (ND=2.32)
Filter Wheel #2 Position ---------- (1) Neutral Density 0.494



************************************************************
HS scan start time = 04:03:13
Dark Count =  6 


Time (GMT)  Wavelength (Ang)  Step Number  Raw Counts  Counts/Second

  243.59        2950.00           1222          47.00       178.73
  243.66        2950.25           1226          45.00       170.01
  243.69        2950.50           1229          49.00       187.45
  243.72        2950.75           1232          49.00       187.45
  243.75        2951.00           1236          49.00       187.45
  243.78        2951.25           1239          53.00       204.88
  243.81        2951.50           1242          45.00       170.01
  243.84        2951.75           1246          48.00       183.09
  243.87        2952.00           1249          50.00       191.81
  243.91        2952.25           1252          54.00       209.24
  243.94        2952.50           1256          48.00       183.09
  243.97        2952.75           1259          53.00       204.88
  244.00        2953.00           1262          47.00       178.73
  244.03        2953.25           1266          49.00       187.45
  244.06        2953.50           1269          47.00       178.73
  244.09        2953.75           1272          47.00       178.73
  244.12        2954.00           1276          52.00       200.52
  244.15        2954.25           1279          53.00       204.88
  244.18        2954.50           1282          54.00       209.24
  244.21        2954.75           1286          51.00       196.17
  244.24        2955.00           1289          45.00       170.01
  244.28        2955.25           1292          54.00       209.24
  244.31        2955.50           1296          48.00       183.09
  244.34        2955.75           1299          48.00       183.09
  244.37        2956.00           1302          46.00       174.37
  244.40        2956.25           1306          57.00       222.32
  244.43        2956.50           1309          52.00       200.52
  244.46        2956.75           1312          48.00       183.09
  244.49        2957.00           1316          44.00       165.65
  244.52        2957.25           1319          49.00       187.45
  244.55        2957.50           1322          50.00       191.81
  244.58        2957.75           1326          42.00       156.93
  244.61        2958.00           1329          53.00       204.88
  244.65        2958.25           1332          47.00       178.73
  244.68        2958.50           1336          53.00       204.88
  244.71        2958.75           1339          49.00       187.45
  244.74        2959.00           1342          51.00       196.17
  244.77        2959.25           1346          53.00       204.88
  244.80        2959.50           1349          49.00       187.45
  244.83        2959.75           1352          61.00       239.76
  244.86        2960.00           1356          78.00       313.87
  244.89        2960.25           1359          99.00       405.41
  244.92        2960.50           1362         125.00       518.75
  244.95        2960.75           1366         171.00       719.28
  244.98        2961.00           1369         184.00       775.96
  245.01        2961.25           1372         216.00       915.46
  245.05        2961.50           1376         295.00      1259.86
  245.08        2961.75           1379         434.00      1865.84
  245.11        2962.00           1382         950.00      4115.59
  245.14        2962.25           1386        2220.00      9654.06
  245.17        2962.50           1389        3329.00     14491.92
  245.20        2962.75           1392        4483.00     19527.57
  245.23        2963.00           1396        5981.00     26066.59
  245.26        2963.25           1399        7119.00     31035.86
  245.29        2963.50           1402        8288.00     36142.04
  245.33        2963.75           1406        9840.00     42923.59
  245.36        2964.00           1409       10896.00     47539.42
  245.39        2964.25           1412       12154.00     53039.87
  245.42        2964.50           1416       13735.00     59955.17
  245.45        2964.75           1419       14827.00     64733.26
  245.48        2965.00           1422       16038.00     70033.65
  245.51        2965.25           1426       17343.00     75747.35
  245.54        2965.50           1429       18637.00     81414.83
  245.57        2965.75           1432       19833.00     86654.81
  245.60        2966.00           1436       21440.00     93698.06
  245.64        2966.25           1439       22580.00     98696.34
  245.67        2966.50           1442       23508.00    102766.20
  245.70        2966.75           1446       24787.00    108377.10
  245.73        2967.00           1449       25159.00    110009.40
  245.76        2967.25           1452       25227.00    110307.80
  245.79        2967.50           1456       25257.00    110439.40
  245.82        2967.75           1459       25109.00    109790.00
  245.85        2968.00           1462       25085.00    109684.70
  245.88        2968.25           1466       24396.00    106661.60
  245.91        2968.50           1469       23473.00    102612.70
  245.94        2968.75           1472       22353.00     97700.94
  245.98        2969.00           1476       20835.00     91046.08
  246.01        2969.25           1479       19647.00     85839.78
  246.04        2969.50           1482       18569.00     81116.96
  246.07        2969.75           1486       17022.00     74341.74
  246.10        2970.00           1489       15816.00     69061.86
  246.13        2970.25           1492       14810.00     64658.87
  246.16        2970.50           1496       13454.00     58725.87
  246.19        2970.75           1499       12154.00     53039.87
  246.22        2971.00           1502       11052.00     48221.41
  246.25        2971.25           1506        9520.00     41525.11
  246.29        2971.50           1509        8294.00     36168.26
  246.32        2971.75           1513        6666.00     29057.58
  246.35        2972.00           1516        5491.00     23927.37
  246.38        2972.25           1519        4377.00     19064.96
  246.41        2972.50           1523        2950.00     12838.42
  246.44        2972.75           1526        1821.00      7913.82
  246.47        2973.00           1529         864.00      3740.61
  246.50        2973.25           1533         384.00      1647.86
  246.53        2973.50           1536         274.00      1168.31
  246.56        2973.75           1539         230.00       976.49
  246.59        2974.00           1543         178.00       749.80
  246.62        2974.25           1546         145.00       605.94
  246.65        2974.50           1549         112.00       462.08
  246.68        2974.75           1553          77.00       309.51
  246.72        2975.00           1556          61.00       239.76
  246.75        2975.25           1559          52.00       200.52
  246.78        2975.50           1563          53.00       204.88
  246.81        2975.75           1566          55.00       213.60
  246.84        2976.00           1569          47.00       178.73
  246.87        2976.25           1573          44.00       165.65
  246.90        2976.50           1576          46.00       174.37
  246.93        2976.75           1579          52.00       200.52
  246.96        2977.00           1583          54.00       209.24
  246.99        2977.25           1586          44.00       165.65
  247.03        2977.50           1590          39.00       143.85
  247.06        2977.75           1593          52.00       200.52
  247.09        2978.00           1596          45.00       170.01
  247.12        2978.25           1600          46.00       174.37
  247.15        2978.50           1603          41.00       152.57
  247.18        2978.75           1606          50.00       191.81
  247.21        2979.00           1610          46.00       174.37
  247.24        2979.25           1613          51.00       196.17
  247.27        2979.50           1616          45.00       170.01
  247.30        2979.75           1620          56.00       217.96
  247.33        2980.00           1623          47.00       178.73
  247.36        2980.25           1626          51.00       196.17
  247.39        2980.50           1630          45.00       170.01
  247.42        2980.75           1633          45.00       170.01
  247.45        2981.00           1637          44.00       165.65
  247.48        2981.25           1640          44.00       165.65
  247.51        2981.50           1643          48.00       183.09
  247.54        2981.75           1647          44.00       165.65
  247.57        2982.00           1650          42.00       156.93
  247.61        2982.25           1653          47.00       178.73
  247.64        2982.50           1657          45.00       170.01
  247.67        2982.75           1660          41.00       152.57
  247.70        2983.00           1663          39.00       143.85
  247.73        2983.25           1667          47.00       178.73
  247.76        2983.50           1670          41.00       152.57
  247.79        2983.75           1673          41.00       152.57
  247.82        2984.00           1677          47.00       178.73
HS scan finished at 04:08:02
end
************************************************************
  HS Scan of (1) Internal mercury lamp
************************************************************
Integration time is 0.2294 seconds per sample
dh231018Manchester 53.47 2.23 2.804185pr1000
************************************************************
Dead Time -------------------------  3E-08 
Number of Cycles Used -------------  4 
Starting Wavelength (Angstroms) ---  2950 
Final Wavelength (Angstoms) -------  2984 
Wavelength Increment (Angstroms) --  .25 
Filter Wheel #1 Position ---------- (1) Ground quartz diffuser (ND=2.32)
Filter Wheel #2 Position ---------- (1) Neutral Density 0.494



************************************************************
HS scan start time = 17:42:03
Dark Count =  7.4 


Time (GMT)  Wavelength (Ang)  Step Number  Raw Counts  Counts/Second

 1062.41        2950.00           1222          50.00       185.70
 1062.48        2950.25           1226          52.00       194.42
 1062.51        2950.50           1229          50.00       185.70
 1062.54        2950.75           1232          48.00       176.98
 1062.57        2951.00           1236          46.00       168.27
 1062.60        2951.25           1239          47.00       172.63
 1062.64        2951.50           1242          48.00       176.98
 1062.67        2951.75           1246          54.00       203.14
 1062.70        2952.00           1249          51.00       190.06
 1062.73        2952.25           1252          46.00       168.27
 1062.76        2952.50           1256          60.00       229.30
 1062.79        2952.75           1259          59.00       224.94
 1062.82        2953.00           1262          53.00       198.78
 1062.85        2953.25           1266          52.00       194.42
 1062.88        2953.50           1269          52.00       194.42
 1062.91        2953.75           1272          48.00       176.98
 1062.94        2954.00           1276          58.00       220.58
 1062.98        2954.25           1279          45.00       163.91
 1063.01        2954.50           1282          51.00       190.06
 1063.04        2954.75           1286          48.00       176.98
 1063.07        2955.00           1289          52.00       194.42
 1063.10        2955.25           1292          57.00       216.22
 1063.13        2955.50           1296          54.00       203.14
 1063.16        2955.75           1299          56.00       211.86
 1063.19        2956.00           1302          50.00       185.70
 1063.22        2956.25           1306          44.00       159.55
 1063.25        2956.50           1309          54.00       203.14
 1063.28        2956.75           1312          53.00       198.78
 1063.31        2957.00           1316          54.00       203.14
 1063.34        2957.25           1319          45.00       163.91
 1063.37        2957.50           1322          47.00       172.63
 1063.40        2957.75           1326          51.00       190.06
 1063.43        2958.00           1329          43.00       155.19
 1063.47        2958.25           1332          53.00       198.78
 1063.50        2958.50           1336          50.00       185.70
 1063.53        2958.75           1339          53.00       198.78
 1063.56        2959.00           1342          51.00       190.06
 1063.59        2959.25           1346          56.00       211.86
 1063.62        2959.50           1349          55.00       207.50
 1063.65        2959.75           1352          72.00       281.61
 1063.68        2960.00           1356          88.00       351.36
 1063.71        2960.25           1359         112.00       455.98
 1063.74        2960.50           1362         149.00       617.27
 1063.77        2960.75           1366         193.00       809.09
 1063.80        2961.00           1369         206.00       865.76
 1063.83        2961.25           1372         241.00      1018.34
 1063.87        2961.50           1376         290.00      1231.96
 1063.90        2961.75           1379         403.00      1724.59
 1063.93        2962.00           1382         906.00      3917.64
 1063.96        2962.25           1386        2236.00      9717.74
 1063.99        2962.50           1389        3318.00     14437.81
 1064.02        2962.75           1392        4476.00     19490.91
 1064.05        2963.00           1396        6019.00     26226.38
 1064.08        2963.25           1399        7202.00     31392.24
 1064.11        2963.50           1402        8392.00     36590.27
 1064.14        2963.75           1406        9771.00     42615.92
 1064.17        2964.00           1409       11029.00     48114.74
 1064.20        2964.25           1412       12296.00     53654.74
 1064.24        2964.50           1416       13848.00     60443.42
 1064.27        2964.75           1419       15032.00     65624.28
 1064.30        2965.00           1422       16067.00     70154.48
 1064.33        2965.25           1426       17863.00     78018.49
 1064.36        2965.50           1429       18957.00     82810.53
 1064.39        2965.75           1432       20312.00     88747.74
 1064.42        2966.00           1436       21746.00     95033.41
 1064.45        2966.25           1439       22818.00     99733.88
 1064.48        2966.50           1442       23833.00    104185.60
 1064.51        2966.75           1446       24927.00    108985.20
 1064.54        2967.00           1449       25044.00    109498.60
 1064.58        2967.25           1452       25046.00    109507.40
 1064.61        2967.50           1456       25041.00    109485.40
 1064.64        2967.75           1459       25118.00    109823.30
 1064.67        2968.00           1462       24836.00    108585.90
 1064.70        2968.25           1466       24101.00    105361.30
 1064.73        2968.50           1469       23041.00    100711.80
 1064.76        2968.75           1472       21882.00     95629.68
 1064.79        2969.00           1476       20363.00     88971.24
 1064.82        2969.25           1479       19174.00     83761.22
 1064.85        2969.50           1482       18115.00     79122.20
 1064.88        2969.75           1486       16695.00     72903.83
 1064.92        2970.00           1489       15316.00     66867.23
 1064.95        2970.25           1492       14385.00     62792.98
 1064.98        2970.50           1496       13009.00     56773.17
 1065.01        2970.75           1499       11759.00     51306.46
 1065.04        2971.00           1502       10523.00     45902.75
 1065.07        2971.25           1506        8945.00     39006.38
 1065.10        2971.50           1509        7849.00     34218.20
 1065.13        2971.75           1513        6284.00     27383.43
 1065.16        2972.00           1516        5093.00     22183.90
 1065.19        2972.25           1519        3959.00     17234.72
 1065.22        2972.50           1523        2519.00     10952.16
 1065.26        2972.75           1526        1518.00      6586.31
 1065.29        2973.00           1529         626.00      2696.82
 1065.32        2973.25           1533         290.00      1231.96
 1065.35        2973.50           1536         241.00      1018.34
 1065.38        2973.75           1539         211.00       887.56
 1065.41        2974.00           1543         159.00       660.87
 1065.44        2974.25           1546         114.00       464.70
 1065.47        2974.50           1549          93.00       373.15
 1065.50        2974.75           1553          67.00       259.81
 1065.53        2975.00           1556          52.00       194.42
 1065.56        2975.25           1559          57.00       216.22
 1065.60        2975.50           1563          56.00       211.86
 1065.63        2975.75           1566          48.00       176.98
 1065.66        2976.00           1569          49.00       181.34
 1065.69        2976.25           1573          44.00       159.55
 1065.72        2976.50           1576          43.00       155.19
 1065.75        2976.75           1579          48.00       176.98
 1065.78        2977.00           1583          44.00       159.55
 1065.81        2977.25           1586          47.00       172.63
 1065.84        2977.50           1590          47.00       172.63
 1065.87        2977.75           1593          52.00       194.42
 1065.90        2978.00           1596          43.00       155.19
 1065.93        2978.25           1600          50.00       185.70
 1065.97        2978.50           1603          51.00       190.06
 1066.00        2978.75           1606          41.00       146.47
 1066.03        2979.00           1610          49.00       181.34
 1066.06        2979.25           1613          53.00       198.78
 1066.09        2979.50           1616          45.00       163.91
 1066.12        2979.75           1620          43.00       155.19
 1066.15        2980.00           1623          53.00       198.78
 1066.18        2980.25           1626          51.00       190.06
 1066.21        2980.50           1630          46.00       168.27
 1066.24        2980.75           1633          41.00       146.47
 1066.27        2981.00           1637          48.00       176.98
 1066.30        2981.25           1640          46.00       168.27
 1066.34        2981.50           1643          41.00       146.47
 1066.37        2981.75           1647          46.00       168.27
 1066.40        2982.00           1650          45.00       163.91
 1066.43        2982.25           1653          47.00       172.63
 1066.46        2982.50           1657          54.00       203.14
 1066.49        2982.75           1660          47.00       172.63
 1066.52        2983.00           1663          50.00       185.70
 1066.55        2983.25           1667          42.00       150.83
 1066.58        2983.50           1670          72.00       281.61
 1066.61        2983.75           1673          40.00       142.11
 1066.64        2984.00           1677          41.00       146.47
HS scan finished at 17:46:52
end
