************************************************************
  HS Scan of (1) Internal mercury lamp
************************************************************
Integration time is 0.2294 seconds per sample
dh231017Manchester 53.47 2.23 2.804185pr1000
************************************************************
Dead Time -------------------------  3E-08 
Number of Cycles Used -------------  4 
Starting Wavelength (Angstroms) ---  2950 
Final Wavelength (Angstoms) -------  2984 
Wavelength Increment (Angstroms) --  .25 
Filter Wheel #1 Position ---------- (1) Ground quartz diffuser (ND=2.32)
Filter Wheel #2 Position ---------- (1) Neutral Density 0.494



************************************************************
HS scan start time = 04:03:42
Dark Count =  6.4 


Time (GMT)  Wavelength (Ang)  Step Number  Raw Counts  Counts/Second

  244.07        2950.00           1222          69.00       272.89
  244.14        2950.25           1226          76.00       303.40
  244.17        2950.50           1229          69.00       272.89
  244.20        2950.75           1232          71.00       281.61
  244.23        2951.00           1236          70.00       277.25
  244.26        2951.25           1239          69.00       272.89
  244.29        2951.50           1242          66.00       259.81
  244.32        2951.75           1246          72.00       285.97
  244.35        2952.00           1249          71.00       281.61
  244.39        2952.25           1252          67.00       264.17
  244.42        2952.50           1256          67.00       264.17
  244.45        2952.75           1259          63.00       246.73
  244.48        2953.00           1262          65.00       255.45
  244.51        2953.25           1266          68.00       268.53
  244.54        2953.50           1269          72.00       285.97
  244.57        2953.75           1272          73.00       290.33
  244.60        2954.00           1276          73.00       290.33
  244.63        2954.25           1279          69.00       272.89
  244.66        2954.50           1282          65.00       255.45
  244.69        2954.75           1286          76.00       303.40
  244.72        2955.00           1289          68.00       268.53
  244.76        2955.25           1292          60.00       233.65
  244.79        2955.50           1296          73.00       290.33
  244.82        2955.75           1299          74.00       294.68
  244.85        2956.00           1302          70.00       277.25
  244.88        2956.25           1306          71.00       281.61
  244.91        2956.50           1309          75.00       299.04
  244.94        2956.75           1312          71.00       281.61
  244.97        2957.00           1316          72.00       285.97
  245.00        2957.25           1319          75.00       299.04
  245.03        2957.50           1322          68.00       268.53
  245.07        2957.75           1326          68.00       268.53
  245.10        2958.00           1329          61.00       238.01
  245.13        2958.25           1332          70.00       277.25
  245.16        2958.50           1336          67.00       264.17
  245.19        2958.75           1339          75.00       299.04
  245.22        2959.00           1342          61.00       238.01
  245.25        2959.25           1346          74.00       294.68
  245.28        2959.50           1349          81.00       325.20
  245.31        2959.75           1352          88.00       355.71
  245.34        2960.00           1356         122.00       503.93
  245.37        2960.25           1359         149.00       621.63
  245.40        2960.50           1362         182.00       765.49
  245.43        2960.75           1366         229.00       970.39
  245.47        2961.00           1369         265.00      1127.33
  245.50        2961.25           1372         317.00      1354.02
  245.53        2961.50           1376         427.00      1833.58
  245.56        2961.75           1379         807.00      3490.34
  245.59        2962.00           1382        1844.00      8012.39
  245.62        2962.25           1386        3716.00     16178.73
  245.65        2962.50           1389        5215.00     22720.80
  245.68        2962.75           1392        6794.00     29614.79
  245.71        2963.00           1396        8751.00     38163.11
  245.74        2963.25           1399       10121.00     44149.98
  245.77        2963.50           1402       11841.00     51669.39
  245.80        2963.75           1406       14071.00     61423.46
  245.84        2964.00           1409       15636.00     68272.21
  245.87        2964.25           1412       17120.00     74769.10
  245.90        2964.50           1416       19461.00     85023.05
  245.93        2964.75           1419       21116.00     92276.02
  245.96        2965.00           1422       22578.00     98685.81
  245.99        2965.25           1426       24778.00    108335.80
  246.02        2965.50           1429       26446.00    115656.00
  246.05        2965.75           1432       28050.00    122698.40
  246.08        2966.00           1436       30013.00    131321.10
  246.11        2966.25           1439       31629.00    138422.80
  246.15        2966.50           1442       32750.00    143351.00
  246.18        2966.75           1446       33804.00    147986.00
  246.21        2967.00           1449       33785.00    147902.40
  246.24        2967.25           1452       33725.00    147638.50
  246.27        2967.50           1456       34006.00    148874.40
  246.30        2967.75           1459       33690.00    147484.60
  246.33        2968.00           1462       33358.00    146024.50
  246.36        2968.25           1466       31975.00    139943.80
  246.39        2968.50           1469       30608.00    133935.50
  246.43        2968.75           1472       28981.00    126787.40
  246.46        2969.00           1476       27093.00    118496.40
  246.49        2969.25           1479       25633.00    112087.70
  246.52        2969.50           1482       24192.00    105764.90
  246.55        2969.75           1486       22005.00     96173.33
  246.58        2970.00           1489       20477.00     89475.25
  246.61        2970.25           1492       18958.00     82819.29
  246.64        2970.50           1496       16843.00     73556.21
  246.67        2970.75           1499       15233.00     66508.34
  246.70        2971.00           1502       13636.00     59520.31
  246.74        2971.25           1506       11430.00     49872.30
  246.77        2971.50           1509        9854.00     42983.03
  246.80        2971.75           1513        7864.00     34288.09
  246.83        2972.00           1516        6318.00     27536.26
  246.86        2972.25           1519        4853.00     21140.69
  246.89        2972.50           1523        2922.00     12714.53
  246.92        2972.75           1526        1566.00      6799.99
  246.95        2973.00           1529         705.00      3045.61
  246.98        2973.25           1533         421.00      1807.42
  247.02        2973.50           1536         326.00      1393.26
  247.05        2973.75           1539         296.00      1262.47
  247.08        2974.00           1543         240.00      1018.34
  247.11        2974.25           1546         187.00       787.29
  247.14        2974.50           1549         139.00       578.04
  247.17        2974.75           1553         104.00       425.46
  247.20        2975.00           1556          87.00       351.36
  247.23        2975.25           1559          75.00       299.04
  247.26        2975.50           1563          74.00       294.68
  247.29        2975.75           1566          64.00       251.09
  247.32        2976.00           1569          68.00       268.53
  247.36        2976.25           1573          70.00       277.25
  247.39        2976.50           1576          65.00       255.45
  247.42        2976.75           1579          63.00       246.73
  247.45        2977.00           1583          64.00       251.09
  247.48        2977.25           1586          64.00       251.09
  247.51        2977.50           1590          60.00       233.65
  247.54        2977.75           1593          62.00       242.37
  247.57        2978.00           1596          70.00       277.25
  247.60        2978.25           1600          61.00       238.01
  247.63        2978.50           1603          68.00       268.53
  247.66        2978.75           1606          71.00       281.61
  247.69        2979.00           1610          60.00       233.65
  247.72        2979.25           1613          67.00       264.17
  247.76        2979.50           1616          69.00       272.89
  247.79        2979.75           1620          67.00       264.17
  247.82        2980.00           1623          62.00       242.37
  247.85        2980.25           1626          61.00       238.01
  247.88        2980.50           1630          63.00       246.73
  247.91        2980.75           1633          78.00       312.12
  247.94        2981.00           1637          61.00       238.01
  247.97        2981.25           1640          61.00       238.01
  248.00        2981.50           1643          71.00       281.61
  248.03        2981.75           1647          71.00       281.61
  248.07        2982.00           1650          66.00       259.81
  248.10        2982.25           1653          62.00       242.37
  248.13        2982.50           1657          62.00       242.37
  248.16        2982.75           1660          66.00       259.81
  248.19        2983.00           1663          63.00       246.73
  248.22        2983.25           1667          61.00       238.01
  248.25        2983.50           1670          60.00       233.65
  248.28        2983.75           1673          66.00       259.81
  248.31        2984.00           1677          57.00       220.58
HS scan finished at 04:08:32
end
************************************************************
  HS Scan of (1) Internal mercury lamp
************************************************************
Integration time is 0.2294 seconds per sample
dh231017Manchester 53.47 2.23 2.857833pr1000
************************************************************
Dead Time -------------------------  3E-08 
Number of Cycles Used -------------  4 
Starting Wavelength (Angstroms) ---  2950 
Final Wavelength (Angstoms) -------  2984 
Wavelength Increment (Angstroms) --  .25 
Filter Wheel #1 Position ---------- (1) Ground quartz diffuser (ND=2.32)
Filter Wheel #2 Position ---------- (1) Neutral Density 0.494



************************************************************
HS scan start time = 17:42:00
Dark Count =  7.1 


Time (GMT)  Wavelength (Ang)  Step Number  Raw Counts  Counts/Second

 1062.37        2950.00           1222          72.00       282.91
 1062.43        2950.25           1226          72.00       282.91
 1062.46        2950.50           1229          67.00       261.12
 1062.50        2950.75           1232          73.00       287.27
 1062.53        2951.00           1236          70.00       274.20
 1062.56        2951.25           1239          69.00       269.84
 1062.59        2951.50           1242          66.00       256.76
 1062.62        2951.75           1246          74.00       291.63
 1062.65        2952.00           1249          70.00       274.20
 1062.68        2952.25           1252          69.00       269.84
 1062.71        2952.50           1256          66.00       256.76
 1062.74        2952.75           1259          68.00       265.48
 1062.77        2953.00           1262          64.00       248.04
 1062.80        2953.25           1266          61.00       234.96
 1062.83        2953.50           1269          69.00       269.84
 1062.86        2953.75           1272          68.00       265.48
 1062.90        2954.00           1276          69.00       269.84
 1062.93        2954.25           1279          68.00       265.48
 1062.96        2954.50           1282          73.00       287.27
 1062.99        2954.75           1286          68.00       265.48
 1063.02        2955.00           1289          71.00       278.56
 1063.05        2955.25           1292          64.00       248.04
 1063.08        2955.50           1296          71.00       278.56
 1063.11        2955.75           1299          68.00       265.48
 1063.14        2956.00           1302          66.00       256.76
 1063.17        2956.25           1306          70.00       274.20
 1063.20        2956.50           1309          68.00       265.48
 1063.23        2956.75           1312          66.00       256.76
 1063.27        2957.00           1316          70.00       274.20
 1063.30        2957.25           1319          71.00       278.56
 1063.33        2957.50           1322          70.00       274.20
 1063.36        2957.75           1326          67.00       261.12
 1063.39        2958.00           1329          63.00       243.68
 1063.42        2958.25           1332          73.00       287.27
 1063.45        2958.50           1336          65.00       252.40
 1063.48        2958.75           1339          74.00       291.63
 1063.51        2959.00           1342          68.00       265.48
 1063.54        2959.25           1346          72.00       282.91
 1063.57        2959.50           1349          79.00       313.43
 1063.60        2959.75           1352          96.00       387.54
 1063.63        2960.00           1356         135.00       557.55
 1063.67        2960.25           1359         169.00       705.77
 1063.70        2960.50           1362         214.00       901.94
 1063.73        2960.75           1366         253.00      1071.96
 1063.76        2961.00           1369         298.00      1268.14
 1063.79        2961.25           1372         356.00      1520.99
 1063.82        2961.50           1376         402.00      1721.54
 1063.85        2961.75           1379         524.00      2253.42
 1063.88        2962.00           1382         915.00      3958.19
 1063.91        2962.25           1386        2415.00     10499.82
 1063.94        2962.50           1389        4025.00     17524.03
 1063.97        2962.75           1392        5588.00     24346.02
 1064.00        2963.00           1396        7656.00     33376.47
 1064.03        2963.25           1399        9309.00     40598.24
 1064.06        2963.50           1402       10798.00     47106.20
 1064.10        2963.75           1406       12987.00     56678.25
 1064.13        2964.00           1409       14588.00     63682.58
 1064.16        2964.25           1412       16445.00     71810.60
 1064.19        2964.50           1416       18428.00     80494.50
 1064.22        2964.75           1419       19866.00     86794.59
 1064.25        2965.00           1422       21480.00     93868.59
 1064.28        2965.25           1426       23749.00    103818.50
 1064.31        2965.50           1429       25487.00    111443.90
 1064.34        2965.75           1432       27227.00    119081.60
 1064.37        2966.00           1436       29347.00    128392.00
 1064.41        2966.25           1439       30666.00    134187.30
 1064.44        2966.50           1442       32121.00    140582.50
 1064.47        2966.75           1446       34002.00    148853.70
 1064.50        2967.00           1449       34501.00    151048.70
 1064.53        2967.25           1452       34674.00    151809.70
 1064.56        2967.50           1456       34454.00    150841.90
 1064.59        2967.75           1459       34563.00    151321.40
 1064.62        2968.00           1462       34626.00    151598.50
 1064.65        2968.25           1466       33986.00    148783.40
 1064.68        2968.50           1469       32584.00    142618.10
 1064.72        2968.75           1472       30987.00    135598.00
 1064.75        2969.00           1476       29138.00    127473.90
 1064.78        2969.25           1479       27539.00    120451.50
 1064.81        2969.50           1482       25780.00    112729.80
 1064.84        2969.75           1486       23568.00    103024.60
 1064.87        2970.00           1489       22286.00     97402.34
 1064.90        2970.25           1492       20569.00     89875.39
 1064.93        2970.50           1496       18372.00     80249.21
 1064.96        2970.75           1499       16955.00     74043.54
 1064.99        2971.00           1502       15479.00     67581.96
 1065.03        2971.25           1506       13312.00     58099.88
 1065.06        2971.50           1509       11668.00     50909.87
 1065.09        2971.75           1513        9708.00     42341.90
 1065.12        2972.00           1516        7969.00     34743.70
 1065.15        2972.25           1519        6393.00     27860.68
 1065.18        2972.50           1523        4324.00     18828.85
 1065.21        2972.75           1526        2784.00     12109.46
 1065.24        2973.00           1529        1449.00      6286.71
 1065.27        2973.25           1533         496.00      2131.35
 1065.30        2973.50           1536         342.00      1459.96
 1065.33        2973.75           1539         291.00      1237.62
 1065.36        2974.00           1543         227.00       958.62
 1065.39        2974.25           1546         166.00       692.69
 1065.43        2974.50           1549         138.00       570.63
 1065.46        2974.75           1553          88.00       352.66
 1065.49        2975.00           1556          80.00       317.79
 1065.52        2975.25           1559          65.00       252.40
 1065.55        2975.50           1563          70.00       274.20
 1065.58        2975.75           1566          68.00       265.48
 1065.61        2976.00           1569          69.00       269.84
 1065.64        2976.25           1573          68.00       265.48
 1065.67        2976.50           1576          60.00       230.60
 1065.70        2976.75           1579          66.00       256.76
 1065.73        2977.00           1583          69.00       269.84
 1065.76        2977.25           1586          68.00       265.48
 1065.79        2977.50           1590          73.00       287.27
 1065.83        2977.75           1593          66.00       256.76
 1065.86        2978.00           1596          62.00       239.32
 1065.89        2978.25           1600          65.00       252.40
 1065.92        2978.50           1603          64.00       248.04
 1065.95        2978.75           1606          57.00       217.53
 1065.98        2979.00           1610          63.00       243.68
 1066.01        2979.25           1613          66.00       256.76
 1066.04        2979.50           1616          56.00       213.17
 1066.07        2979.75           1620          60.00       230.60
 1066.10        2980.00           1623          60.00       230.60
 1066.13        2980.25           1626          65.00       252.40
 1066.16        2980.50           1630          60.00       230.60
 1066.20        2980.75           1633          62.00       239.32
 1066.23        2981.00           1637          60.00       230.60
 1066.26        2981.25           1640          71.00       278.56
 1066.29        2981.50           1643          71.00       278.56
 1066.32        2981.75           1647          59.00       226.24
 1066.35        2982.00           1650          60.00       230.60
 1066.38        2982.25           1653          64.00       248.04
 1066.41        2982.50           1657          63.00       243.68
 1066.44        2982.75           1660          60.00       230.60
 1066.47        2983.00           1663          61.00       234.96
 1066.50        2983.25           1667          62.00       239.32
 1066.53        2983.50           1670          63.00       243.68
 1066.57        2983.75           1673          57.00       217.53
 1066.60        2984.00           1677          62.00       239.32
HS scan finished at 17:46:49
end
