************************************************************
  HS Scan of (1) Internal mercury lamp
************************************************************
Integration time is 0.2294 seconds per sample
dh241017Manchester 53.47 2.23 2.804185pr1000
************************************************************
Dead Time -------------------------  3E-08 
Number of Cycles Used -------------  4 
Starting Wavelength (Angstroms) ---  2950 
Final Wavelength (Angstoms) -------  2984 
Wavelength Increment (Angstroms) --  .25 
Filter Wheel #1 Position ---------- (1) Ground quartz diffuser (ND=2.32)
Filter Wheel #2 Position ---------- (1) Neutral Density 0.494



************************************************************
HS scan start time = 04:05:37
Dark Count =  7.4 


Time (GMT)  Wavelength (Ang)  Step Number  Raw Counts  Counts/Second

  245.99        2950.00           1222          69.00       268.53
  246.06        2950.25           1226          68.00       264.17
  246.09        2950.50           1229          71.00       277.25
  246.12        2950.75           1232          78.00       307.76
  246.15        2951.00           1236          77.00       303.40
  246.18        2951.25           1239          66.00       255.45
  246.21        2951.50           1242          69.00       268.53
  246.24        2951.75           1246          67.00       259.81
  246.27        2952.00           1249          71.00       277.25
  246.30        2952.25           1252          68.00       264.17
  246.34        2952.50           1256          63.00       242.37
  246.37        2952.75           1259          73.00       285.97
  246.40        2953.00           1262          72.00       281.61
  246.43        2953.25           1266          73.00       285.97
  246.46        2953.50           1269          66.00       255.45
  246.49        2953.75           1272          70.00       272.89
  246.52        2954.00           1276          69.00       268.53
  246.55        2954.25           1279          70.00       272.89
  246.58        2954.50           1282          60.00       229.30
  246.61        2954.75           1286          59.00       224.94
  246.64        2955.00           1289          62.00       238.01
  246.67        2955.25           1292          73.00       285.97
  246.70        2955.50           1296          75.00       294.68
  246.74        2955.75           1299          71.00       277.25
  246.77        2956.00           1302          60.00       229.30
  246.80        2956.25           1306          64.00       246.73
  246.83        2956.50           1309          76.00       299.04
  246.86        2956.75           1312          68.00       264.17
  246.89        2957.00           1316          76.00       299.04
  246.92        2957.25           1319          62.00       238.01
  246.95        2957.50           1322          64.00       246.73
  246.98        2957.75           1326          63.00       242.37
  247.01        2958.00           1329          66.00       255.45
  247.04        2958.25           1332          63.00       242.37
  247.08        2958.50           1336          70.00       272.89
  247.11        2958.75           1339          67.00       259.81
  247.14        2959.00           1342          64.00       246.73
  247.17        2959.25           1346          78.00       307.76
  247.20        2959.50           1349          84.00       333.92
  247.23        2959.75           1352         107.00       434.18
  247.26        2960.00           1356         132.00       543.16
  247.29        2960.25           1359         158.00       656.51
  247.32        2960.50           1362         202.00       848.32
  247.35        2960.75           1366         256.00      1083.73
  247.38        2961.00           1369         292.00      1240.67
  247.41        2961.25           1372         330.00      1406.34
  247.44        2961.50           1376         431.00      1846.66
  247.48        2961.75           1379         727.00      3137.17
  247.51        2962.00           1382        1494.00      6481.64
  247.54        2962.25           1386        3363.00     14634.15
  247.57        2962.50           1389        4837.00     21066.49
  247.60        2962.75           1392        6411.00     27937.97
  247.63        2963.00           1396        8356.00     36433.00
  247.66        2963.25           1399        9932.00     43319.56
  247.69        2963.50           1402       11439.00     49907.28
  247.72        2963.75           1406       13502.00     58929.72
  247.75        2964.00           1409       15221.00     66451.44
  247.78        2964.25           1412       16794.00     73337.28
  247.82        2964.50           1416       18882.00     82481.96
  247.85        2964.75           1419       20562.00     89843.40
  247.88        2965.00           1422       22287.00     97405.41
  247.91        2965.25           1426       24258.00    106050.00
  247.94        2965.50           1429       25927.00    113373.60
  247.97        2965.75           1432       27483.00    120204.30
  248.00        2966.00           1436       29428.00    128746.50
  248.03        2966.25           1439       30916.00    135284.70
  248.07        2966.50           1442       32251.00    141152.70
  248.10        2966.75           1446       33421.00    146297.20
  248.13        2967.00           1449       33718.00    147603.40
  248.16        2967.25           1452       33974.00    148729.30
  248.19        2967.50           1456       33830.00    148095.90
  248.22        2967.75           1459       33734.00    147673.70
  248.25        2968.00           1462       33355.00    146006.90
  248.28        2968.25           1466       32304.00    141385.70
  248.31        2968.50           1469       30808.00    134810.00
  248.34        2968.75           1472       29442.00    128808.00
  248.38        2969.00           1476       27602.00    120726.80
  248.41        2969.25           1479       25927.00    113373.60
  248.44        2969.50           1482       24559.00    107370.60
  248.47        2969.75           1486       22460.00     98163.99
  248.50        2970.00           1489       20862.00     91158.28
  248.53        2970.25           1492       19445.00     84948.56
  248.56        2970.50           1496       17355.00     75793.78
  248.59        2970.75           1499       15589.00     68062.11
  248.62        2971.00           1502       14034.00     61257.20
  248.65        2971.25           1506       11883.00     51848.67
  248.69        2971.50           1509       10276.00     44823.10
  248.72        2971.75           1513        8331.00     36323.78
  248.75        2972.00           1516        6804.00     29654.10
  248.78        2972.25           1519        5277.00     22987.08
  248.81        2972.50           1523        3318.00     14437.81
  248.84        2972.75           1526        1936.00      8409.27
  248.87        2973.00           1529         817.00      3529.58
  248.90        2973.25           1533         404.00      1728.95
  248.93        2973.50           1536         330.00      1406.34
  248.96        2973.75           1539         280.00      1188.36
  249.00        2974.00           1543         243.00      1027.06
  249.03        2974.25           1546         167.00       695.74
  249.06        2974.50           1549         134.00       551.88
  249.09        2974.75           1553         108.00       438.54
  249.12        2975.00           1556          70.00       272.89
  249.15        2975.25           1559          64.00       246.73
  249.18        2975.50           1563          67.00       259.81
  249.21        2975.75           1566          68.00       264.17
  249.24        2976.00           1569          65.00       251.09
  249.27        2976.25           1573          62.00       238.01
  249.30        2976.50           1576          57.00       216.22
  249.33        2976.75           1579          65.00       251.09
  249.36        2977.00           1583          65.00       251.09
  249.39        2977.25           1586          67.00       259.81
  249.42        2977.50           1590          60.00       229.30
  249.46        2977.75           1593          63.00       242.37
  249.49        2978.00           1596          69.00       268.53
  249.52        2978.25           1600          58.00       220.58
  249.55        2978.50           1603          56.00       211.86
  249.58        2978.75           1606          61.00       233.65
  249.61        2979.00           1610          66.00       255.45
  249.64        2979.25           1613          64.00       246.73
  249.67        2979.50           1616          60.00       229.30
  249.70        2979.75           1620          69.00       268.53
  249.73        2980.00           1623          71.00       277.25
  249.76        2980.25           1626          59.00       224.94
  249.80        2980.50           1630          62.00       238.01
  249.83        2980.75           1633          69.00       268.53
  249.86        2981.00           1637          61.00       233.65
  249.89        2981.25           1640          61.00       233.65
  249.92        2981.50           1643          65.00       251.09
  249.95        2981.75           1647          61.00       233.65
  249.98        2982.00           1650          55.00       207.50
  250.01        2982.25           1653          62.00       238.01
  250.04        2982.50           1657          57.00       216.22
  250.07        2982.75           1660          66.00       255.45
  250.10        2983.00           1663          61.00       233.65
  250.13        2983.25           1667          61.00       233.65
  250.16        2983.50           1670          58.00       220.58
  250.20        2983.75           1673          61.00       233.65
  250.23        2984.00           1677          63.00       242.37
HS scan finished at 04:10:27
end
************************************************************
  HS Scan of (1) Internal mercury lamp
************************************************************
Integration time is 0.2294 seconds per sample
dh241017Manchester 53.47 2.23 2.857833pr1000
************************************************************
Dead Time -------------------------  3E-08 
Number of Cycles Used -------------  4 
Starting Wavelength (Angstroms) ---  2950 
Final Wavelength (Angstoms) -------  2984 
Wavelength Increment (Angstroms) --  .25 
Filter Wheel #1 Position ---------- (1) Ground quartz diffuser (ND=2.32)
Filter Wheel #2 Position ---------- (1) Neutral Density 0.494



************************************************************
HS scan start time = 17:42:01
Dark Count =  6 


Time (GMT)  Wavelength (Ang)  Step Number  Raw Counts  Counts/Second

 1062.39        2950.00           1222          67.00       265.91
 1062.46        2950.25           1226          70.00       278.99
 1062.49        2950.50           1229          68.00       270.27
 1062.52        2950.75           1232          66.00       261.55
 1062.55        2951.00           1236          74.00       296.43
 1062.58        2951.25           1239          62.00       244.12
 1062.61        2951.50           1242          74.00       296.43
 1062.64        2951.75           1246          62.00       244.12
 1062.67        2952.00           1249          61.00       239.76
 1062.70        2952.25           1252          67.00       265.91
 1062.73        2952.50           1256          77.00       309.51
 1062.76        2952.75           1259          73.00       292.07
 1062.79        2953.00           1262          63.00       248.48
 1062.83        2953.25           1266          67.00       265.91
 1062.86        2953.50           1269          59.00       231.04
 1062.89        2953.75           1272          77.00       309.51
 1062.92        2954.00           1276          64.00       252.84
 1062.95        2954.25           1279          69.00       274.63
 1062.98        2954.50           1282          59.00       231.04
 1063.01        2954.75           1286          68.00       270.27
 1063.04        2955.00           1289          72.00       287.71
 1063.07        2955.25           1292          59.00       231.04
 1063.11        2955.50           1296          68.00       270.27
 1063.14        2955.75           1299          68.00       270.27
 1063.17        2956.00           1302          71.00       283.35
 1063.20        2956.25           1306          67.00       265.91
 1063.23        2956.50           1309          59.00       231.04
 1063.26        2956.75           1312          64.00       252.84
 1063.29        2957.00           1316          71.00       283.35
 1063.32        2957.25           1319          71.00       283.35
 1063.35        2957.50           1322          77.00       309.51
 1063.38        2957.75           1326          69.00       274.63
 1063.41        2958.00           1329          61.00       239.76
 1063.45        2958.25           1332          59.00       231.04
 1063.48        2958.50           1336          76.00       305.15
 1063.51        2958.75           1339          71.00       283.35
 1063.54        2959.00           1342          69.00       274.63
 1063.57        2959.25           1346          68.00       270.27
 1063.60        2959.50           1349          73.00       292.07
 1063.63        2959.75           1352          82.00       331.30
 1063.66        2960.00           1356         102.00       418.49
 1063.69        2960.25           1359         119.00       492.60
 1063.72        2960.50           1362         196.00       828.27
 1063.75        2960.75           1366         222.00       941.61
 1063.78        2961.00           1369         248.00      1054.96
 1063.81        2961.25           1372         300.00      1281.65
 1063.85        2961.50           1376         368.00      1578.10
 1063.88        2961.75           1379         491.00      2114.35
 1063.91        2962.00           1382         960.00      4159.19
 1063.94        2962.25           1386        2749.00     11961.57
 1063.97        2962.50           1389        4276.00     18624.18
 1064.00        2962.75           1392        5727.00     24957.65
 1064.03        2963.00           1396        7703.00     33586.57
 1064.06        2963.25           1399        9445.00     41197.35
 1064.09        2963.50           1402       11054.00     48230.15
 1064.12        2963.75           1406       13190.00     57571.02
 1064.16        2964.00           1409       14770.00     64483.83
 1064.19        2964.25           1412       16469.00     71920.49
 1064.22        2964.50           1416       18664.00     81533.10
 1064.25        2964.75           1419       20176.00     88157.87
 1064.28        2965.00           1422       22047.00     96359.24
 1064.31        2965.25           1426       24032.00    105064.70
 1064.34        2965.50           1429       25809.00    112861.90
 1064.37        2965.75           1432       27400.00    119846.00
 1064.40        2966.00           1436       29523.00    129170.00
 1064.44        2966.25           1439       31043.00    135848.90
 1064.47        2966.50           1442       32521.00    142345.90
 1064.50        2966.75           1446       34141.00    149470.00
 1064.53        2967.00           1449       34500.00    151049.10
 1064.56        2967.25           1452       34799.00    152364.40
 1064.59        2967.50           1456       35060.00    153512.70
 1064.62        2967.75           1459       34795.00    152346.90
 1064.65        2968.00           1462       34910.00    152852.80
 1064.68        2968.25           1466       33717.00    147605.10
 1064.71        2968.50           1469       32488.00    142200.80
 1064.74        2968.75           1472       30933.00    135365.50
 1064.78        2969.00           1476       28820.00    126081.90
 1064.81        2969.25           1479       27223.00    119068.90
 1064.84        2969.50           1482       25749.00    112598.60
 1064.87        2969.75           1486       23532.00    102871.50
 1064.90        2970.00           1489       21849.00     95491.13
 1064.93        2970.25           1492       20613.00     90073.06
 1064.96        2970.50           1496       18525.00     80924.21
 1064.99        2970.75           1499       16784.00     73299.63
 1065.02        2971.00           1502       15144.00     66120.56
 1065.05        2971.25           1506       12844.00     56057.58
 1065.09        2971.50           1509       11283.00     49231.34
 1065.12        2971.75           1513        9075.00     39580.54
 1065.15        2972.00           1516        7605.00     33158.52
 1065.18        2972.25           1519        6056.00     26394.04
 1065.21        2972.50           1523        4141.00     18035.04
 1065.24        2972.75           1526        2657.00     11560.24
 1065.27        2973.00           1529        1313.00      5698.45
 1065.30        2973.25           1533         508.00      2188.46
 1065.33        2973.50           1536         372.00      1595.54
 1065.36        2973.75           1539         305.00      1303.45
 1065.39        2974.00           1543         274.00      1168.31
 1065.43        2974.25           1546         204.00       863.14
 1065.46        2974.50           1549         161.00       675.69
 1065.49        2974.75           1553         115.00       475.16
 1065.52        2975.00           1556          89.00       361.82
 1065.55        2975.25           1559          72.00       287.71
 1065.58        2975.50           1563          63.00       248.48
 1065.61        2975.75           1566          65.00       257.19
 1065.64        2976.00           1569          68.00       270.27
 1065.67        2976.25           1573          51.00       196.17
 1065.70        2976.50           1576          57.00       222.32
 1065.73        2976.75           1579          61.00       239.76
 1065.77        2977.00           1583          63.00       248.48
 1065.80        2977.25           1586          66.00       261.55
 1065.83        2977.50           1590          66.00       261.55
 1065.86        2977.75           1593          61.00       239.76
 1065.89        2978.00           1596          69.00       274.63
 1065.92        2978.25           1600          64.00       252.84
 1065.95        2978.50           1603          61.00       239.76
 1065.98        2978.75           1606          71.00       283.35
 1066.01        2979.00           1610          60.00       235.40
 1066.04        2979.25           1613          63.00       248.48
 1066.07        2979.50           1616          62.00       244.12
 1066.10        2979.75           1620          64.00       252.84
 1066.13        2980.00           1623          67.00       265.91
 1066.16        2980.25           1626          59.00       231.04
 1066.19        2980.50           1630          65.00       257.19
 1066.23        2980.75           1633          67.00       265.91
 1066.26        2981.00           1637          65.00       257.19
 1066.29        2981.25           1640          58.00       226.68
 1066.32        2981.50           1643          63.00       248.48
 1066.35        2981.75           1647          61.00       239.76
 1066.38        2982.00           1650          70.00       278.99
 1066.41        2982.25           1653          60.00       235.40
 1066.44        2982.50           1657          65.00       257.19
 1066.47        2982.75           1660          67.00       265.91
 1066.50        2983.00           1663          54.00       209.24
 1066.53        2983.25           1667          61.00       239.76
 1066.56        2983.50           1670          59.00       231.04
 1066.59        2983.75           1673          55.00       213.60
 1066.63        2984.00           1677          65.00       257.19
HS scan finished at 17:46:50
end
