************************************************************
  HS Scan of (1) Internal mercury lamp
************************************************************
Integration time is 0.2294 seconds per sample
dh191017Manchester 53.47 2.23 2.804185pr1000
************************************************************
Dead Time -------------------------  3E-08 
Number of Cycles Used -------------  4 
Starting Wavelength (Angstroms) ---  2950 
Final Wavelength (Angstoms) -------  2984 
Wavelength Increment (Angstroms) --  .25 
Filter Wheel #1 Position ---------- (1) Ground quartz diffuser (ND=2.32)
Filter Wheel #2 Position ---------- (1) Neutral Density 0.494



************************************************************
HS scan start time = 03:55:34
Dark Count =  4.6 


Time (GMT)  Wavelength (Ang)  Step Number  Raw Counts  Counts/Second

  235.93        2950.00           1222          63.00       254.58
  236.00        2950.25           1226          68.00       276.38
  236.03        2950.50           1229          68.00       276.38
  236.06        2950.75           1232          74.00       302.53
  236.09        2951.00           1236          66.00       267.66
  236.12        2951.25           1239          74.00       302.53
  236.15        2951.50           1242          71.00       289.45
  236.18        2951.75           1246          64.00       258.94
  236.21        2952.00           1249          65.00       263.30
  236.24        2952.25           1252          77.00       315.61
  236.27        2952.50           1256          72.00       293.81
  236.30        2952.75           1259          72.00       293.81
  236.34        2953.00           1262          74.00       302.53
  236.37        2953.25           1266          74.00       302.53
  236.40        2953.50           1269          77.00       315.61
  236.43        2953.75           1272          69.00       280.73
  236.46        2954.00           1276          73.00       298.17
  236.49        2954.25           1279          74.00       302.53
  236.52        2954.50           1282          71.00       289.45
  236.55        2954.75           1286          72.00       293.81
  236.58        2955.00           1289          79.00       324.33
  236.61        2955.25           1292          67.00       272.02
  236.65        2955.50           1296          69.00       280.73
  236.68        2955.75           1299          65.00       263.30
  236.71        2956.00           1302          62.00       250.22
  236.74        2956.25           1306          69.00       280.73
  236.77        2956.50           1309          71.00       289.45
  236.80        2956.75           1312          72.00       293.81
  236.83        2957.00           1316          65.00       263.30
  236.86        2957.25           1319          72.00       293.81
  236.89        2957.50           1322          67.00       272.02
  236.92        2957.75           1326          65.00       263.30
  236.95        2958.00           1329          69.00       280.73
  236.98        2958.25           1332          75.00       306.89
  237.01        2958.50           1336          66.00       267.66
  237.05        2958.75           1339          72.00       293.81
  237.08        2959.00           1342          69.00       280.73
  237.11        2959.25           1346          65.00       263.30
  237.14        2959.50           1349          74.00       302.53
  237.17        2959.75           1352          86.00       354.84
  237.20        2960.00           1356         125.00       524.86
  237.23        2960.25           1359         146.00       616.40
  237.26        2960.50           1362         184.00       782.06
  237.29        2960.75           1366         229.00       978.23
  237.32        2961.00           1369         261.00      1117.74
  237.35        2961.25           1372         316.00      1357.51
  237.38        2961.50           1376         382.00      1645.24
  237.42        2961.75           1379         473.00      2041.97
  237.45        2962.00           1382         929.00      4030.13
  237.48        2962.25           1386        2467.00     10737.55
  237.51        2962.50           1389        3941.00     17168.39
  237.54        2962.75           1392        5474.00     23859.27
  237.57        2963.00           1396        7546.00     32906.93
  237.60        2963.25           1399        9053.00     39490.53
  237.63        2963.50           1402       10474.00     45700.81
  237.66        2963.75           1406       12787.00     55814.40
  237.70        2964.00           1409       14271.00     62306.42
  237.73        2964.25           1412       15906.00     69461.96
  237.76        2964.50           1416       18061.00     78897.95
  237.79        2964.75           1419       19635.00     85793.33
  237.82        2965.00           1422       21336.00     93248.30
  237.85        2965.25           1426       23370.00    102167.10
  237.88        2965.50           1429       24741.00    108181.40
  237.91        2965.75           1432       26455.00    115703.50
  237.94        2966.00           1436       28389.00    124195.10
  237.98        2966.25           1439       29753.00    130186.60
  238.01        2966.50           1442       31180.00    136457.20
  238.04        2966.75           1446       32870.00    143886.50
  238.07        2967.00           1449       33837.00    148139.00
  238.10        2967.25           1452       34074.00    149181.40
  238.13        2967.50           1456       34024.00    148961.50
  238.16        2967.75           1459       34029.00    148983.50
  238.19        2968.00           1462       33978.00    148759.20
  238.22        2968.25           1466       33337.00    145940.10
  238.25        2968.50           1469       32267.00    141235.40
  238.29        2968.75           1472       30766.00    134637.80
  238.32        2969.00           1476       28756.00    125807.00
  238.35        2969.25           1479       27343.00    119601.90
  238.38        2969.50           1482       25686.00    112328.20
  238.41        2969.75           1486       23651.00    103399.60
  238.44        2970.00           1489       22136.00     96755.60
  238.47        2970.25           1492       20507.00     89614.62
  238.50        2970.50           1496       18425.00     80492.31
  238.53        2970.75           1499       16745.00     73135.00
  238.56        2971.00           1502       15139.00     66104.81
  238.59        2971.25           1506       13092.00     57148.46
  238.63        2971.50           1509       11485.00     50120.65
  238.66        2971.75           1513        9550.00     41662.33
  238.69        2972.00           1516        7915.00     34518.73
  238.72        2972.25           1519        6471.00     28212.19
  238.75        2972.50           1523        4347.00     18940.14
  238.78        2972.75           1526        2865.00     12473.72
  238.81        2973.00           1529        1448.00      6293.25
  238.84        2973.25           1533         539.00      2329.72
  238.87        2973.50           1536         374.00      1610.37
  238.90        2973.75           1539         302.00      1296.48
  238.93        2974.00           1543         271.00      1161.33
  238.97        2974.25           1546         198.00       843.09
  239.00        2974.50           1549         175.00       742.82
  239.03        2974.75           1553         119.00       498.70
  239.06        2975.00           1556          95.00       394.08
  239.09        2975.25           1559          75.00       306.89
  239.12        2975.50           1563          76.00       311.25
  239.15        2975.75           1566          65.00       263.30
  239.18        2976.00           1569          60.00       241.50
  239.21        2976.25           1573          66.00       267.66
  239.24        2976.50           1576          62.00       250.22
  239.27        2976.75           1579          60.00       241.50
  239.31        2977.00           1583          57.00       228.42
  239.34        2977.25           1586          61.00       245.86
  239.37        2977.50           1590          67.00       272.02
  239.40        2977.75           1593          71.00       289.45
  239.43        2978.00           1596          71.00       289.45
  239.46        2978.25           1600          69.00       280.73
  239.49        2978.50           1603          67.00       272.02
  239.52        2978.75           1606          59.00       237.14
  239.55        2979.00           1610          75.00       306.89
  239.58        2979.25           1613          68.00       276.38
  239.61        2979.50           1616          64.00       258.94
  239.64        2979.75           1620          66.00       267.66
  239.67        2980.00           1623          62.00       250.22
  239.70        2980.25           1626          61.00       245.86
  239.73        2980.50           1630          65.00       263.30
  239.76        2980.75           1633          67.00       272.02
  239.80        2981.00           1637          60.00       241.50
  239.83        2981.25           1640          60.00       241.50
  239.86        2981.50           1643          72.00       293.81
  239.89        2981.75           1647          61.00       245.86
  239.92        2982.00           1650          61.00       245.86
  239.95        2982.25           1653          56.00       224.06
  239.98        2982.50           1657          56.00       224.06
  240.01        2982.75           1660          61.00       245.86
  240.04        2983.00           1663          64.00       258.94
  240.07        2983.25           1667          58.00       232.78
  240.10        2983.50           1670          56.00       224.06
  240.14        2983.75           1673          65.00       263.30
  240.17        2984.00           1677          54.00       215.35
HS scan finished at 04:00:23
end
************************************************************
  HS Scan of (1) Internal mercury lamp
************************************************************
Integration time is 0.2294 seconds per sample
dh191017Manchester 53.47 2.23 2.804185pr1000
************************************************************
Dead Time -------------------------  3E-08 
Number of Cycles Used -------------  4 
Starting Wavelength (Angstroms) ---  2950 
Final Wavelength (Angstoms) -------  2984 
Wavelength Increment (Angstroms) --  .25 
Filter Wheel #1 Position ---------- (1) Ground quartz diffuser (ND=2.32)
Filter Wheel #2 Position ---------- (1) Neutral Density 0.494



************************************************************
HS scan start time = 18:11:58
Dark Count =  5.7 


Time (GMT)  Wavelength (Ang)  Step Number  Raw Counts  Counts/Second

 1092.34        2950.00           1222          75.00       302.10
 1092.40        2950.25           1226          75.00       302.10
 1092.44        2950.50           1229          74.00       297.74
 1092.47        2950.75           1232          73.00       293.38
 1092.50        2951.00           1236          72.00       289.02
 1092.53        2951.25           1239          78.00       315.17
 1092.56        2951.50           1242          73.00       293.38
 1092.59        2951.75           1246          61.00       241.07
 1092.62        2952.00           1249          90.00       367.48
 1092.65        2952.25           1252          73.00       293.38
 1092.68        2952.50           1256          68.00       271.58
 1092.71        2952.75           1259          75.00       302.10
 1092.74        2953.00           1262          69.00       275.94
 1092.77        2953.25           1266          68.00       271.58
 1092.80        2953.50           1269          69.00       275.94
 1092.83        2953.75           1272          67.00       267.22
 1092.87        2954.00           1276          74.00       297.74
 1092.90        2954.25           1279          62.00       245.42
 1092.93        2954.50           1282          79.00       319.53
 1092.96        2954.75           1286          79.00       319.53
 1092.99        2955.00           1289          63.00       249.78
 1093.02        2955.25           1292          68.00       271.58
 1093.05        2955.50           1296          68.00       271.58
 1093.08        2955.75           1299          74.00       297.74
 1093.11        2956.00           1302          65.00       258.50
 1093.14        2956.25           1306          72.00       289.02
 1093.18        2956.50           1309          60.00       236.71
 1093.21        2956.75           1312          72.00       289.02
 1093.24        2957.00           1316          71.00       284.66
 1093.27        2957.25           1319          67.00       267.22
 1093.30        2957.50           1322          71.00       284.66
 1093.33        2957.75           1326          79.00       319.53
 1093.36        2958.00           1329          67.00       267.22
 1093.39        2958.25           1332          75.00       302.10
 1093.42        2958.50           1336          71.00       284.66
 1093.45        2958.75           1339          71.00       284.66
 1093.48        2959.00           1342          64.00       254.14
 1093.51        2959.25           1346          71.00       284.66
 1093.54        2959.50           1349          71.00       284.66
 1093.58        2959.75           1352          89.00       363.13
 1093.61        2960.00           1356         120.00       498.26
 1093.64        2960.25           1359         147.00       615.97
 1093.67        2960.50           1362         166.00       698.79
 1093.70        2960.75           1366         229.00       973.44
 1093.73        2961.00           1369         264.00      1126.02
 1093.76        2961.25           1372         323.00      1383.23
 1093.79        2961.50           1376         418.00      1797.39
 1093.82        2961.75           1379         701.00      3031.23
 1093.85        2962.00           1382        1576.00      6846.66
 1093.88        2962.25           1386        3421.00     14894.62
 1093.92        2962.50           1389        4851.00     21135.02
 1093.95        2962.75           1392        6399.00     27892.99
 1093.98        2963.00           1396        8380.00     36545.27
 1094.01        2963.25           1399        9919.00     43270.17
 1094.04        2963.50           1402       11515.00     50247.01
 1094.07        2963.75           1406       13632.00     59505.88
 1094.10        2964.00           1409       15101.00     65933.69
 1094.13        2964.25           1412       16734.00     73082.03
 1094.16        2964.50           1416       19112.00     83497.04
 1094.19        2964.75           1419       20816.00     90964.11
 1094.22        2965.00           1422       22098.00     96584.16
 1094.26        2965.25           1426       24324.00    106347.00
 1094.29        2965.50           1429       25905.00    113284.50
 1094.32        2965.75           1432       27427.00    119965.90
 1094.35        2966.00           1436       29547.00    129276.80
 1094.38        2966.25           1439       30954.00    135459.10
 1094.41        2966.50           1442       32342.00    141560.30
 1094.44        2966.75           1446       33525.00    146762.00
 1094.47        2967.00           1449       33871.00    148283.70
 1094.50        2967.25           1452       33885.00    148345.30
 1094.54        2967.50           1456       33887.00    148354.10
 1094.57        2967.75           1459       33934.00    148560.80
 1094.60        2968.00           1462       33420.00    146300.30
 1094.63        2968.25           1466       32388.00    141762.50
 1094.66        2968.50           1469       30785.00    134716.40
 1094.69        2968.75           1472       29564.00    129351.50
 1094.72        2969.00           1476       27466.00    120137.10
 1094.75        2969.25           1479       26084.00    114070.20
 1094.78        2969.50           1482       24516.00    107189.40
 1094.81        2969.75           1486       22562.00     98618.72
 1094.85        2970.00           1489       20885.00     91266.55
 1094.88        2970.25           1492       19401.00     84763.22
 1094.91        2970.50           1496       17266.00     75411.49
 1094.94        2970.75           1499       15612.00     68170.23
 1094.97        2971.00           1502       14111.00     61601.54
 1095.00        2971.25           1506       11944.00     52122.85
 1095.03        2971.50           1509       10199.00     44493.97
 1095.06        2971.75           1513        8234.00     35907.45
 1095.09        2972.00           1516        6779.00     29552.34
 1095.12        2972.25           1519        5141.00     22400.84
 1095.15        2972.50           1523        3260.00     14192.18
 1095.18        2972.75           1526        1921.00      8351.26
 1095.22        2973.00           1529         819.00      3545.71
 1095.25        2973.25           1533         425.00      1827.91
 1095.28        2973.50           1536         328.00      1405.03
 1095.31        2973.75           1539         294.00      1256.80
 1095.34        2974.00           1543         245.00      1043.19
 1095.37        2974.25           1546         207.00       877.53
 1095.40        2974.50           1549         150.00       629.04
 1095.43        2974.75           1553         117.00       485.19
 1095.46        2975.00           1556          87.00       354.41
 1095.49        2975.25           1559          71.00       284.66
 1095.53        2975.50           1563          67.00       267.22
 1095.56        2975.75           1566          59.00       232.35
 1095.59        2976.00           1569          64.00       254.14
 1095.62        2976.25           1573          72.00       289.02
 1095.65        2976.50           1576          67.00       267.22
 1095.68        2976.75           1579          64.00       254.14
 1095.71        2977.00           1583          66.00       262.86
 1095.74        2977.25           1586          66.00       262.86
 1095.77        2977.50           1590          58.00       227.99
 1095.80        2977.75           1593          61.00       241.07
 1095.83        2978.00           1596          65.00       258.50
 1095.86        2978.25           1600          65.00       258.50
 1095.89        2978.50           1603          60.00       236.71
 1095.93        2978.75           1606          71.00       284.66
 1095.96        2979.00           1610          62.00       245.42
 1095.99        2979.25           1613          63.00       249.78
 1096.02        2979.50           1616          64.00       254.14
 1096.05        2979.75           1620          61.00       241.07
 1096.08        2980.00           1623          67.00       267.22
 1096.11        2980.25           1626          63.00       249.78
 1096.14        2980.50           1630          71.00       284.66
 1096.17        2980.75           1633          61.00       241.07
 1096.21        2981.00           1637          60.00       236.71
 1096.24        2981.25           1640          57.00       223.63
 1096.27        2981.50           1643          61.00       241.07
 1096.30        2981.75           1647          57.00       223.63
 1096.33        2982.00           1650          65.00       258.50
 1096.36        2982.25           1653          62.00       245.42
 1096.39        2982.50           1657          60.00       236.71
 1096.42        2982.75           1660          62.00       245.42
 1096.45        2983.00           1663          62.00       245.42
 1096.48        2983.25           1667          61.00       241.07
 1096.51        2983.50           1670          59.00       232.35
 1096.54        2983.75           1673          62.00       245.42
 1096.57        2984.00           1677          58.00       227.99
HS scan finished at 18:16:47
end
