************************************************************
  HS Scan of (1) Internal mercury lamp
************************************************************
Integration time is 0.2294 seconds per sample
dh221017Manchester 53.47 2.23 2.750537pr1000
************************************************************
Dead Time -------------------------  3E-08 
Number of Cycles Used -------------  4 
Starting Wavelength (Angstroms) ---  2950 
Final Wavelength (Angstoms) -------  2984 
Wavelength Increment (Angstroms) --  .25 
Filter Wheel #1 Position ---------- (1) Ground quartz diffuser (ND=2.32)
Filter Wheel #2 Position ---------- (1) Neutral Density 0.494



************************************************************
HS scan start time = 04:01:41
Dark Count =  7.8 


Time (GMT)  Wavelength (Ang)  Step Number  Raw Counts  Counts/Second

  242.05        2950.00           1222          69.00       266.79
  242.12        2950.25           1226          80.00       314.74
  242.15        2950.50           1229          65.00       249.35
  242.18        2950.75           1232          64.00       244.99
  242.21        2951.00           1236          64.00       244.99
  242.24        2951.25           1239          69.00       266.79
  242.27        2951.50           1242          68.00       262.43
  242.30        2951.75           1246          65.00       249.35
  242.33        2952.00           1249          65.00       249.35
  242.36        2952.25           1252          69.00       266.79
  242.39        2952.50           1256          67.00       258.07
  242.42        2952.75           1259          67.00       258.07
  242.45        2953.00           1262          68.00       262.43
  242.48        2953.25           1266          66.00       253.71
  242.51        2953.50           1269          67.00       258.07
  242.54        2953.75           1272          68.00       262.43
  242.58        2954.00           1276          65.00       249.35
  242.61        2954.25           1279          68.00       262.43
  242.64        2954.50           1282          74.00       288.58
  242.67        2954.75           1286          64.00       244.99
  242.70        2955.00           1289          69.00       266.79
  242.73        2955.25           1292          68.00       262.43
  242.76        2955.50           1296          69.00       266.79
  242.79        2955.75           1299          72.00       279.86
  242.82        2956.00           1302          72.00       279.86
  242.85        2956.25           1306          63.00       240.63
  242.88        2956.50           1309          74.00       288.58
  242.91        2956.75           1312          60.00       227.55
  242.94        2957.00           1316          69.00       266.79
  242.97        2957.25           1319          65.00       249.35
  243.00        2957.50           1322          64.00       244.99
  243.03        2957.75           1326          75.00       292.94
  243.06        2958.00           1329          70.00       271.14
  243.09        2958.25           1332          65.00       249.35
  243.13        2958.50           1336          70.00       271.14
  243.16        2958.75           1339          70.00       271.14
  243.19        2959.00           1342          65.00       249.35
  243.22        2959.25           1346          75.00       292.94
  243.25        2959.50           1349          82.00       323.46
  243.28        2959.75           1352          83.00       327.81
  243.31        2960.00           1356         117.00       476.03
  243.34        2960.25           1359         146.00       602.45
  243.37        2960.50           1362         193.00       807.34
  243.40        2960.75           1366         246.00      1038.39
  243.43        2961.00           1369         299.00      1269.45
  243.46        2961.25           1372         323.00      1374.08
  243.49        2961.50           1376         430.00      1840.56
  243.52        2961.75           1379         723.00      3117.99
  243.55        2962.00           1382        1634.00      7090.44
  243.59        2962.25           1386        3402.00     14802.56
  243.62        2962.50           1389        4938.00     21505.59
  243.65        2962.75           1392        6460.00     28150.18
  243.68        2963.00           1396        8329.00     36313.30
  243.71        2963.25           1399        9964.00     43457.67
  243.74        2963.50           1402       11582.00     50530.78
  243.77        2963.75           1406       13725.00     59903.55
  243.80        2964.00           1409       15395.00     67211.24
  243.83        2964.25           1412       16889.00     73751.50
  243.87        2964.50           1416       19396.00     84732.12
  243.90        2964.75           1419       20692.00     90411.42
  243.93        2965.00           1422       22396.00     97881.59
  243.96        2965.25           1426       24582.00    107469.70
  243.99        2965.50           1429       26112.00    114183.90
  244.02        2965.75           1432       27697.00    121142.20
  244.05        2966.00           1436       29566.00    129351.00
  244.08        2966.25           1439       31100.00    136091.60
  244.11        2966.50           1442       32364.00    141647.70
  244.14        2966.75           1446       33619.00    147166.20
  244.17        2967.00           1449       33812.00    148015.00
  244.20        2967.25           1452       33870.00    148270.10
  244.23        2967.50           1456       33780.00    147874.30
  244.27        2967.75           1459       33648.00    147293.70
  244.30        2968.00           1462       33472.00    146519.70
  244.33        2968.25           1466       32036.00    140205.80
  244.36        2968.50           1469       30813.00    134830.30
  244.39        2968.75           1472       29449.00    128837.00
  244.42        2969.00           1476       27205.00    118981.90
  244.45        2969.25           1479       25860.00    113077.80
  244.48        2969.50           1482       24406.00    106697.60
  244.51        2969.75           1486       22287.00     97403.64
  244.54        2970.00           1489       20721.00     90538.52
  244.57        2970.25           1492       19282.00     84232.64
  244.60        2970.50           1496       17099.00     74671.01
  244.63        2970.75           1499       15431.00     67368.80
  244.66        2971.00           1502       13801.00     60236.05
  244.70        2971.25           1506       11767.00     51339.70
  244.73        2971.50           1509       10189.00     44441.08
  244.76        2971.75           1513        8268.00     36046.81
  244.79        2972.00           1516        6669.00     29062.82
  244.82        2972.25           1519        5145.00     22409.13
  244.85        2972.50           1523        3299.00     14353.17
  244.88        2972.75           1526        1821.00      7905.97
  244.91        2973.00           1529         794.00      3427.55
  244.94        2973.25           1533         403.00      1722.84
  244.97        2973.50           1536         309.00      1313.04
  245.00        2973.75           1539         269.00      1138.66
  245.03        2974.00           1543         213.00       894.53
  245.06        2974.25           1546         160.00       663.48
  245.09        2974.50           1549         118.00       480.39
  245.13        2974.75           1553          97.00       388.85
  245.16        2975.00           1556          78.00       306.02
  245.19        2975.25           1559          66.00       253.71
  245.22        2975.50           1563          67.00       258.07
  245.25        2975.75           1566          67.00       258.07
  245.28        2976.00           1569          67.00       258.07
  245.31        2976.25           1573          69.00       266.79
  245.34        2976.50           1576          71.00       275.50
  245.37        2976.75           1579          59.00       223.19
  245.40        2977.00           1583          65.00       249.35
  245.43        2977.25           1586          63.00       240.63
  245.46        2977.50           1590          59.00       223.19
  245.49        2977.75           1593          61.00       231.91
  245.52        2978.00           1596          61.00       231.91
  245.55        2978.25           1600          65.00       249.35
  245.58        2978.50           1603          56.00       210.11
  245.61        2978.75           1606          70.00       271.14
  245.65        2979.00           1610          72.00       279.86
  245.68        2979.25           1613          60.00       227.55
  245.71        2979.50           1616          66.00       253.71
  245.74        2979.75           1620          62.00       236.27
  245.77        2980.00           1623          66.00       253.71
  245.80        2980.25           1626          68.00       262.43
  245.83        2980.50           1630          63.00       240.63
  245.86        2980.75           1633          65.00       249.35
  245.89        2981.00           1637          57.00       214.47
  245.92        2981.25           1640          65.00       249.35
  245.95        2981.50           1643          54.00       201.40
  245.98        2981.75           1647          60.00       227.55
  246.01        2982.00           1650          61.00       231.91
  246.05        2982.25           1653          69.00       266.79
  246.08        2982.50           1657          63.00       240.63
  246.11        2982.75           1660          77.00       301.66
  246.14        2983.00           1663          56.00       210.11
  246.17        2983.25           1667          60.00       227.55
  246.20        2983.50           1670          61.00       231.91
  246.23        2983.75           1673          72.00       279.86
  246.26        2984.00           1677          57.00       214.47
HS scan finished at 04:06:29
end
************************************************************
  HS Scan of (1) Internal mercury lamp
************************************************************
Integration time is 0.2294 seconds per sample
dh221017Manchester 53.47 2.23 2.804185pr1000
************************************************************
Dead Time -------------------------  3E-08 
Number of Cycles Used -------------  4 
Starting Wavelength (Angstroms) ---  2950 
Final Wavelength (Angstoms) -------  2984 
Wavelength Increment (Angstroms) --  .25 
Filter Wheel #1 Position ---------- (1) Ground quartz diffuser (ND=2.32)
Filter Wheel #2 Position ---------- (1) Neutral Density 0.494



************************************************************
HS scan start time = 17:41:58
Dark Count =  6.2 


Time (GMT)  Wavelength (Ang)  Step Number  Raw Counts  Counts/Second

 1062.34        2950.00           1222          76.00       304.27
 1062.41        2950.25           1226          70.00       278.12
 1062.44        2950.50           1229          67.00       265.04
 1062.47        2950.75           1232          66.00       260.68
 1062.50        2951.00           1236          62.00       243.25
 1062.53        2951.25           1239          74.00       295.56
 1062.56        2951.50           1242          68.00       269.40
 1062.59        2951.75           1246          68.00       269.40
 1062.62        2952.00           1249          71.00       282.48
 1062.65        2952.25           1252          72.00       286.84
 1062.68        2952.50           1256          73.00       291.20
 1062.71        2952.75           1259          66.00       260.68
 1062.75        2953.00           1262          66.00       260.68
 1062.78        2953.25           1266          76.00       304.27
 1062.81        2953.50           1269          67.00       265.04
 1062.84        2953.75           1272          83.00       334.79
 1062.87        2954.00           1276          74.00       295.56
 1062.90        2954.25           1279          72.00       286.84
 1062.93        2954.50           1282          69.00       273.76
 1062.96        2954.75           1286          71.00       282.48
 1062.99        2955.00           1289          62.00       243.25
 1063.02        2955.25           1292          68.00       269.40
 1063.05        2955.50           1296          70.00       278.12
 1063.08        2955.75           1299          66.00       260.68
 1063.11        2956.00           1302          71.00       282.48
 1063.14        2956.25           1306          73.00       291.20
 1063.17        2956.50           1309          65.00       256.32
 1063.20        2956.75           1312          71.00       282.48
 1063.23        2957.00           1316          69.00       273.76
 1063.27        2957.25           1319          60.00       234.53
 1063.30        2957.50           1322          70.00       278.12
 1063.33        2957.75           1326          75.00       299.92
 1063.36        2958.00           1329          69.00       273.76
 1063.39        2958.25           1332          69.00       273.76
 1063.42        2958.50           1336          70.00       278.12
 1063.45        2958.75           1339          70.00       278.12
 1063.48        2959.00           1342          84.00       339.15
 1063.51        2959.25           1346          78.00       312.99
 1063.54        2959.50           1349          76.00       304.27
 1063.57        2959.75           1352          86.00       347.87
 1063.60        2960.00           1356         114.00       469.93
 1063.63        2960.25           1359         151.00       631.22
 1063.66        2960.50           1362         169.00       709.69
 1063.69        2960.75           1366         231.00       979.98
 1063.73        2961.00           1369         264.00      1123.84
 1063.76        2961.25           1372         299.00      1276.42
 1063.79        2961.50           1376         393.00      1686.22
 1063.82        2961.75           1379         510.00      2196.31
 1063.85        2962.00           1382        1000.00      4332.73
 1063.88        2962.25           1386        2710.00     11790.57
 1063.91        2962.50           1389        4158.00     18108.35
 1063.94        2962.75           1392        5723.00     24939.32
 1063.97        2963.00           1396        7605.00     33157.64
 1064.00        2963.25           1399        9132.00     39828.73
 1064.03        2963.50           1402       10686.00     46620.53
 1064.06        2963.75           1406       13065.00     57023.37
 1064.09        2964.00           1409       14661.00     64005.96
 1064.13        2964.25           1412       16011.00     69914.58
 1064.16        2964.50           1416       18147.00     79267.62
 1064.19        2964.75           1419       19744.00     86263.94
 1064.22        2965.00           1422       21402.00     93530.60
 1064.25        2965.25           1426       23515.00    102796.00
 1064.28        2965.50           1429       25156.00    109995.30
 1064.31        2965.75           1432       26724.00    116877.30
 1064.34        2966.00           1436       28763.00    125830.70
 1064.37        2966.25           1439       30227.00    132262.20
 1064.40        2966.50           1442       31578.00    138199.50
 1064.43        2966.75           1446       33009.00    144490.70
 1064.46        2967.00           1449       33449.00    146425.60
 1064.50        2967.25           1452       33600.00    147089.70
 1064.53        2967.50           1456       33444.00    146403.60
 1064.56        2967.75           1459       33548.00    146861.00
 1064.59        2968.00           1462       33339.00    145941.90
 1064.62        2968.25           1466       32460.00    142076.80
 1064.65        2968.50           1469       31205.00    136560.10
 1064.68        2968.75           1472       29541.00    129248.20
 1064.71        2969.00           1476       27578.00    120626.70
 1064.74        2969.25           1479       26042.00    113883.60
 1064.77        2969.50           1482       24543.00    107305.70
 1064.80        2969.75           1486       22384.00     97836.00
 1064.83        2970.00           1489       21021.00     91860.48
 1064.86        2970.25           1492       19459.00     85015.16
 1064.90        2970.50           1496       17687.00     77252.95
 1064.93        2970.75           1499       16007.00     69897.07
 1064.96        2971.00           1502       14564.00     63581.49
 1064.99        2971.25           1506       12272.00     53555.03
 1065.02        2971.50           1509       10619.00     46327.64
 1065.05        2971.75           1513        8457.00     36879.49
 1065.08        2972.00           1516        7032.00     30655.03
 1065.11        2972.25           1519        5636.00     24559.50
 1065.14        2972.50           1523        3691.00     16070.52
 1065.17        2972.75           1526        2411.00     10486.30
 1065.20        2973.00           1529        1209.00      5244.07
 1065.24        2973.25           1533         450.00      1934.72
 1065.27        2973.50           1536         346.00      1481.32
 1065.30        2973.75           1539         298.00      1272.06
 1065.33        2974.00           1543         267.00      1136.92
 1065.36        2974.25           1546         212.00       897.15
 1065.39        2974.50           1549         161.00       674.82
 1065.42        2974.75           1553         111.00       456.85
 1065.45        2975.00           1556          93.00       378.38
 1065.48        2975.25           1559          74.00       295.56
 1065.51        2975.50           1563          68.00       269.40
 1065.54        2975.75           1566          69.00       273.76
 1065.57        2976.00           1569          66.00       260.68
 1065.60        2976.25           1573          57.00       221.45
 1065.63        2976.50           1576          58.00       225.81
 1065.66        2976.75           1579          60.00       234.53
 1065.69        2977.00           1583          67.00       265.04
 1065.72        2977.25           1586          74.00       295.56
 1065.75        2977.50           1590          67.00       265.04
 1065.79        2977.75           1593          67.00       265.04
 1065.82        2978.00           1596          63.00       247.60
 1065.85        2978.25           1600          61.00       238.89
 1065.88        2978.50           1603          62.00       243.25
 1065.91        2978.75           1606          62.00       243.25
 1065.94        2979.00           1610          60.00       234.53
 1065.97        2979.25           1613          65.00       256.32
 1066.00        2979.50           1616          62.00       243.25
 1066.03        2979.75           1620          70.00       278.12
 1066.06        2980.00           1623          66.00       260.68
 1066.09        2980.25           1626          65.00       256.32
 1066.12        2980.50           1630          72.00       286.84
 1066.15        2980.75           1633          66.00       260.68
 1066.18        2981.00           1637          63.00       247.60
 1066.22        2981.25           1640          62.00       243.25
 1066.25        2981.50           1643          67.00       265.04
 1066.28        2981.75           1647          55.00       212.73
 1066.31        2982.00           1650          60.00       234.53
 1066.34        2982.25           1653          63.00       247.60
 1066.37        2982.50           1657          60.00       234.53
 1066.40        2982.75           1660          61.00       238.89
 1066.43        2983.00           1663          69.00       273.76
 1066.46        2983.25           1667          66.00       260.68
 1066.49        2983.50           1670          57.00       221.45
 1066.52        2983.75           1673          53.00       204.01
 1066.55        2984.00           1677          68.00       269.40
HS scan finished at 17:46:46
end
