************************************************************
  HS Scan of (1) Internal mercury lamp
************************************************************
Integration time is 0.2294 seconds per sample
dh181018Manchester 53.47 2.23 2.804185pr1000
************************************************************
Dead Time -------------------------  3E-08 
Number of Cycles Used -------------  4 
Starting Wavelength (Angstroms) ---  2950 
Final Wavelength (Angstoms) -------  2984 
Wavelength Increment (Angstroms) --  .25 
Filter Wheel #1 Position ---------- (1) Ground quartz diffuser (ND=2.32)
Filter Wheel #2 Position ---------- (1) Neutral Density 0.494



************************************************************
HS scan start time = 03:52:54
Dark Count =  6.4 


Time (GMT)  Wavelength (Ang)  Step Number  Raw Counts  Counts/Second

  233.28        2950.00           1222          61.00       238.01
  233.34        2950.25           1226          51.00       194.42
  233.37        2950.50           1229          47.00       176.98
  233.40        2950.75           1232          55.00       211.86
  233.44        2951.00           1236          54.00       207.50
  233.47        2951.25           1239          55.00       211.86
  233.50        2951.50           1242          42.00       155.19
  233.53        2951.75           1246          50.00       190.06
  233.56        2952.00           1249          48.00       181.34
  233.59        2952.25           1252          47.00       176.98
  233.62        2952.50           1256          48.00       181.34
  233.65        2952.75           1259          44.00       163.91
  233.68        2953.00           1262          56.00       216.22
  233.71        2953.25           1266          47.00       176.98
  233.74        2953.50           1269          45.00       168.27
  233.78        2953.75           1272          50.00       190.06
  233.81        2954.00           1276          48.00       181.34
  233.84        2954.25           1279          44.00       163.91
  233.87        2954.50           1282          60.00       233.65
  233.90        2954.75           1286          53.00       203.14
  233.93        2955.00           1289          49.00       185.70
  233.96        2955.25           1292          51.00       194.42
  233.99        2955.50           1296          50.00       190.06
  234.02        2955.75           1299          50.00       190.06
  234.05        2956.00           1302          51.00       194.42
  234.09        2956.25           1306          53.00       203.14
  234.12        2956.50           1309          49.00       185.70
  234.15        2956.75           1312          53.00       203.14
  234.18        2957.00           1316          48.00       181.34
  234.21        2957.25           1319          48.00       181.34
  234.24        2957.50           1322          47.00       176.98
  234.27        2957.75           1326          48.00       181.34
  234.30        2958.00           1329          43.00       159.55
  234.33        2958.25           1332          55.00       211.86
  234.36        2958.50           1336          41.00       150.83
  234.39        2958.75           1339          45.00       168.27
  234.43        2959.00           1342          51.00       194.42
  234.46        2959.25           1346          51.00       194.42
  234.49        2959.50           1349          56.00       216.22
  234.52        2959.75           1352          58.00       224.94
  234.55        2960.00           1356          82.00       329.56
  234.58        2960.25           1359          97.00       394.95
  234.61        2960.50           1362         117.00       482.13
  234.64        2960.75           1366         160.00       669.59
  234.67        2961.00           1369         191.00       804.73
  234.70        2961.25           1372         218.00       922.43
  234.73        2961.50           1376         271.00      1153.48
  234.76        2961.75           1379         419.00      1798.70
  234.79        2962.00           1382         931.00      4031.00
  234.83        2962.25           1386        2221.00      9656.68
  234.86        2962.50           1389        3290.00     14320.02
  234.89        2962.75           1392        4475.00     19490.91
  234.92        2963.00           1396        6062.00     26418.49
  234.95        2963.25           1399        7139.00     31121.46
  234.98        2963.50           1402        8265.00     36039.82
  235.01        2963.75           1406        9892.00     43149.11
  235.04        2964.00           1409       11049.00     48206.55
  235.07        2964.25           1412       12310.00     53720.34
  235.10        2964.50           1416       13891.00     60635.92
  235.14        2964.75           1419       15141.00     66105.69
  235.17        2965.00           1422       16283.00     71104.44
  235.20        2965.25           1426       17755.00     77549.88
  235.23        2965.50           1429       19024.00     83108.44
  235.26        2965.75           1432       20071.00     87695.97
  235.29        2966.00           1436       21507.00     93990.03
  235.32        2966.25           1439       22516.00     98413.93
  235.35        2966.50           1442       23633.00    103312.70
  235.38        2966.75           1446       24687.00    107936.60
  235.41        2967.00           1449       25309.00    110665.80
  235.45        2967.25           1452       25487.00    111447.00
  235.48        2967.50           1456       25381.00    110981.80
  235.51        2967.75           1459       25341.00    110806.30
  235.54        2968.00           1462       25112.00    109801.40
  235.57        2968.25           1466       24414.00    106738.80
  235.60        2968.50           1469       23418.00    102369.70
  235.63        2968.75           1472       22352.00     97694.81
  235.66        2969.00           1476       20801.00     90895.31
  235.69        2969.25           1479       19595.00     85610.18
  235.73        2969.50           1482       18655.00     81491.93
  235.76        2969.75           1486       17146.00     74882.94
  235.79        2970.00           1489       15901.00     69432.18
  235.82        2970.25           1492       14770.00     64482.07
  235.85        2970.50           1496       13146.00     57376.80
  235.88        2970.75           1499       11933.00     52071.70
  235.91        2971.00           1502       10719.00     46763.91
  235.94        2971.25           1506        9290.00     40518.27
  235.97        2971.50           1509        8142.00     35502.49
  236.00        2971.75           1513        6524.00     28435.76
  236.04        2972.00           1516        5464.00     23807.76
  236.07        2972.25           1519        4284.00     18657.35
  236.10        2972.50           1523        2756.00     11990.36
  236.13        2972.75           1526        1686.00      7323.32
  236.16        2973.00           1529         743.00      3211.29
  236.19        2973.25           1533         356.00      1524.05
  236.22        2973.50           1536         268.00      1140.41
  236.25        2973.75           1539         236.00      1000.90
  236.28        2974.00           1543         195.00       822.17
  236.31        2974.25           1546         147.00       612.91
  236.35        2974.50           1549         129.00       534.45
  236.38        2974.75           1553          95.00       386.23
  236.41        2975.00           1556          68.00       268.53
  236.44        2975.25           1559          57.00       220.58
  236.47        2975.50           1563          58.00       224.94
  236.50        2975.75           1566          49.00       185.70
  236.53        2976.00           1569          49.00       185.70
  236.56        2976.25           1573          46.00       172.63
  236.59        2976.50           1576          47.00       176.98
  236.62        2976.75           1579          42.00       155.19
  236.65        2977.00           1583          43.00       159.55
  236.68        2977.25           1586          47.00       176.98
  236.71        2977.50           1590          53.00       203.14
  236.74        2977.75           1593          42.00       155.19
  236.78        2978.00           1596          46.00       172.63
  236.81        2978.25           1600          45.00       168.27
  236.84        2978.50           1603          54.00       207.50
  236.87        2978.75           1606          45.00       168.27
  236.90        2979.00           1610          40.00       146.47
  236.93        2979.25           1613          48.00       181.34
  236.96        2979.50           1616          53.00       203.14
  236.99        2979.75           1620          51.00       194.42
  237.02        2980.00           1623          42.00       155.19
  237.05        2980.25           1626          42.00       155.19
  237.08        2980.50           1630          46.00       172.63
  237.12        2980.75           1633          46.00       172.63
  237.15        2981.00           1637          44.00       163.91
  237.18        2981.25           1640          46.00       172.63
  237.21        2981.50           1643          52.00       198.78
  237.24        2981.75           1647          49.00       185.70
  237.27        2982.00           1650          43.00       159.55
  237.30        2982.25           1653          45.00       168.27
  237.33        2982.50           1657          48.00       181.34
  237.36        2982.75           1660          45.00       168.27
  237.39        2983.00           1663          53.00       203.14
  237.42        2983.25           1667          44.00       163.91
  237.45        2983.50           1670          47.00       176.98
  237.48        2983.75           1673          42.00       155.19
  237.51        2984.00           1677          44.00       163.91
HS scan finished at 03:57:44
end
************************************************************
  HS Scan of (1) Internal mercury lamp
************************************************************
Integration time is 0.2294 seconds per sample
dh181018Manchester 53.47 2.23 2.804185pr1000
************************************************************
Dead Time -------------------------  3E-08 
Number of Cycles Used -------------  4 
Starting Wavelength (Angstroms) ---  2950 
Final Wavelength (Angstoms) -------  2984 
Wavelength Increment (Angstroms) --  .25 
Filter Wheel #1 Position ---------- (1) Ground quartz diffuser (ND=2.32)
Filter Wheel #2 Position ---------- (1) Neutral Density 0.494



************************************************************
HS scan start time = 18:12:02
Dark Count =  5 


Time (GMT)  Wavelength (Ang)  Step Number  Raw Counts  Counts/Second

 1092.41        2950.00           1222          58.00       231.04
 1092.47        2950.25           1226          44.00       170.01
 1092.50        2950.50           1229          52.00       204.88
 1092.54        2950.75           1232          46.00       178.73
 1092.57        2951.00           1236          49.00       191.81
 1092.60        2951.25           1239          55.00       217.96
 1092.63        2951.50           1242          52.00       204.88
 1092.66        2951.75           1246          51.00       200.52
 1092.69        2952.00           1249          48.00       187.45
 1092.72        2952.25           1252          51.00       200.52
 1092.75        2952.50           1256          49.00       191.81
 1092.78        2952.75           1259          51.00       200.52
 1092.81        2953.00           1262          56.00       222.32
 1092.84        2953.25           1266          50.00       196.17
 1092.87        2953.50           1269          46.00       178.73
 1092.90        2953.75           1272          46.00       178.73
 1092.94        2954.00           1276          55.00       217.96
 1092.97        2954.25           1279          50.00       196.17
 1093.00        2954.50           1282          57.00       226.68
 1093.03        2954.75           1286          44.00       170.01
 1093.06        2955.00           1289          50.00       196.17
 1093.09        2955.25           1292          43.00       165.65
 1093.12        2955.50           1296          59.00       235.40
 1093.15        2955.75           1299          52.00       204.88
 1093.18        2956.00           1302          45.00       174.37
 1093.21        2956.25           1306          44.00       170.01
 1093.24        2956.50           1309          52.00       204.88
 1093.28        2956.75           1312          55.00       217.96
 1093.31        2957.00           1316          52.00       204.88
 1093.34        2957.25           1319          57.00       226.68
 1093.37        2957.50           1322          49.00       191.81
 1093.40        2957.75           1326          49.00       191.81
 1093.43        2958.00           1329          44.00       170.01
 1093.46        2958.25           1332          43.00       165.65
 1093.49        2958.50           1336          48.00       187.45
 1093.52        2958.75           1339          55.00       217.96
 1093.55        2959.00           1342          65.00       261.55
 1093.58        2959.25           1346          47.00       183.09
 1093.61        2959.50           1349          49.00       191.81
 1093.64        2959.75           1352          62.00       248.48
 1093.68        2960.00           1356          75.00       305.15
 1093.71        2960.25           1359          95.00       392.33
 1093.74        2960.50           1362         126.00       527.47
 1093.77        2960.75           1366         160.00       675.69
 1093.80        2961.00           1369         202.00       858.78
 1093.83        2961.25           1372         232.00       989.57
 1093.86        2961.50           1376         277.00      1185.74
 1093.89        2961.75           1379         407.00      1752.49
 1093.92        2962.00           1382         930.00      4032.75
 1093.95        2962.25           1386        2232.00      9710.76
 1093.98        2962.50           1389        3397.00     14792.96
 1094.01        2962.75           1392        4485.00     19540.66
 1094.04        2963.00           1396        6015.00     26219.40
 1094.07        2963.25           1399        7097.00     30944.15
 1094.10        2963.50           1402        8228.00     35884.29
 1094.14        2963.75           1406        9726.00     42429.74
 1094.17        2964.00           1409       10857.00     47373.30
 1094.20        2964.25           1412       12120.00     52895.56
 1094.23        2964.50           1416       13699.00     59802.05
 1094.26        2964.75           1419       14772.00     64496.96
 1094.29        2965.00           1422       16040.00     70046.78
 1094.32        2965.25           1426       17660.00     77139.95
 1094.35        2965.50           1429       18885.00     82505.62
 1094.38        2965.75           1432       20115.00     87894.93
 1094.42        2966.00           1436       21429.00     93654.22
 1094.45        2966.25           1439       22664.00     99069.08
 1094.48        2966.50           1442       23828.00    104174.20
 1094.51        2966.75           1446       24773.00    108320.10
 1094.54        2967.00           1449       25114.00    109816.30
 1094.57        2967.25           1452       25190.00    110149.80
 1094.60        2967.50           1456       25104.00    109772.40
 1094.63        2967.75           1459       25139.00    109926.00
 1094.66        2968.00           1462       25100.00    109754.90
 1094.69        2968.25           1466       24307.00    106275.50
 1094.73        2968.50           1469       23299.00    101853.90
 1094.76        2968.75           1472       22296.00     97455.39
 1094.79        2969.00           1476       20581.00     89937.19
 1094.82        2969.25           1479       19555.00     85441.05
 1094.85        2969.50           1482       18655.00     81498.06
 1094.88        2969.75           1486       16936.00     73969.55
 1094.91        2970.00           1489       15746.00     68759.83
 1094.94        2970.25           1492       14634.00     63893.07
 1094.97        2970.50           1496       13184.00     57549.14
 1095.01        2970.75           1499       11884.00     51863.55
 1095.04        2971.00           1502       10820.00     47211.55
 1095.07        2971.25           1506        9158.00     39947.58
 1095.10        2971.50           1509        8018.00     34966.92
 1095.13        2971.75           1513        6504.00     28354.54
 1095.16        2972.00           1516        5337.00     23259.47
 1095.19        2972.25           1519        4198.00     18288.15
 1095.22        2972.50           1523        2701.00     11756.54
 1095.25        2972.75           1526        1653.00      7185.51
 1095.28        2973.00           1529         774.00      3352.56
 1095.32        2973.25           1533         346.00      1486.55
 1095.35        2973.50           1536         270.00      1155.23
 1095.38        2973.75           1539         223.00       950.33
 1095.41        2974.00           1543         182.00       771.60
 1095.44        2974.25           1546         147.00       619.02
 1095.47        2974.50           1549         110.00       457.72
 1095.50        2974.75           1553          74.00       300.79
 1095.53        2975.00           1556          64.00       257.19
 1095.56        2975.25           1559          51.00       200.52
 1095.59        2975.50           1563          52.00       204.88
 1095.62        2975.75           1566          50.00       196.17
 1095.65        2976.00           1569          52.00       204.88
 1095.68        2976.25           1573          42.00       161.29
 1095.72        2976.50           1576          50.00       196.17
 1095.75        2976.75           1579          53.00       209.24
 1095.78        2977.00           1583          44.00       170.01
 1095.81        2977.25           1586          48.00       187.45
 1095.84        2977.50           1590          41.00       156.93
 1095.87        2977.75           1593          43.00       165.65
 1095.90        2978.00           1596          42.00       161.29
 1095.93        2978.25           1600          42.00       161.29
 1095.96        2978.50           1603          42.00       161.29
 1095.99        2978.75           1606          52.00       204.88
 1096.02        2979.00           1610          50.00       196.17
 1096.05        2979.25           1613          44.00       170.01
 1096.08        2979.50           1616          51.00       200.52
 1096.11        2979.75           1620          47.00       183.09
 1096.14        2980.00           1623          46.00       178.73
 1096.18        2980.25           1626          39.00       148.21
 1096.21        2980.50           1630          44.00       170.01
 1096.24        2980.75           1633          41.00       156.93
 1096.27        2981.00           1637          44.00       170.01
 1096.30        2981.25           1640          47.00       183.09
 1096.33        2981.50           1643          41.00       156.93
 1096.36        2981.75           1647          45.00       174.37
 1096.41        2982.00           1650          43.00       165.65
 1096.46        2982.25           1653          47.00       183.09
 1096.49        2982.50           1657          50.00       196.17
 1096.52        2982.75           1660          50.00       196.17
 1096.56        2983.00           1663          43.00       165.65
 1096.59        2983.25           1667          50.00       196.17
 1096.62        2983.50           1670          46.00       178.73
 1096.65        2983.75           1673          45.00       174.37
 1096.68        2984.00           1677          46.00       178.73
HS scan finished at 18:16:54
end
