************************************************************
  HS Scan of (1) Internal mercury lamp
************************************************************
Integration time is 0.2294 seconds per sample
dh201018Manchester 53.47 2.23 2.804185pr1000
************************************************************
Dead Time -------------------------  3E-08 
Number of Cycles Used -------------  4 
Starting Wavelength (Angstroms) ---  2950 
Final Wavelength (Angstoms) -------  2984 
Wavelength Increment (Angstroms) --  .25 
Filter Wheel #1 Position ---------- (1) Ground quartz diffuser (ND=2.32)
Filter Wheel #2 Position ---------- (1) Neutral Density 0.494



************************************************************
HS scan start time = 03:57:10
Dark Count =  6.5 


Time (GMT)  Wavelength (Ang)  Step Number  Raw Counts  Counts/Second

  237.53        2950.00           1222          49.00       185.27
  237.60        2950.25           1226          52.00       198.34
  237.63        2950.50           1229          49.00       185.27
  237.66        2950.75           1232          52.00       198.34
  237.69        2951.00           1236          56.00       215.78
  237.72        2951.25           1239          48.00       180.91
  237.75        2951.50           1242          49.00       185.27
  237.78        2951.75           1246          47.00       176.55
  237.81        2952.00           1249          52.00       198.34
  237.84        2952.25           1252          45.00       167.83
  237.87        2952.50           1256          55.00       211.42
  237.90        2952.75           1259          48.00       180.91
  237.93        2953.00           1262          54.00       207.06
  237.96        2953.25           1266          46.00       172.19
  238.00        2953.50           1269          56.00       215.78
  238.03        2953.75           1272          57.00       220.14
  238.06        2954.00           1276          50.00       189.63
  238.09        2954.25           1279          49.00       185.27
  238.12        2954.50           1282          47.00       176.55
  238.15        2954.75           1286          48.00       180.91
  238.18        2955.00           1289          54.00       207.06
  238.21        2955.25           1292          54.00       207.06
  238.24        2955.50           1296          50.00       189.63
  238.27        2955.75           1299          44.00       163.47
  238.30        2956.00           1302          50.00       189.63
  238.33        2956.25           1306          50.00       189.63
  238.36        2956.50           1309          48.00       180.91
  238.39        2956.75           1312          48.00       180.91
  238.43        2957.00           1316          46.00       172.19
  238.46        2957.25           1319          52.00       198.34
  238.49        2957.50           1322          47.00       176.55
  238.52        2957.75           1326          49.00       185.27
  238.55        2958.00           1329          52.00       198.34
  238.58        2958.25           1332          52.00       198.34
  238.61        2958.50           1336          51.00       193.99
  238.64        2958.75           1339          49.00       185.27
  238.67        2959.00           1342          59.00       228.86
  238.70        2959.25           1346          58.00       224.50
  238.73        2959.50           1349          58.00       224.50
  238.76        2959.75           1352          70.00       276.81
  238.79        2960.00           1356          82.00       329.12
  238.82        2960.25           1359         104.00       425.03
  238.85        2960.50           1362         127.00       525.29
  238.89        2960.75           1366         165.00       690.95
  238.92        2961.00           1369         212.00       895.84
  238.95        2961.25           1372         234.00       991.75
  238.98        2961.50           1376         293.00      1248.96
  239.01        2961.75           1379         434.00      1863.66
  239.04        2962.00           1382         979.00      4239.86
  239.07        2962.25           1386        2331.00     10136.04
  239.10        2962.50           1389        3467.00     15091.84
  239.13        2962.75           1392        4580.00     19948.73
  239.16        2963.00           1396        6143.00     26771.71
  239.19        2963.25           1399        7156.00     31195.27
  239.22        2963.50           1402        8267.00     36048.12
  239.25        2963.75           1406        9904.00     43201.12
  239.29        2964.00           1409       10961.00     47821.39
  239.32        2964.25           1412       12176.00     53133.89
  239.35        2964.50           1416       13765.00     60084.23
  239.38        2964.75           1419       14798.00     64604.17
  239.41        2965.00           1422       16074.00     70189.05
  239.44        2965.25           1426       17692.00     77273.53
  239.47        2965.50           1429       18851.00     82350.10
  239.50        2965.75           1432       20266.00     88550.09
  239.53        2966.00           1436       21523.00     94059.72
  239.56        2966.25           1439       22725.00     99329.99
  239.60        2966.50           1442       23807.00    104075.50
  239.63        2966.75           1446       24984.00    109239.30
  239.66        2967.00           1449       25187.00    110130.10
  239.69        2967.25           1452       25236.00    110345.10
  239.72        2967.50           1456       25120.00    109836.10
  239.75        2967.75           1459       25235.00    110340.70
  239.78        2968.00           1462       25033.00    109454.30
  239.81        2968.25           1466       24434.00    106826.10
  239.84        2968.50           1469       23302.00    101860.50
  239.87        2968.75           1472       22236.00     97185.72
  239.90        2969.00           1476       20601.00     90018.27
  239.93        2969.25           1479       19717.00     86144.31
  239.97        2969.50           1482       18376.00     80269.35
  240.00        2969.75           1486       17008.00     74278.25
  240.03        2970.00           1489       15936.00     69584.96
  240.06        2970.25           1492       14611.00     63785.85
  240.09        2970.50           1496       13202.00     57621.32
  240.12        2970.75           1499       11905.00     51948.82
  240.15        2971.00           1502       10786.00     47056.36
  240.18        2971.25           1506        9133.00     39831.79
  240.21        2971.50           1509        8054.00     35117.62
  240.24        2971.75           1513        6451.00     28116.56
  240.27        2972.00           1516        5323.00     23191.81
  240.30        2972.25           1519        4113.00     17910.67
  240.33        2972.50           1523        2689.00     11697.65
  240.37        2972.75           1526        1688.00      7331.60
  240.40        2973.00           1529         765.00      3306.78
  240.43        2973.25           1533         350.00      1497.45
  240.46        2973.50           1536         255.00      1083.30
  240.49        2973.75           1539         216.00       913.28
  240.52        2974.00           1543         194.00       817.37
  240.55        2974.25           1546         126.00       520.93
  240.58        2974.50           1549          89.00       359.64
  240.61        2974.75           1553          73.00       289.89
  240.64        2975.00           1556          51.00       193.99
  240.67        2975.25           1559          55.00       211.42
  240.70        2975.50           1563          45.00       167.83
  240.73        2975.75           1566          43.00       159.11
  240.76        2976.00           1569          50.00       189.63
  240.79        2976.25           1573          44.00       163.47
  240.82        2976.50           1576          54.00       207.06
  240.86        2976.75           1579          52.00       198.34
  240.89        2977.00           1583          42.00       154.75
  240.92        2977.25           1586          52.00       198.34
  240.95        2977.50           1590          40.00       146.03
  240.98        2977.75           1593          46.00       172.19
  241.01        2978.00           1596          49.00       185.27
  241.04        2978.25           1600          44.00       163.47
  241.07        2978.50           1603          42.00       154.75
  241.10        2978.75           1606          47.00       176.55
  241.13        2979.00           1610          45.00       167.83
  241.16        2979.25           1613          44.00       163.47
  241.19        2979.50           1616          47.00       176.55
  241.22        2979.75           1620          45.00       167.83
  241.25        2980.00           1623          45.00       167.83
  241.29        2980.25           1626          38.00       137.32
  241.32        2980.50           1630          46.00       172.19
  241.35        2980.75           1633          42.00       154.75
  241.38        2981.00           1637          42.00       154.75
  241.41        2981.25           1640          42.00       154.75
  241.44        2981.50           1643          40.00       146.03
  241.47        2981.75           1647          50.00       189.63
  241.50        2982.00           1650          48.00       180.91
  241.53        2982.25           1653          43.00       159.11
  241.56        2982.50           1657          37.00       132.96
  241.59        2982.75           1660          45.00       167.83
  241.62        2983.00           1663          47.00       176.55
  241.65        2983.25           1667          45.00       167.83
  241.68        2983.50           1670          48.00       180.91
  241.71        2983.75           1673          41.00       150.39
  241.75        2984.00           1677          41.00       150.39
HS scan finished at 04:01:58
end
************************************************************
  HS Scan of (1) Internal mercury lamp
************************************************************
Integration time is 0.2294 seconds per sample
dh201018Manchester 53.47 2.23 2.857833pr1000
************************************************************
Dead Time -------------------------  3E-08 
Number of Cycles Used -------------  4 
Starting Wavelength (Angstroms) ---  2950 
Final Wavelength (Angstoms) -------  2984 
Wavelength Increment (Angstroms) --  .25 
Filter Wheel #1 Position ---------- (1) Ground quartz diffuser (ND=2.32)
Filter Wheel #2 Position ---------- (1) Neutral Density 0.494



************************************************************
HS scan start time = 18:11:58
Dark Count =  6.1 


Time (GMT)  Wavelength (Ang)  Step Number  Raw Counts  Counts/Second

 1092.34        2950.00           1222          49.00       187.01
 1092.41        2950.25           1226          50.00       191.37
 1092.44        2950.50           1229          51.00       195.73
 1092.47        2950.75           1232          51.00       195.73
 1092.50        2951.00           1236          48.00       182.65
 1092.53        2951.25           1239          52.00       200.09
 1092.56        2951.50           1242          63.00       248.04
 1092.59        2951.75           1246          46.00       173.93
 1092.62        2952.00           1249          44.00       165.21
 1092.65        2952.25           1252          48.00       182.65
 1092.68        2952.50           1256          56.00       217.53
 1092.72        2952.75           1259          47.00       178.29
 1092.75        2953.00           1262          50.00       191.37
 1092.78        2953.25           1266          56.00       217.53
 1092.81        2953.50           1269          51.00       195.73
 1092.84        2953.75           1272          53.00       204.45
 1092.87        2954.00           1276          49.00       187.01
 1092.90        2954.25           1279          49.00       187.01
 1092.93        2954.50           1282          44.00       165.21
 1092.96        2954.75           1286          52.00       200.09
 1092.99        2955.00           1289          47.00       178.29
 1093.02        2955.25           1292          50.00       191.37
 1093.05        2955.50           1296          48.00       182.65
 1093.08        2955.75           1299          42.00       156.50
 1093.11        2956.00           1302          59.00       230.60
 1093.14        2956.25           1306          62.00       243.68
 1093.17        2956.50           1309          51.00       195.73
 1093.21        2956.75           1312          50.00       191.37
 1093.24        2957.00           1316          44.00       165.21
 1093.27        2957.25           1319          50.00       191.37
 1093.30        2957.50           1322          50.00       191.37
 1093.33        2957.75           1326          56.00       217.53
 1093.36        2958.00           1329          51.00       195.73
 1093.39        2958.25           1332          53.00       204.45
 1093.42        2958.50           1336          45.00       169.57
 1093.45        2958.75           1339          54.00       208.81
 1093.48        2959.00           1342          54.00       208.81
 1093.51        2959.25           1346          54.00       208.81
 1093.54        2959.50           1349          61.00       239.32
 1093.57        2959.75           1352          81.00       326.51
 1093.60        2960.00           1356          95.00       387.54
 1093.63        2960.25           1359         120.00       496.52
 1093.66        2960.50           1362         159.00       666.53
 1093.69        2960.75           1366         196.00       827.83
 1093.73        2961.00           1369         216.00       915.02
 1093.76        2961.25           1372         247.00      1050.16
 1093.79        2961.50           1376         292.00      1246.34
 1093.82        2961.75           1379         391.00      1677.94
 1093.85        2962.00           1382         753.00      3256.20
 1093.88        2962.25           1386        2099.00      9125.86
 1093.91        2962.50           1389        3305.00     14386.77
 1093.94        2962.75           1392        4451.00     19387.47
 1093.97        2963.00           1396        6007.00     26179.67
 1094.00        2963.25           1399        7173.00     31271.26
 1094.03        2963.50           1402        8461.00     36897.41
 1094.06        2963.75           1406       10030.00     43753.57
 1094.09        2964.00           1409       11278.00     49209.04
 1094.13        2964.25           1412       12429.00     54242.08
 1094.16        2964.50           1416       14104.00     61569.16
 1094.19        2964.75           1419       15273.00     66684.72
 1094.22        2965.00           1422       16597.00     72480.46
 1094.25        2965.25           1426       18093.00     79031.55
 1094.28        2965.50           1429       19237.00     84042.94
 1094.31        2965.75           1432       20578.00     89919.22
 1094.34        2966.00           1436       22239.00     97200.64
 1094.37        2966.25           1439       23313.00    101910.50
 1094.40        2966.50           1442       24395.00    106656.80
 1094.43        2966.75           1446       25436.00    111224.50
 1094.46        2967.00           1449       25799.00    112817.60
 1094.50        2967.25           1452       25862.00    113094.10
 1094.53        2967.50           1456       25949.00    113475.90
 1094.56        2967.75           1459       25818.00    112901.00
 1094.59        2968.00           1462       25814.00    112883.40
 1094.62        2968.25           1466       25043.00    109499.90
 1094.65        2968.50           1469       23940.00    104660.70
 1094.68        2968.75           1472       22796.00     99643.11
 1094.71        2969.00           1476       21230.00     92777.06
 1094.74        2969.25           1479       20096.00     87806.84
 1094.77        2969.50           1482       18828.00     82251.10
 1094.80        2969.75           1486       17238.00     75287.12
 1094.83        2970.00           1489       16024.00     69971.94
 1094.86        2970.25           1492       14995.00     65468.05
 1094.89        2970.50           1496       13405.00     58511.08
 1094.93        2970.75           1499       12280.00     53590.45
 1094.96        2971.00           1502       10973.00     47875.60
 1094.99        2971.25           1506        9368.00     40860.43
 1095.02        2971.50           1509        8079.00     35228.58
 1095.05        2971.75           1513        6502.00     28341.00
 1095.08        2972.00           1516        5333.00     23237.21
 1095.11        2972.25           1519        4260.00     18553.92
 1095.14        2972.50           1523        2799.00     12179.25
 1095.17        2972.75           1526        1759.00      7642.99
 1095.20        2973.00           1529         782.00      3382.64
 1095.23        2973.25           1533         319.00      1364.05
 1095.26        2973.50           1536         250.00      1063.24
 1095.29        2973.75           1539         206.00       871.43
 1095.32        2974.00           1543         181.00       762.44
 1095.36        2974.25           1546         116.00       479.08
 1095.39        2974.50           1549          87.00       352.66
 1095.42        2974.75           1553          72.00       287.27
 1095.45        2975.00           1556          62.00       243.68
 1095.48        2975.25           1559          45.00       169.57
 1095.51        2975.50           1563          53.00       204.45
 1095.54        2975.75           1566          46.00       173.93
 1095.57        2976.00           1569          51.00       195.73
 1095.60        2976.25           1573          46.00       173.93
 1095.63        2976.50           1576          48.00       182.65
 1095.66        2976.75           1579          57.00       221.88
 1095.69        2977.00           1583          50.00       191.37
 1095.72        2977.25           1586          51.00       195.73
 1095.75        2977.50           1590          44.00       165.21
 1095.79        2977.75           1593          45.00       169.57
 1095.82        2978.00           1596          49.00       187.01
 1095.85        2978.25           1600          52.00       200.09
 1095.88        2978.50           1603          45.00       169.57
 1095.91        2978.75           1606          43.00       160.86
 1095.94        2979.00           1610          49.00       187.01
 1095.97        2979.25           1613          37.00       134.70
 1096.00        2979.50           1616          43.00       160.86
 1096.03        2979.75           1620          46.00       173.93
 1096.06        2980.00           1623          42.00       156.50
 1096.09        2980.25           1626          53.00       204.45
 1096.12        2980.50           1630          49.00       187.01
 1096.15        2980.75           1633          46.00       173.93
 1096.18        2981.00           1637          45.00       169.57
 1096.21        2981.25           1640          50.00       191.37
 1096.25        2981.50           1643          41.00       152.14
 1096.28        2981.75           1647          46.00       173.93
 1096.31        2982.00           1650          41.00       152.14
 1096.34        2982.25           1653          46.00       173.93
 1096.37        2982.50           1657          47.00       178.29
 1096.40        2982.75           1660          43.00       160.86
 1096.43        2983.00           1663          41.00       152.14
 1096.46        2983.25           1667          46.00       173.93
 1096.49        2983.50           1670          49.00       187.01
 1096.52        2983.75           1673          44.00       165.21
 1096.55        2984.00           1677          47.00       178.29
HS scan finished at 18:16:46
end
