************************************************************
  HS Scan of (1) Internal mercury lamp
************************************************************
Integration time is 0.2294 seconds per sample
dh261018Manchester 53.47 2.23 2.804185pr1000
************************************************************
Dead Time -------------------------  3E-08 
Number of Cycles Used -------------  4 
Starting Wavelength (Angstroms) ---  2950 
Final Wavelength (Angstoms) -------  2984 
Wavelength Increment (Angstroms) --  .25 
Filter Wheel #1 Position ---------- (1) Ground quartz diffuser (ND=2.32)
Filter Wheel #2 Position ---------- (1) Neutral Density 0.494



************************************************************
HS scan start time = 04:09:07
Dark Count =  5.2 


Time (GMT)  Wavelength (Ang)  Step Number  Raw Counts  Counts/Second

  249.48        2950.00           1222          53.00       208.37
  249.55        2950.25           1226          46.00       177.86
  249.58        2950.50           1229          56.00       221.45
  249.61        2950.75           1232          58.00       230.17
  249.64        2951.00           1236          61.00       243.25
  249.67        2951.25           1239          60.00       238.89
  249.70        2951.50           1242          49.00       190.93
  249.73        2951.75           1246          59.00       234.53
  249.76        2952.00           1249          52.00       204.01
  249.79        2952.25           1252          48.00       186.57
  249.82        2952.50           1256          49.00       190.93
  249.85        2952.75           1259          42.00       160.42
  249.88        2953.00           1262          47.00       182.22
  249.92        2953.25           1266          50.00       195.29
  249.95        2953.50           1269          47.00       182.22
  249.98        2953.75           1272          47.00       182.22
  250.01        2954.00           1276          53.00       208.37
  250.04        2954.25           1279          47.00       182.22
  250.07        2954.50           1282          53.00       208.37
  250.10        2954.75           1286          50.00       195.29
  250.13        2955.00           1289          56.00       221.45
  250.16        2955.25           1292          44.00       169.14
  250.19        2955.50           1296          45.00       173.50
  250.22        2955.75           1299          58.00       230.17
  250.25        2956.00           1302          51.00       199.65
  250.28        2956.25           1306          51.00       199.65
  250.32        2956.50           1309          49.00       190.93
  250.35        2956.75           1312          52.00       204.01
  250.38        2957.00           1316          50.00       195.29
  250.41        2957.25           1319          47.00       182.22
  250.44        2957.50           1322          48.00       186.57
  250.47        2957.75           1326          50.00       195.29
  250.50        2958.00           1329          72.00       291.20
  250.53        2958.25           1332          46.00       177.86
  250.56        2958.50           1336          54.00       212.73
  250.60        2958.75           1339          45.00       173.50
  250.63        2959.00           1342          52.00       204.01
  250.66        2959.25           1346          54.00       212.73
  250.69        2959.50           1349          57.00       225.81
  250.72        2959.75           1352          62.00       247.60
  250.75        2960.00           1356          86.00       352.23
  250.78        2960.25           1359         101.00       417.62
  250.81        2960.50           1362         129.00       539.68
  250.84        2960.75           1366         155.00       653.02
  250.87        2961.00           1369         187.00       792.52
  250.90        2961.25           1372         231.00       984.34
  250.94        2961.50           1376         292.00      1250.26
  250.97        2961.75           1379         382.00      1642.63
  251.00        2962.00           1382         777.00      3364.77
  251.03        2962.25           1386        1966.00      8549.71
  251.06        2962.50           1389        3231.00     14067.84
  251.09        2962.75           1392        4207.00     18326.55
  251.12        2963.00           1396        5718.00     24921.85
  251.15        2963.25           1399        6808.00     29681.17
  251.18        2963.50           1402        8020.00     34974.77
  251.21        2963.75           1406        9646.00     42079.24
  251.25        2964.00           1409       10752.00     46913.41
  251.28        2964.25           1412       11987.00     52313.07
  251.31        2964.50           1416       13636.00     59525.56
  251.34        2964.75           1419       14811.00     64666.75
  251.37        2965.00           1422       15977.00     69770.12
  251.40        2965.25           1426       17462.00     76271.97
  251.43        2965.50           1429       18610.00     81300.06
  251.46        2965.75           1432       19668.00     85935.30
  251.49        2966.00           1436       21300.00     93087.84
  251.52        2966.25           1439       22440.00     98085.94
  251.56        2966.50           1442       23539.00    102905.70
  251.59        2966.75           1446       24725.00    108108.60
  251.62        2967.00           1449       24975.00    109205.50
  251.65        2967.25           1452       25174.00    110078.70
  251.68        2967.50           1456       25168.00    110052.40
  251.71        2967.75           1459       25186.00    110131.40
  251.74        2968.00           1462       25091.00    109714.50
  251.77        2968.25           1466       24385.00    106616.90
  251.80        2968.50           1469       23538.00    102901.30
  251.84        2968.75           1472       22353.00     97704.46
  251.87        2969.00           1476       21073.00     92092.80
  251.90        2969.25           1479       19745.00     86272.71
  251.93        2969.50           1482       18635.00     81409.57
  251.96        2969.75           1486       17173.00     75006.43
  251.99        2970.00           1489       16028.00     69993.38
  252.02        2970.25           1492       14812.00     64671.13
  252.05        2970.50           1496       13192.00     57583.26
  252.08        2970.75           1499       12009.00     52409.28
  252.11        2971.00           1502       10870.00     47429.25
  252.15        2971.25           1506        9272.00     40444.86
  252.18        2971.50           1509        8132.00     35464.04
  252.21        2971.75           1513        6666.00     29061.07
  252.24        2972.00           1516        5560.00     24232.08
  252.27        2972.25           1519        4465.00     19452.50
  252.30        2972.50           1523        2877.00     12523.45
  252.33        2972.75           1526        1762.00      7660.00
  252.36        2973.00           1529         828.00      3587.13
  252.39        2973.25           1533         370.00      1590.31
  252.43        2973.50           1536         265.00      1132.56
  252.46        2973.75           1539         209.00       888.43
  252.49        2974.00           1543         185.00       783.80
  252.52        2974.25           1546         149.00       626.86
  252.55        2974.50           1549         112.00       465.57
  252.58        2974.75           1553          82.00       334.79
  252.61        2975.00           1556          60.00       238.89
  252.64        2975.25           1559          59.00       234.53
  252.67        2975.50           1563          48.00       186.57
  252.70        2975.75           1566          49.00       190.93
  252.73        2976.00           1569          50.00       195.29
  252.76        2976.25           1573          40.00       151.70
  252.79        2976.50           1576          41.00       156.06
  252.82        2976.75           1579          49.00       190.93
  252.85        2977.00           1583          51.00       199.65
  252.89        2977.25           1586          48.00       186.57
  252.92        2977.50           1590          48.00       186.57
  252.95        2977.75           1593          53.00       208.37
  252.98        2978.00           1596          47.00       182.22
  253.01        2978.25           1600          48.00       186.57
  253.04        2978.50           1603          43.00       164.78
  253.07        2978.75           1606          43.00       164.78
  253.10        2979.00           1610          44.00       169.14
  253.13        2979.25           1613          50.00       195.29
  253.16        2979.50           1616          46.00       177.86
  253.19        2979.75           1620          43.00       164.78
  253.22        2980.00           1623          53.00       208.37
  253.25        2980.25           1626          45.00       173.50
  253.29        2980.50           1630          44.00       169.14
  253.32        2980.75           1633          44.00       169.14
  253.35        2981.00           1637          48.00       186.57
  253.38        2981.25           1640          46.00       177.86
  253.41        2981.50           1643          43.00       164.78
  253.44        2981.75           1647          45.00       173.50
  253.47        2982.00           1650          51.00       199.65
  253.50        2982.25           1653          52.00       204.01
  253.53        2982.50           1657          52.00       204.01
  253.56        2982.75           1660          47.00       182.22
  253.59        2983.00           1663          44.00       169.14
  253.62        2983.25           1667          42.00       160.42
  253.65        2983.50           1670          41.00       156.06
  253.68        2983.75           1673          45.00       173.50
  253.72        2984.00           1677          41.00       156.06
HS scan finished at 04:13:56
end
************************************************************
  HS Scan of (1) Internal mercury lamp
************************************************************
Integration time is 0.2294 seconds per sample
dh261018Manchester 53.47 2.23 2.804185pr1000
************************************************************
Dead Time -------------------------  3E-08 
Number of Cycles Used -------------  4 
Starting Wavelength (Angstroms) ---  2950 
Final Wavelength (Angstoms) -------  2984 
Wavelength Increment (Angstroms) --  .25 
Filter Wheel #1 Position ---------- (1) Ground quartz diffuser (ND=2.32)
Filter Wheel #2 Position ---------- (1) Neutral Density 0.494



************************************************************
HS scan start time = 17:42:01
Dark Count =  7.9 


Time (GMT)  Wavelength (Ang)  Step Number  Raw Counts  Counts/Second

 1062.39        2950.00           1222          45.00       161.73
 1062.46        2950.25           1226          54.00       200.96
 1062.49        2950.50           1229          48.00       174.80
 1062.52        2950.75           1232          54.00       200.96
 1062.55        2951.00           1236          45.00       161.73
 1062.58        2951.25           1239          46.00       166.09
 1062.61        2951.50           1242          51.00       187.88
 1062.65        2951.75           1246          48.00       174.80
 1062.68        2952.00           1249          46.00       166.09
 1062.71        2952.25           1252          48.00       174.80
 1062.74        2952.50           1256          51.00       187.88
 1062.77        2952.75           1259          50.00       183.52
 1062.80        2953.00           1262          51.00       187.88
 1062.83        2953.25           1266          50.00       183.52
 1062.86        2953.50           1269          53.00       196.60
 1062.89        2953.75           1272          46.00       166.09
 1062.92        2954.00           1276          48.00       174.80
 1062.96        2954.25           1279          45.00       161.73
 1062.99        2954.50           1282          49.00       179.16
 1063.02        2954.75           1286          53.00       196.60
 1063.05        2955.00           1289          52.00       192.24
 1063.08        2955.25           1292          43.00       153.01
 1063.11        2955.50           1296          54.00       200.96
 1063.14        2955.75           1299          49.00       179.16
 1063.17        2956.00           1302          43.00       153.01
 1063.20        2956.25           1306          56.00       209.68
 1063.23        2956.50           1309          59.00       222.76
 1063.26        2956.75           1312          46.00       166.09
 1063.29        2957.00           1316          51.00       187.88
 1063.32        2957.25           1319          50.00       183.52
 1063.36        2957.50           1322          50.00       183.52
 1063.39        2957.75           1326          46.00       166.09
 1063.42        2958.00           1329          51.00       187.88
 1063.45        2958.25           1332          51.00       187.88
 1063.48        2958.50           1336          50.00       183.52
 1063.51        2958.75           1339          49.00       179.16
 1063.54        2959.00           1342          48.00       174.80
 1063.57        2959.25           1346          55.00       205.32
 1063.60        2959.50           1349          59.00       222.76
 1063.63        2959.75           1352          60.00       227.12
 1063.66        2960.00           1356          88.00       349.18
 1063.69        2960.25           1359         118.00       479.95
 1063.73        2960.50           1362         129.00       527.91
 1063.76        2960.75           1366         178.00       741.52
 1063.79        2961.00           1369         208.00       872.30
 1063.82        2961.25           1372         248.00      1046.68
 1063.85        2961.50           1376         326.00      1386.72
 1063.88        2961.75           1379         519.00      2228.14
 1063.91        2962.00           1382        1178.00      5101.48
 1063.94        2962.25           1386        2562.00     11137.55
 1063.97        2962.50           1389        3708.00     16137.28
 1064.00        2962.75           1392        4905.00     21361.11
 1064.04        2963.00           1396        6251.00     27237.16
 1064.07        2963.25           1399        7359.00     32075.75
 1064.10        2963.50           1402        8487.00     37003.13
 1064.13        2963.75           1406       10166.00     44340.11
 1064.16        2964.00           1409       11175.00     48750.85
 1064.19        2964.25           1412       12329.00     53796.87
 1064.22        2964.50           1416       13825.00     60340.60
 1064.25        2964.75           1419       14947.00     65250.10
 1064.28        2965.00           1422       16210.00     70778.29
 1064.31        2965.25           1426       18019.00     78699.55
 1064.35        2965.50           1429       19060.00     83259.58
 1064.38        2965.75           1432       20456.00     89376.64
 1064.41        2966.00           1436       21706.00     94855.85
 1064.44        2966.25           1439       22877.00     99990.43
 1064.47        2966.50           1442       23685.00    103534.30
 1064.50        2966.75           1446       24684.00    107916.80
 1064.53        2967.00           1449       24930.00    108996.20
 1064.56        2967.25           1452       24895.00    108842.60
 1064.60        2967.50           1456       25052.00    109531.50
 1064.63        2967.75           1459       24889.00    108816.30
 1064.66        2968.00           1462       24751.00    108210.80
 1064.69        2968.25           1466       23650.00    103380.70
 1064.72        2968.50           1469       22613.00     98832.71
 1064.75        2968.75           1472       21684.00     94759.41
 1064.78        2969.00           1476       20252.00     88482.60
 1064.81        2969.25           1479       19139.00     83605.68
 1064.84        2969.50           1482       17960.00     78441.13
 1064.88        2969.75           1486       16421.00     71702.03
 1064.91        2970.00           1489       15386.00     67171.40
 1064.94        2970.25           1492       14242.00     62165.09
 1064.97        2970.50           1496       12826.00     55970.53
 1065.00        2970.75           1499       11569.00     50473.49
 1065.03        2971.00           1502       10360.00     45188.07
 1065.06        2971.25           1506        8782.00     38292.00
 1065.09        2971.50           1509        7629.00     33255.04
 1065.12        2971.75           1513        6114.00     26638.98
 1065.16        2972.00           1516        5004.00     21793.23
 1065.19        2972.25           1519        3894.00     16948.90
 1065.22        2972.50           1523        2476.00     10762.41
 1065.25        2972.75           1526        1342.00      5816.62
 1065.28        2973.00           1529         596.00      2563.84
 1065.31        2973.25           1533         302.00      1282.09
 1065.34        2973.50           1536         230.00       968.21
 1065.37        2973.75           1539         198.00       828.70
 1065.40        2974.00           1543         174.00       724.08
 1065.43        2974.25           1546         125.00       510.47
 1065.47        2974.50           1549          85.00       336.10
 1065.50        2974.75           1553          69.00       266.35
 1065.53        2975.00           1556          54.00       200.96
 1065.56        2975.25           1559          49.00       179.16
 1065.59        2975.50           1563          48.00       174.80
 1065.62        2975.75           1566          50.00       183.52
 1065.65        2976.00           1569          44.00       157.37
 1065.68        2976.25           1573          45.00       161.73
 1065.71        2976.50           1576          48.00       174.80
 1065.74        2976.75           1579          46.00       166.09
 1065.77        2977.00           1583          49.00       179.16
 1065.80        2977.25           1586          46.00       166.09
 1065.83        2977.50           1590          49.00       179.16
 1065.86        2977.75           1593          49.00       179.16
 1065.90        2978.00           1596          48.00       174.80
 1065.93        2978.25           1600          41.00       144.29
 1065.96        2978.50           1603          45.00       161.73
 1065.99        2978.75           1606          45.00       161.73
 1066.02        2979.00           1610          45.00       161.73
 1066.05        2979.25           1613          45.00       161.73
 1066.08        2979.50           1616          48.00       174.80
 1066.11        2979.75           1620          47.00       170.45
 1066.14        2980.00           1623          44.00       157.37
 1066.17        2980.25           1626          48.00       174.80
 1066.20        2980.50           1630          46.00       166.09
 1066.23        2980.75           1633          43.00       153.01
 1066.26        2981.00           1637          53.00       196.60
 1066.29        2981.25           1640          46.00       166.09
 1066.32        2981.50           1643          49.00       179.16
 1066.35        2981.75           1647          44.00       157.37
 1066.39        2982.00           1650          39.00       135.57
 1066.42        2982.25           1653          46.00       166.09
 1066.45        2982.50           1657          50.00       183.52
 1066.48        2982.75           1660          42.00       148.65
 1066.51        2983.00           1663          45.00       161.73
 1066.54        2983.25           1667          43.00       153.01
 1066.57        2983.50           1670          43.00       153.01
 1066.60        2983.75           1673          40.00       139.93
 1066.63        2984.00           1677          41.00       144.29
HS scan finished at 17:46:51
end
