************************************************************
  HS Scan of (1) Internal mercury lamp
************************************************************
Integration time is 0.2294 seconds per sample
dh181017Manchester 53.47 2.23 2.804185pr1000
************************************************************
Dead Time -------------------------  3E-08 
Number of Cycles Used -------------  4 
Starting Wavelength (Angstroms) ---  2950 
Final Wavelength (Angstoms) -------  2984 
Wavelength Increment (Angstroms) --  .25 
Filter Wheel #1 Position ---------- (1) Ground quartz diffuser (ND=2.32)
Filter Wheel #2 Position ---------- (1) Neutral Density 0.494



************************************************************
HS scan start time = 19:34:56
Dark Count =  6.2 


Time (GMT)  Wavelength (Ang)  Step Number  Raw Counts  Counts/Second

 1175.30        2950.00           1222          65.00       256.32
 1175.37        2950.25           1226          67.00       265.04
 1175.40        2950.50           1229          73.00       291.20
 1175.43        2950.75           1232          67.00       265.04
 1175.46        2951.00           1236          67.00       265.04
 1175.49        2951.25           1239          70.00       278.12
 1175.52        2951.50           1242          73.00       291.20
 1175.55        2951.75           1246          72.00       286.84
 1175.58        2952.00           1249          74.00       295.56
 1175.62        2952.25           1252          69.00       273.76
 1175.65        2952.50           1256          75.00       299.92
 1175.68        2952.75           1259          67.00       265.04
 1175.71        2953.00           1262          71.00       282.48
 1175.74        2953.25           1266          70.00       278.12
 1175.77        2953.50           1269          65.00       256.32
 1175.80        2953.75           1272          69.00       273.76
 1175.83        2954.00           1276          81.00       326.07
 1175.86        2954.25           1279          71.00       282.48
 1175.89        2954.50           1282          69.00       273.76
 1175.92        2954.75           1286          69.00       273.76
 1175.95        2955.00           1289          69.00       273.76
 1175.98        2955.25           1292          73.00       291.20
 1176.02        2955.50           1296          72.00       286.84
 1176.05        2955.75           1299          69.00       273.76
 1176.08        2956.00           1302          72.00       286.84
 1176.11        2956.25           1306          64.00       251.96
 1176.14        2956.50           1309          76.00       304.27
 1176.17        2956.75           1312          67.00       265.04
 1176.20        2957.00           1316          69.00       273.76
 1176.23        2957.25           1319          72.00       286.84
 1176.26        2957.50           1322          74.00       295.56
 1176.29        2957.75           1326          63.00       247.60
 1176.32        2958.00           1329          56.00       217.09
 1176.36        2958.25           1332          68.00       269.40
 1176.39        2958.50           1336          77.00       308.63
 1176.42        2958.75           1339          71.00       282.48
 1176.45        2959.00           1342          71.00       282.48
 1176.48        2959.25           1346          66.00       260.68
 1176.51        2959.50           1349          74.00       295.56
 1176.54        2959.75           1352          92.00       374.02
 1176.57        2960.00           1356         115.00       474.29
 1176.60        2960.25           1359         152.00       635.58
 1176.63        2960.50           1362         184.00       775.08
 1176.66        2960.75           1366         242.00      1027.93
 1176.69        2961.00           1369         273.00      1163.07
 1176.73        2961.25           1372         314.00      1341.82
 1176.76        2961.50           1376         361.00      1546.72
 1176.79        2961.75           1379         494.00      2126.55
 1176.82        2962.00           1382         921.00      3988.27
 1176.85        2962.25           1386        2478.00     10778.55
 1176.88        2962.50           1389        3955.00     17222.50
 1176.91        2962.75           1392        5513.00     24022.54
 1176.94        2963.00           1396        7569.00     33000.40
 1176.97        2963.25           1399        9110.00     39732.60
 1177.00        2963.50           1402       10610.00     46288.30
 1177.03        2963.75           1406       12909.00     56341.01
 1177.06        2964.00           1409       14443.00     63052.03
 1177.10        2964.25           1412       16207.00     70772.60
 1177.13        2964.50           1416       18243.00     79688.10
 1177.16        2964.75           1419       19700.00     86071.13
 1177.19        2965.00           1422       21523.00     94061.05
 1177.22        2965.25           1426       23615.00    103234.70
 1177.25        2965.50           1429       25267.00    110482.40
 1177.28        2965.75           1432       26946.00    117851.90
 1177.31        2966.00           1436       28785.00    125927.30
 1177.34        2966.25           1439       30449.00    133237.70
 1177.38        2966.50           1442       32000.00    140054.50
 1177.41        2966.75           1446       33890.00    148365.10
 1177.44        2967.00           1449       34593.00    151457.30
 1177.47        2967.25           1452       34706.00    151954.40
 1177.50        2967.50           1456       34636.00    151646.50
 1177.53        2967.75           1459       34775.00    152258.00
 1177.56        2968.00           1462       34522.00    151145.00
 1177.59        2968.25           1466       33820.00    148057.20
 1177.62        2968.50           1469       32940.00    144187.30
 1177.65        2968.75           1472       31298.00    136968.80
 1177.68        2969.00           1476       29345.00    128387.20
 1177.71        2969.25           1479       27801.00    121605.90
 1177.74        2969.50           1482       26142.00    114322.60
 1177.77        2969.75           1486       23920.00    104572.50
 1177.81        2970.00           1489       22333.00     97612.38
 1177.84        2970.25           1492       20822.00     90988.22
 1177.87        2970.50           1496       18821.00     82220.00
 1177.90        2970.75           1499       17160.00     74945.13
 1177.93        2971.00           1502       15689.00     68505.08
 1177.96        2971.25           1506       13579.00     59271.83
 1177.99        2971.50           1509       11799.00     51486.62
 1178.02        2971.75           1513        9857.00     42997.02
 1178.05        2972.00           1516        8111.00     35367.93
 1178.08        2972.25           1519        6559.00     28589.46
 1178.11        2972.50           1523        4476.00     19496.14
 1178.14        2972.75           1526        2896.00     12601.98
 1178.18        2973.00           1529        1576.00      6844.47
 1178.21        2973.25           1533         519.00      2235.55
 1178.24        2973.50           1536         374.00      1603.39
 1178.27        2973.75           1539         319.00      1363.61
 1178.30        2974.00           1543         278.00      1184.87
 1178.33        2974.25           1546         212.00       897.15
 1178.36        2974.50           1549         162.00       679.18
 1178.39        2974.75           1553         108.00       443.77
 1178.42        2975.00           1556          92.00       374.02
 1178.45        2975.25           1559          79.00       317.35
 1178.48        2975.50           1563          68.00       269.40
 1178.52        2975.75           1566          62.00       243.25
 1178.55        2976.00           1569          70.00       278.12
 1178.58        2976.25           1573          67.00       265.04
 1178.61        2976.50           1576          73.00       291.20
 1178.64        2976.75           1579          69.00       273.76
 1178.67        2977.00           1583          64.00       251.96
 1178.70        2977.25           1586          74.00       295.56
 1178.73        2977.50           1590          68.00       269.40
 1178.76        2977.75           1593          75.00       299.92
 1178.79        2978.00           1596          64.00       251.96
 1178.82        2978.25           1600          66.00       260.68
 1178.85        2978.50           1603          67.00       265.04
 1178.89        2978.75           1606          60.00       234.53
 1178.92        2979.00           1610          58.00       225.81
 1178.95        2979.25           1613          72.00       286.84
 1178.98        2979.50           1616          63.00       247.60
 1179.01        2979.75           1620          76.00       304.27
 1179.04        2980.00           1623          57.00       221.45
 1179.07        2980.25           1626          64.00       251.96
 1179.10        2980.50           1630          66.00       260.68
 1179.13        2980.75           1633          66.00       260.68
 1179.16        2981.00           1637          64.00       251.96
 1179.19        2981.25           1640          56.00       217.09
 1179.22        2981.50           1643          63.00       247.60
 1179.25        2981.75           1647          63.00       247.60
 1179.29        2982.00           1650          71.00       282.48
 1179.32        2982.25           1653          59.00       230.17
 1179.35        2982.50           1657          61.00       238.89
 1179.38        2982.75           1660          63.00       247.60
 1179.41        2983.00           1663          61.00       238.89
 1179.44        2983.25           1667          63.00       247.60
 1179.47        2983.50           1670          60.00       234.53
 1179.50        2983.75           1673          62.00       243.25
 1179.53        2984.00           1677          65.00       256.32
HS scan finished at 19:39:45
end
