************************************************************
  HS Scan of (1) Internal mercury lamp
************************************************************
Integration time is 0.2294 seconds per sample
dh241018Manchester 53.47 2.23 2.804185pr1000
************************************************************
Dead Time -------------------------  3E-08 
Number of Cycles Used -------------  4 
Starting Wavelength (Angstroms) ---  2950 
Final Wavelength (Angstoms) -------  2984 
Wavelength Increment (Angstroms) --  .25 
Filter Wheel #1 Position ---------- (1) Ground quartz diffuser (ND=2.32)
Filter Wheel #2 Position ---------- (1) Neutral Density 0.494



************************************************************
HS scan start time = 04:05:13
Dark Count =  6.6 


Time (GMT)  Wavelength (Ang)  Step Number  Raw Counts  Counts/Second

  245.59        2950.00           1222          51.00       193.55
  245.66        2950.25           1226          52.00       197.91
  245.69        2950.50           1229          49.00       184.83
  245.72        2950.75           1232          54.00       206.63
  245.75        2951.00           1236          49.00       184.83
  245.78        2951.25           1239          49.00       184.83
  245.81        2951.50           1242          51.00       193.55
  245.84        2951.75           1246          49.00       184.83
  245.88        2952.00           1249          40.00       145.60
  245.91        2952.25           1252          49.00       184.83
  245.94        2952.50           1256          53.00       202.27
  245.97        2952.75           1259          52.00       197.91
  246.00        2953.00           1262          49.00       184.83
  246.03        2953.25           1266          48.00       180.47
  246.06        2953.50           1269          44.00       163.03
  246.09        2953.75           1272          53.00       202.27
  246.12        2954.00           1276          48.00       180.47
  246.15        2954.25           1279          54.00       206.63
  246.18        2954.50           1282          45.00       167.39
  246.22        2954.75           1286          50.00       189.19
  246.25        2955.00           1289          53.00       202.27
  246.28        2955.25           1292          47.00       176.11
  246.31        2955.50           1296          48.00       180.47
  246.34        2955.75           1299          48.00       180.47
  246.37        2956.00           1302          50.00       189.19
  246.40        2956.25           1306          44.00       163.03
  246.43        2956.50           1309          48.00       180.47
  246.46        2956.75           1312          53.00       202.27
  246.49        2957.00           1316          49.00       184.83
  246.53        2957.25           1319          44.00       163.03
  246.56        2957.50           1322          47.00       176.11
  246.59        2957.75           1326          52.00       197.91
  246.62        2958.00           1329          37.00       132.52
  246.65        2958.25           1332          47.00       176.11
  246.68        2958.50           1336          60.00       232.78
  246.71        2958.75           1339          56.00       215.35
  246.74        2959.00           1342          47.00       176.11
  246.77        2959.25           1346          50.00       189.19
  246.80        2959.50           1349          54.00       206.63
  246.83        2959.75           1352          65.00       254.58
  246.86        2960.00           1356          79.00       315.61
  246.90        2960.25           1359         102.00       415.87
  246.93        2960.50           1362         133.00       551.01
  246.96        2960.75           1366         169.00       707.95
  246.99        2961.00           1369         199.00       838.73
  247.02        2961.25           1372         234.00       991.31
  247.05        2961.50           1376         287.00      1222.36
  247.08        2961.75           1379         375.00      1606.01
  247.11        2962.00           1382         718.00      3101.42
  247.14        2962.25           1386        1833.00      7963.54
  247.17        2962.50           1389        2906.00     12643.86
  247.20        2962.75           1392        4095.00     17831.68
  247.23        2963.00           1396        5554.00     24199.78
  247.26        2963.25           1399        6708.00     29238.36
  247.30        2963.50           1402        7940.00     34619.20
  247.33        2963.75           1406        9466.00     41286.51
  247.36        2964.00           1409       10608.00     46277.81
  247.39        2964.25           1412       11789.00     51441.15
  247.42        2964.50           1416       13451.00     58710.12
  247.45        2964.75           1419       14588.00     63684.77
  247.48        2965.00           1422       15733.00     68695.93
  247.51        2965.25           1426       17434.00     76143.23
  247.54        2965.50           1429       18591.00     81210.69
  247.57        2965.75           1432       19714.00     86130.74
  247.61        2966.00           1436       21252.00     92871.30
  247.64        2966.25           1439       22265.00     97312.44
  247.67        2966.50           1442       23397.00    102276.70
  247.70        2966.75           1446       24691.00    107953.20
  247.73        2967.00           1449       24939.00    109041.40
  247.76        2967.25           1452       25162.00    110019.90
  247.79        2967.50           1456       25203.00    110199.80
  247.82        2967.75           1459       25139.00    109919.00
  247.85        2968.00           1462       25181.00    110103.30
  247.89        2968.25           1466       24428.00    106799.40
  247.92        2968.50           1469       23374.00    102175.80
  247.95        2968.75           1472       22423.00     98005.26
  247.98        2969.00           1476       20890.00     91284.52
  248.01        2969.25           1479       19737.00     86231.51
  248.04        2969.50           1482       18569.00     81114.33
  248.07        2969.75           1486       17102.00     74689.40
  248.10        2970.00           1489       16081.00     70219.26
  248.13        2970.25           1492       14846.00     64813.79
  248.17        2970.50           1496       13266.00     57900.84
  248.20        2970.75           1499       12086.00     52739.88
  248.23        2971.00           1502       10841.00     47296.36
  248.26        2971.25           1506        9321.00     40652.87
  248.29        2971.50           1509        8271.00     36065.16
  248.32        2971.75           1513        6873.00     29958.91
  248.35        2972.00           1516        5706.00     24863.35
  248.38        2972.25           1519        4606.00     20061.77
  248.41        2972.50           1523        3098.00     13481.48
  248.44        2972.75           1526        1987.00      8635.19
  248.48        2973.00           1529         960.00      4156.58
  248.51        2973.25           1533         355.00      1518.81
  248.54        2973.50           1536         264.00      1122.10
  248.57        2973.75           1539         215.00       908.48
  248.60        2974.00           1543         166.00       694.87
  248.63        2974.25           1546         136.00       564.09
  248.66        2974.50           1549         113.00       463.83
  248.69        2974.75           1553          72.00       285.09
  248.72        2975.00           1556          57.00       219.71
  248.75        2975.25           1559          54.00       206.63
  248.78        2975.50           1563          50.00       189.19
  248.82        2975.75           1566          46.00       171.75
  248.85        2976.00           1569          50.00       189.19
  248.88        2976.25           1573          47.00       176.11
  248.91        2976.50           1576          43.00       158.68
  248.94        2976.75           1579          48.00       180.47
  248.97        2977.00           1583          41.00       149.96
  249.00        2977.25           1586          53.00       202.27
  249.03        2977.50           1590          51.00       193.55
  249.06        2977.75           1593          54.00       206.63
  249.09        2978.00           1596          46.00       171.75
  249.12        2978.25           1600          51.00       193.55
  249.15        2978.50           1603          46.00       171.75
  249.19        2978.75           1606          45.00       167.39
  249.22        2979.00           1610          41.00       149.96
  249.25        2979.25           1613          39.00       141.24
  249.28        2979.50           1616          42.00       154.32
  249.31        2979.75           1620          49.00       184.83
  249.34        2980.00           1623          43.00       158.68
  249.37        2980.25           1626          45.00       167.39
  249.40        2980.50           1630          49.00       184.83
  249.43        2980.75           1633          50.00       189.19
  249.46        2981.00           1637          47.00       176.11
  249.49        2981.25           1640          44.00       163.03
  249.52        2981.50           1643          47.00       176.11
  249.55        2981.75           1647          47.00       176.11
  249.59        2982.00           1650          47.00       176.11
  249.62        2982.25           1653          46.00       171.75
  249.65        2982.50           1657          45.00       167.39
  249.68        2982.75           1660          53.00       202.27
  249.71        2983.00           1663          43.00       158.68
  249.74        2983.25           1667          43.00       158.68
  249.77        2983.50           1670          37.00       132.52
  249.80        2983.75           1673          44.00       163.03
  249.83        2984.00           1677          45.00       167.39
HS scan finished at 04:10:03
end
************************************************************
  HS Scan of (1) Internal mercury lamp
************************************************************
Integration time is 0.2294 seconds per sample
dh241018Manchester 53.47 2.23 2.804185pr1000
************************************************************
Dead Time -------------------------  3E-08 
Number of Cycles Used -------------  4 
Starting Wavelength (Angstroms) ---  2950 
Final Wavelength (Angstoms) -------  2984 
Wavelength Increment (Angstroms) --  .25 
Filter Wheel #1 Position ---------- (1) Ground quartz diffuser (ND=2.32)
Filter Wheel #2 Position ---------- (1) Neutral Density 0.494



************************************************************
HS scan start time = 17:42:01
Dark Count =  5.3 


Time (GMT)  Wavelength (Ang)  Step Number  Raw Counts  Counts/Second

 1062.39        2950.00           1222          50.00       194.86
 1062.46        2950.25           1226          57.00       225.37
 1062.49        2950.50           1229          51.00       199.22
 1062.52        2950.75           1232          42.00       159.98
 1062.55        2951.00           1236          46.00       177.42
 1062.58        2951.25           1239          47.00       181.78
 1062.61        2951.50           1242          45.00       173.06
 1062.64        2951.75           1246          45.00       173.06
 1062.67        2952.00           1249          48.00       186.14
 1062.70        2952.25           1252          55.00       216.65
 1062.74        2952.50           1256          45.00       173.06
 1062.77        2952.75           1259          49.00       190.50
 1062.80        2953.00           1262          55.00       216.65
 1062.83        2953.25           1266          45.00       173.06
 1062.86        2953.50           1269          42.00       159.98
 1062.89        2953.75           1272          44.00       168.70
 1062.92        2954.00           1276          51.00       199.22
 1062.95        2954.25           1279          43.00       164.34
 1062.98        2954.50           1282          53.00       207.94
 1063.01        2954.75           1286          47.00       181.78
 1063.04        2955.00           1289          51.00       199.22
 1063.07        2955.25           1292          44.00       168.70
 1063.10        2955.50           1296          43.00       164.34
 1063.14        2955.75           1299          53.00       207.94
 1063.17        2956.00           1302          48.00       186.14
 1063.20        2956.25           1306          52.00       203.58
 1063.23        2956.50           1309          49.00       190.50
 1063.26        2956.75           1312          50.00       194.86
 1063.29        2957.00           1316          45.00       173.06
 1063.32        2957.25           1319          49.00       190.50
 1063.35        2957.50           1322          58.00       229.73
 1063.38        2957.75           1326          54.00       212.29
 1063.41        2958.00           1329          59.00       234.09
 1063.44        2958.25           1332          44.00       168.70
 1063.47        2958.50           1336          49.00       190.50
 1063.50        2958.75           1339          47.00       181.78
 1063.54        2959.00           1342          46.00       177.42
 1063.57        2959.25           1346          48.00       186.14
 1063.60        2959.50           1349          56.00       221.01
 1063.63        2959.75           1352          57.00       225.37
 1063.66        2960.00           1356          96.00       395.38
 1063.69        2960.25           1359         115.00       478.21
 1063.72        2960.50           1362         130.00       543.60
 1063.75        2960.75           1366         179.00       757.21
 1063.78        2961.00           1369         202.00       857.48
 1063.81        2961.25           1372         235.00      1001.34
 1063.84        2961.50           1376         297.00      1271.63
 1063.87        2961.75           1379         420.00      1807.86
 1063.91        2962.00           1382         874.00      3787.27
 1063.94        2962.25           1386        2129.00      9260.20
 1063.97        2962.50           1389        3252.00     14159.02
 1064.00        2962.75           1392        4465.00     19452.07
 1064.03        2963.00           1396        5882.00     25637.41
 1064.06        2963.25           1399        7043.00     30707.00
 1064.09        2963.50           1402        8175.00     35651.45
 1064.12        2963.75           1406        9767.00     42607.61
 1064.15        2964.00           1409       10970.00     47865.99
 1064.18        2964.25           1412       12238.00     53410.28
 1064.22        2964.50           1416       13672.00     59682.62
 1064.25        2964.75           1419       14810.00     64661.93
 1064.28        2965.00           1422       16184.00     70675.85
 1064.31        2965.25           1426       17688.00     77261.27
 1064.34        2965.50           1429       18776.00     82026.80
 1064.37        2965.75           1432       20036.00     87547.41
 1064.40        2966.00           1436       21610.00     94446.39
 1064.43        2966.25           1439       22682.00     99146.68
 1064.46        2966.50           1442       23720.00    103699.20
 1064.49        2966.75           1446       24662.00    107831.70
 1064.52        2967.00           1449       25013.00    109371.80
 1064.56        2967.25           1452       24945.00    109073.40
 1064.59        2967.50           1456       25092.00    109718.40
 1064.62        2967.75           1459       24971.00    109187.50
 1064.65        2968.00           1462       24873.00    108757.50
 1064.68        2968.25           1466       24088.00    105313.50
 1064.71        2968.50           1469       23122.00    101076.30
 1064.74        2968.75           1472       21916.00     95787.94
 1064.77        2969.00           1476       20503.00     89594.02
 1064.80        2969.25           1479       19232.00     84024.53
 1064.83        2969.50           1482       18047.00     78833.56
 1064.87        2969.75           1486       16558.00     72313.20
 1064.90        2970.00           1489       15530.00     67813.06
 1064.93        2970.25           1492       14294.00     62403.99
 1064.96        2970.50           1496       12846.00     56069.39
 1064.99        2970.75           1499       11661.00     50887.13
 1065.02        2971.00           1502       10664.00     46528.29
 1065.05        2971.25           1506        9041.00     39435.03
 1065.08        2971.50           1509        7932.00     34589.93
 1065.11        2971.75           1513        6325.00     27571.62
 1065.14        2972.00           1516        5222.00     22756.16
 1065.17        2972.25           1519        4045.00     17619.16
 1065.20        2972.50           1523        2591.00     11275.39
 1065.23        2972.75           1526        1533.00      6660.88
 1065.27        2973.00           1529         690.00      2985.01
 1065.30        2973.25           1533         325.00      1393.69
 1065.33        2973.50           1536         242.00      1031.85
 1065.36        2973.75           1539         211.00       896.71
 1065.39        2974.00           1543         174.00       735.41
 1065.42        2974.25           1546         128.00       534.88
 1065.45        2974.50           1549         113.00       469.49
 1065.48        2974.75           1553          65.00       260.25
 1065.51        2975.00           1556          63.00       251.53
 1065.54        2975.25           1559          51.00       199.22
 1065.58        2975.50           1563          48.00       186.14
 1065.61        2975.75           1566          45.00       173.06
 1065.64        2976.00           1569          43.00       164.34
 1065.67        2976.25           1573          48.00       186.14
 1065.70        2976.50           1576          50.00       194.86
 1065.73        2976.75           1579          44.00       168.70
 1065.76        2977.00           1583          46.00       177.42
 1065.79        2977.25           1586          45.00       173.06
 1065.82        2977.50           1590          43.00       164.34
 1065.85        2977.75           1593          48.00       186.14
 1065.88        2978.00           1596          55.00       216.65
 1065.91        2978.25           1600          45.00       173.06
 1065.94        2978.50           1603          47.00       181.78
 1065.98        2978.75           1606          48.00       186.14
 1066.01        2979.00           1610          47.00       181.78
 1066.04        2979.25           1613          48.00       186.14
 1066.07        2979.50           1616          41.00       155.62
 1066.10        2979.75           1620          49.00       190.50
 1066.13        2980.00           1623          49.00       190.50
 1066.16        2980.25           1626          42.00       159.98
 1066.19        2980.50           1630          44.00       168.70
 1066.22        2980.75           1633          45.00       173.06
 1066.25        2981.00           1637          44.00       168.70
 1066.28        2981.25           1640          41.00       155.62
 1066.32        2981.50           1643          39.00       146.91
 1066.35        2981.75           1647          41.00       155.62
 1066.38        2982.00           1650          49.00       190.50
 1066.41        2982.25           1653          41.00       155.62
 1066.44        2982.50           1657          45.00       173.06
 1066.47        2982.75           1660          43.00       164.34
 1066.50        2983.00           1663          46.00       177.42
 1066.53        2983.25           1667          55.00       216.65
 1066.56        2983.50           1670          47.00       181.78
 1066.59        2983.75           1673          36.00       133.83
 1066.63        2984.00           1677          46.00       177.42
HS scan finished at 17:46:51
end
