************************************************************
  HS Scan of (1) Internal mercury lamp
************************************************************
Integration time is 0.2294 seconds per sample
dh201017Manchester 53.47 2.23 2.804185pr1000
************************************************************
Dead Time -------------------------  3E-08 
Number of Cycles Used -------------  4 
Starting Wavelength (Angstroms) ---  2950 
Final Wavelength (Angstoms) -------  2984 
Wavelength Increment (Angstroms) --  .25 
Filter Wheel #1 Position ---------- (1) Ground quartz diffuser (ND=2.32)
Filter Wheel #2 Position ---------- (1) Neutral Density 0.494



************************************************************
HS scan start time = 03:57:38
Dark Count =  7.2 


Time (GMT)  Wavelength (Ang)  Step Number  Raw Counts  Counts/Second

  238.00        2950.00           1222          71.00       278.12
  238.07        2950.25           1226          73.00       286.84
  238.10        2950.50           1229          76.00       299.92
  238.13        2950.75           1232          75.00       295.56
  238.16        2951.00           1236          67.00       260.68
  238.19        2951.25           1239          61.00       234.53
  238.22        2951.50           1242          69.00       269.40
  238.25        2951.75           1246          76.00       299.92
  238.29        2952.00           1249          68.00       265.04
  238.32        2952.25           1252          71.00       278.12
  238.35        2952.50           1256          71.00       278.12
  238.38        2952.75           1259          68.00       265.04
  238.41        2953.00           1262          61.00       234.53
  238.44        2953.25           1266          72.00       282.48
  238.47        2953.50           1269          65.00       251.96
  238.50        2953.75           1272          70.00       273.76
  238.53        2954.00           1276          68.00       265.04
  238.56        2954.25           1279          72.00       282.48
  238.59        2954.50           1282          69.00       269.40
  238.63        2954.75           1286          78.00       308.63
  238.66        2955.00           1289          76.00       299.92
  238.69        2955.25           1292          64.00       247.60
  238.72        2955.50           1296          70.00       273.76
  238.75        2955.75           1299          66.00       256.32
  238.78        2956.00           1302          72.00       282.48
  238.81        2956.25           1306          71.00       278.12
  238.84        2956.50           1309          75.00       295.56
  238.87        2956.75           1312          72.00       282.48
  238.90        2957.00           1316          67.00       260.68
  238.93        2957.25           1319          66.00       256.32
  238.96        2957.50           1322          67.00       260.68
  238.99        2957.75           1326          64.00       247.60
  239.02        2958.00           1329          62.00       238.89
  239.05        2958.25           1332          74.00       291.20
  239.08        2958.50           1336          71.00       278.12
  239.11        2958.75           1339          72.00       282.48
  239.15        2959.00           1342          75.00       295.56
  239.18        2959.25           1346          65.00       251.96
  239.21        2959.50           1349          73.00       286.84
  239.24        2959.75           1352          83.00       330.43
  239.27        2960.00           1356         119.00       487.37
  239.30        2960.25           1359         146.00       605.07
  239.33        2960.50           1362         171.00       714.05
  239.36        2960.75           1366         226.00       953.82
  239.39        2961.00           1369         268.00      1136.92
  239.42        2961.25           1372         307.00      1306.94
  239.45        2961.50           1376         364.00      1555.43
  239.48        2961.75           1379         453.00      1943.44
  239.51        2962.00           1382         657.00      2832.85
  239.54        2962.25           1386        1876.00      8148.46
  239.57        2962.50           1389        3308.00     14395.06
  239.60        2962.75           1392        4943.00     21530.03
  239.63        2963.00           1396        6890.00     30030.53
  239.67        2963.25           1399        8441.00     36805.22
  239.70        2963.50           1402       10082.00     43976.03
  239.73        2963.75           1406       12164.00     53078.35
  239.76        2964.00           1409       13757.00     60046.17
  239.79        2964.25           1412       15204.00     66377.91
  239.82        2964.50           1416       17427.00     76109.95
  239.85        2964.75           1419       19069.00     83302.08
  239.88        2965.00           1422       20702.00     90457.88
  239.91        2965.25           1426       22658.00     99033.12
  239.94        2965.50           1429       24415.00    106739.70
  239.98        2965.75           1432       26023.00    113795.90
  240.01        2966.00           1436       28100.00    122914.50
  240.04        2966.25           1439       29662.00    129775.40
  240.07        2966.50           1442       31032.00    135795.40
  240.10        2966.75           1446       32635.00    142841.90
  240.13        2967.00           1449       33462.00    146478.40
  240.16        2967.25           1452       34044.00    149038.10
  240.19        2967.50           1456       34080.00    149196.40
  240.22        2967.75           1459       34023.00    148945.70
  240.26        2968.00           1462       33850.00    148184.80
  240.29        2968.25           1466       33451.00    146430.00
  240.32        2968.50           1469       32479.00    142156.00
  240.35        2968.75           1472       31017.00    135729.40
  240.38        2969.00           1476       28889.00    126379.70
  240.41        2969.25           1479       27464.00    120121.70
  240.44        2969.50           1482       26002.00    113703.70
  240.47        2969.75           1486       23967.00    104774.30
  240.50        2970.00           1489       22451.00     98125.40
  240.53        2970.25           1492       20982.00     91685.15
  240.56        2970.50           1496       18969.00     82863.98
  240.60        2970.75           1499       17283.00     75479.36
  240.63        2971.00           1502       15697.00     68535.71
  240.66        2971.25           1506       13619.00     59442.44
  240.69        2971.50           1509       11902.00     51932.64
  240.72        2971.75           1513        9717.00     42380.79
  240.75        2972.00           1516        8374.00     36512.51
  240.78        2972.25           1519        6733.00     29344.92
  240.81        2972.50           1523        4834.00     21054.27
  240.84        2972.75           1526        3499.00     15228.40
  240.88        2973.00           1529        1957.00      8501.73
  240.91        2973.25           1533         666.00      2872.09
  240.94        2973.50           1536         392.00      1677.50
  240.97        2973.75           1539         304.00      1293.86
  241.00        2974.00           1543         271.00      1150.00
  241.03        2974.25           1546         226.00       953.82
  241.06        2974.50           1549         160.00       666.10
  241.09        2974.75           1553         113.00       461.21
  241.12        2975.00           1556          92.00       369.66
  241.15        2975.25           1559          87.00       347.87
  241.18        2975.50           1563          70.00       273.76
  241.21        2975.75           1566          56.00       212.73
  241.25        2976.00           1569          69.00       269.40
  241.28        2976.25           1573          63.00       243.25
  241.31        2976.50           1576          67.00       260.68
  241.34        2976.75           1579          66.00       256.32
  241.37        2977.00           1583          67.00       260.68
  241.40        2977.25           1586          64.00       247.60
  241.43        2977.50           1590          68.00       265.04
  241.46        2977.75           1593          62.00       238.89
  241.49        2978.00           1596          63.00       243.25
  241.52        2978.25           1600          67.00       260.68
  241.55        2978.50           1603          59.00       225.81
  241.58        2978.75           1606          67.00       260.68
  241.61        2979.00           1610          64.00       247.60
  241.65        2979.25           1613          62.00       238.89
  241.68        2979.50           1616          63.00       243.25
  241.71        2979.75           1620          59.00       225.81
  241.74        2980.00           1623          72.00       282.48
  241.77        2980.25           1626          59.00       225.81
  241.80        2980.50           1630          68.00       265.04
  241.83        2980.75           1633          54.00       204.01
  241.86        2981.00           1637          71.00       278.12
  241.89        2981.25           1640          55.00       208.37
  241.92        2981.50           1643          63.00       243.25
  241.96        2981.75           1647          63.00       243.25
  241.99        2982.00           1650          58.00       221.45
  242.02        2982.25           1653          60.00       230.17
  242.05        2982.50           1657          66.00       256.32
  242.08        2982.75           1660          59.00       225.81
  242.11        2983.00           1663          61.00       234.53
  242.14        2983.25           1667          57.00       217.09
  242.17        2983.50           1670          73.00       286.84
  242.20        2983.75           1673          66.00       256.32
  242.23        2984.00           1677          62.00       238.89
HS scan finished at 04:02:27
end
************************************************************
  HS Scan of (1) Internal mercury lamp
************************************************************
Integration time is 0.2294 seconds per sample
dh201017Manchester 53.47 2.23 2.804185pr1000
************************************************************
Dead Time -------------------------  3E-08 
Number of Cycles Used -------------  4 
Starting Wavelength (Angstroms) ---  2950 
Final Wavelength (Angstoms) -------  2984 
Wavelength Increment (Angstroms) --  .25 
Filter Wheel #1 Position ---------- (1) Ground quartz diffuser (ND=2.32)
Filter Wheel #2 Position ---------- (1) Neutral Density 0.494



************************************************************
HS scan start time = 18:42:02
Dark Count =  6.9 


Time (GMT)  Wavelength (Ang)  Step Number  Raw Counts  Counts/Second

 1122.40        2950.00           1222          68.00       266.35
 1122.47        2950.25           1226          75.00       296.86
 1122.50        2950.50           1229          67.00       261.99
 1122.53        2950.75           1232          64.00       248.91
 1122.56        2951.00           1236          73.00       288.15
 1122.59        2951.25           1239          70.00       275.07
 1122.62        2951.50           1242          67.00       261.99
 1122.65        2951.75           1246          69.00       270.71
 1122.68        2952.00           1249          66.00       257.63
 1122.71        2952.25           1252          71.00       279.43
 1122.74        2952.50           1256          73.00       288.15
 1122.77        2952.75           1259          67.00       261.99
 1122.80        2953.00           1262          65.00       253.27
 1122.83        2953.25           1266          74.00       292.50
 1122.87        2953.50           1269          69.00       270.71
 1122.90        2953.75           1272          69.00       270.71
 1122.93        2954.00           1276          58.00       222.76
 1122.96        2954.25           1279          67.00       261.99
 1122.99        2954.50           1282          68.00       266.35
 1123.02        2954.75           1286          65.00       253.27
 1123.05        2955.00           1289          66.00       257.63
 1123.08        2955.25           1292          69.00       270.71
 1123.11        2955.50           1296          66.00       257.63
 1123.14        2955.75           1299          72.00       283.79
 1123.17        2956.00           1302          68.00       266.35
 1123.20        2956.25           1306          68.00       266.35
 1123.23        2956.50           1309          59.00       227.12
 1123.27        2956.75           1312          76.00       301.22
 1123.30        2957.00           1316          66.00       257.63
 1123.33        2957.25           1319          64.00       248.91
 1123.36        2957.50           1322          68.00       266.35
 1123.39        2957.75           1326          71.00       279.43
 1123.42        2958.00           1329          60.00       231.48
 1123.45        2958.25           1332          75.00       296.86
 1123.48        2958.50           1336          71.00       279.43
 1123.51        2958.75           1339          69.00       270.71
 1123.54        2959.00           1342          61.00       235.83
 1123.57        2959.25           1346          70.00       275.07
 1123.60        2959.50           1349          83.00       331.74
 1123.63        2959.75           1352          96.00       388.41
 1123.66        2960.00           1356         143.00       593.30
 1123.70        2960.25           1359         179.00       750.23
 1123.73        2960.50           1362         210.00       885.38
 1123.76        2960.75           1366         279.00      1186.18
 1123.79        2961.00           1369         301.00      1282.09
 1123.82        2961.25           1372         354.00      1513.15
 1123.85        2961.50           1376         419.00      1796.52
 1123.88        2961.75           1379         623.00      2685.92
 1123.91        2962.00           1382        1311.00      5685.80
 1123.94        2962.25           1386        3004.00     13070.08
 1123.97        2962.50           1389        4549.00     19811.69
 1124.00        2962.75           1392        6188.00     26966.45
 1124.03        2963.00           1396        8174.00     35640.10
 1124.06        2963.25           1399        9755.00     42548.17
 1124.10        2963.50           1402       11372.00     49616.52
 1124.13        2963.75           1406       13370.00     58354.47
 1124.16        2964.00           1409       14984.00     65416.40
 1124.19        2964.25           1412       16528.00     72174.85
 1124.22        2964.50           1416       18493.00     80780.10
 1124.25        2964.75           1419       20089.00     87772.68
 1124.28        2965.00           1422       21764.00     95114.53
 1124.31        2965.25           1426       23896.00    104464.20
 1124.34        2965.50           1429       25297.00    110611.00
 1124.37        2965.75           1432       26896.00    117629.30
 1124.40        2966.00           1436       29201.00    127751.50
 1124.43        2966.25           1439       30575.00    133788.30
 1124.46        2966.50           1442       32024.00    140157.00
 1124.50        2966.75           1446       33299.00    145762.90
 1124.53        2967.00           1449       33722.00    147623.10
 1124.56        2967.25           1452       33813.00    148023.40
 1124.59        2967.50           1456       33565.00    146932.70
 1124.62        2967.75           1459       33773.00    147847.40
 1124.65        2968.00           1462       33534.00    146796.30
 1124.68        2968.25           1466       32415.00    141875.90
 1124.71        2968.50           1469       31178.00    136438.30
 1124.74        2968.75           1472       29770.00    130251.20
 1124.77        2969.00           1476       27669.00    121023.20
 1124.81        2969.25           1479       25893.00    113226.60
 1124.84        2969.50           1482       24341.00    106416.40
 1124.87        2969.75           1486       22216.00     97096.28
 1124.90        2970.00           1489       20902.00     91335.80
 1124.93        2970.25           1492       19488.00     85139.15
 1124.96        2970.50           1496       17465.00     76277.66
 1124.99        2970.75           1499       15955.00     69666.37
 1125.02        2971.00           1502       14370.00     62729.53
 1125.05        2971.25           1506       12200.00     53237.10
 1125.08        2971.50           1509       10658.00     46495.07
 1125.12        2971.75           1513        8516.00     37134.20
 1125.15        2972.00           1516        6942.00     30258.93
 1125.18        2972.25           1519        5462.00     23796.85
 1125.21        2972.50           1523        3547.00     15439.15
 1125.24        2972.75           1526        2075.00      9017.70
 1125.27        2973.00           1529         795.00      3435.84
 1125.30        2973.25           1533         400.00      1713.69
 1125.33        2973.50           1536         277.00      1177.46
 1125.36        2973.75           1539         249.00      1055.40
 1125.39        2974.00           1543         199.00       837.42
 1125.42        2974.25           1546         136.00       562.78
 1125.46        2974.50           1549         129.00       532.27
 1125.49        2974.75           1553          87.00       349.18
 1125.52        2975.00           1556          75.00       296.86
 1125.55        2975.25           1559          72.00       283.79
 1125.58        2975.50           1563          67.00       261.99
 1125.61        2975.75           1566          64.00       248.91
 1125.64        2976.00           1569          59.00       227.12
 1125.67        2976.25           1573          64.00       248.91
 1125.70        2976.50           1576          61.00       235.83
 1125.73        2976.75           1579          62.00       240.19
 1125.76        2977.00           1583          64.00       248.91
 1125.80        2977.25           1586          68.00       266.35
 1125.83        2977.50           1590          57.00       218.40
 1125.86        2977.75           1593          67.00       261.99
 1125.89        2978.00           1596          57.00       218.40
 1125.92        2978.25           1600          71.00       279.43
 1125.95        2978.50           1603          62.00       240.19
 1125.98        2978.75           1606          64.00       248.91
 1126.01        2979.00           1610          55.00       209.68
 1126.04        2979.25           1613          58.00       222.76
 1126.07        2979.50           1616          58.00       222.76
 1126.10        2979.75           1620          67.00       261.99
 1126.14        2980.00           1623          66.00       257.63
 1126.17        2980.25           1626          64.00       248.91
 1126.20        2980.50           1630          52.00       196.60
 1126.23        2980.75           1633          62.00       240.19
 1126.26        2981.00           1637          65.00       253.27
 1126.29        2981.25           1640          62.00       240.19
 1126.32        2981.50           1643          65.00       253.27
 1126.35        2981.75           1647          52.00       196.60
 1126.38        2982.00           1650          68.00       266.35
 1126.41        2982.25           1653          62.00       240.19
 1126.44        2982.50           1657          59.00       227.12
 1126.47        2982.75           1660          64.00       248.91
 1126.50        2983.00           1663          65.00       253.27
 1126.53        2983.25           1667          61.00       235.83
 1126.56        2983.50           1670          56.00       214.04
 1126.59        2983.75           1673          53.00       200.96
 1126.62        2984.00           1677          64.00       248.91
HS scan finished at 18:46:50
end
