************************************************************
  HS Scan of (1) Internal mercury lamp
************************************************************
Integration time is 0.2294 seconds per sample
dh041117Manchester 53.47 2.23 2.804185pr1000
************************************************************
Dead Time -------------------------  3E-08 
Number of Cycles Used -------------  4 
Starting Wavelength (Angstroms) ---  2950 
Final Wavelength (Angstoms) -------  2984 
Wavelength Increment (Angstroms) --  .25 
Filter Wheel #1 Position ---------- (1) Ground quartz diffuser (ND=2.32)
Filter Wheel #2 Position ---------- (1) Neutral Density 0.494



************************************************************
HS scan start time = 04:25:59
Dark Count =  6.7 


Time (GMT)  Wavelength (Ang)  Step Number  Raw Counts  Counts/Second

  266.36        2950.00           1222          71.00       280.30
  266.42        2950.25           1226          65.00       254.14
  266.45        2950.50           1229          69.00       271.58
  266.48        2950.75           1232          68.00       267.22
  266.51        2951.00           1236          59.00       227.99
  266.55        2951.25           1239          65.00       254.14
  266.58        2951.50           1242          67.00       262.86
  266.61        2951.75           1246          63.00       245.42
  266.64        2952.00           1249          70.00       275.94
  266.67        2952.25           1252          64.00       249.78
  266.70        2952.50           1256          67.00       262.86
  266.73        2952.75           1259          60.00       232.35
  266.76        2953.00           1262          63.00       245.42
  266.79        2953.25           1266          68.00       267.22
  266.82        2953.50           1269          61.00       236.71
  266.85        2953.75           1272          73.00       289.02
  266.88        2954.00           1276          64.00       249.78
  266.91        2954.25           1279          66.00       258.50
  266.95        2954.50           1282          63.00       245.42
  266.98        2954.75           1286          64.00       249.78
  267.01        2955.00           1289          62.00       241.07
  267.04        2955.25           1292          68.00       267.22
  267.07        2955.50           1296          67.00       262.86
  267.10        2955.75           1299          81.00       323.89
  267.13        2956.00           1302          64.00       249.78
  267.16        2956.25           1306          68.00       267.22
  267.19        2956.50           1309          66.00       258.50
  267.22        2956.75           1312          65.00       254.14
  267.25        2957.00           1316          66.00       258.50
  267.28        2957.25           1319          60.00       232.35
  267.32        2957.50           1322          67.00       262.86
  267.35        2957.75           1326          67.00       262.86
  267.38        2958.00           1329          67.00       262.86
  267.41        2958.25           1332          68.00       267.22
  267.44        2958.50           1336          64.00       249.78
  267.47        2958.75           1339          64.00       249.78
  267.50        2959.00           1342          67.00       262.86
  267.53        2959.25           1346          73.00       289.02
  267.56        2959.50           1349          65.00       254.14
  267.59        2959.75           1352          83.00       332.61
  267.62        2960.00           1356         114.00       467.75
  267.66        2960.25           1359         129.00       533.14
  267.69        2960.50           1362         158.00       659.56
  267.72        2960.75           1366         217.00       916.76
  267.75        2961.00           1369         245.00      1038.83
  267.78        2961.25           1372         292.00      1243.73
  267.81        2961.50           1376         341.00      1457.34
  267.84        2961.75           1379         433.00      1858.43
  267.87        2962.00           1382         650.00      2804.51
  267.90        2962.25           1386        1940.00      8429.77
  267.93        2962.50           1389        3409.00     14837.90
  267.96        2962.75           1392        5033.00     21925.05
  267.99        2963.00           1396        7045.00     30709.62
  268.03        2963.25           1399        8403.00     36641.39
  268.06        2963.50           1402       10042.00     43803.39
  268.09        2963.75           1406       12112.00     52853.14
  268.12        2964.00           1409       13785.00     60170.85
  268.15        2964.25           1412       15327.00     66918.43
  268.18        2964.50           1416       17361.00     75823.11
  268.21        2964.75           1419       19100.00     83440.09
  268.24        2965.00           1422       20576.00     89907.84
  268.27        2965.25           1426       22763.00     99495.75
  268.31        2965.50           1429       24335.00    106390.90
  268.34        2965.75           1432       25887.00    113201.10
  268.37        2966.00           1436       27871.00    121911.10
  268.40        2966.25           1439       29443.00    128815.50
  268.43        2966.50           1442       30929.00    135344.90
  268.46        2966.75           1446       32555.00    142492.30
  268.49        2967.00           1449       33401.00    146212.30
  268.52        2967.25           1452       33690.00    147483.30
  268.55        2967.50           1456       33626.00    147201.80
  268.59        2967.75           1459       33540.00    146823.60
  268.62        2968.00           1462       33664.00    147368.90
  268.65        2968.25           1466       33121.00    144981.00
  268.68        2968.50           1469       31856.00    139419.30
  268.71        2968.75           1472       30354.00    132818.10
  268.74        2969.00           1476       28402.00    124243.00
  268.77        2969.25           1479       26996.00    118069.20
  268.80        2969.50           1482       25443.00    111252.60
  268.84        2969.75           1486       23418.00    102368.40
  268.87        2970.00           1489       21874.00     95597.66
  268.90        2970.25           1492       20430.00     89267.96
  268.93        2970.50           1496       18475.00     80702.13
  268.96        2970.75           1499       16914.00     73865.78
  268.99        2971.00           1502       15285.00     66734.60
  269.02        2971.25           1506       13243.00     57799.79
  269.05        2971.50           1509       11554.00     50413.15
  269.08        2971.75           1513        9489.00     41386.58
  269.12        2972.00           1516        7984.00     34810.97
  269.15        2972.25           1519        6332.00     27596.07
  269.18        2972.50           1523        4573.00     19917.30
  269.21        2972.75           1526        3048.00     13262.90
  269.24        2973.00           1529        1658.00      7199.90
  269.27        2973.25           1533         608.00      2621.39
  269.30        2973.50           1536         355.00      1518.38
  269.33        2973.75           1539         306.00      1304.76
  269.36        2974.00           1543         243.00      1030.11
  269.39        2974.25           1546         193.00       812.14
  269.42        2974.50           1549         153.00       637.76
  269.45        2974.75           1553         102.00       415.44
  269.48        2975.00           1556          86.00       345.69
  269.51        2975.25           1559          74.00       293.38
  269.54        2975.50           1563          67.00       262.86
  269.58        2975.75           1566          61.00       236.71
  269.61        2976.00           1569          63.00       245.42
  269.64        2976.25           1573          64.00       249.78
  269.67        2976.50           1576          70.00       275.94
  269.70        2976.75           1579          65.00       254.14
  269.73        2977.00           1583          58.00       223.63
  269.76        2977.25           1586          60.00       232.35
  269.79        2977.50           1590          60.00       232.35
  269.82        2977.75           1593          60.00       232.35
  269.85        2978.00           1596          64.00       249.78
  269.88        2978.25           1600          65.00       254.14
  269.91        2978.50           1603          62.00       241.07
  269.95        2978.75           1606          53.00       201.83
  269.98        2979.00           1610          59.00       227.99
  270.01        2979.25           1613          61.00       236.71
  270.04        2979.50           1616          59.00       227.99
  270.07        2979.75           1620          68.00       267.22
  270.10        2980.00           1623          66.00       258.50
  270.13        2980.25           1626          59.00       227.99
  270.16        2980.50           1630          53.00       201.83
  270.19        2980.75           1633          58.00       223.63
  270.22        2981.00           1637          57.00       219.27
  270.25        2981.25           1640          66.00       258.50
  270.29        2981.50           1643          59.00       227.99
  270.32        2981.75           1647          53.00       201.83
  270.35        2982.00           1650          69.00       271.58
  270.38        2982.25           1653          57.00       219.27
  270.41        2982.50           1657          64.00       249.78
  270.44        2982.75           1660          59.00       227.99
  270.47        2983.00           1663          63.00       245.42
  270.50        2983.25           1667          59.00       227.99
  270.53        2983.50           1670          54.00       206.19
  270.56        2983.75           1673          59.00       227.99
  270.59        2984.00           1677          59.00       227.99
HS scan finished at 04:30:49
end
************************************************************
  HS Scan of (1) Internal mercury lamp
************************************************************
Integration time is 0.2294 seconds per sample
dh041117Manchester 53.47 2.23 2.804185pr1000
************************************************************
Dead Time -------------------------  3E-08 
Number of Cycles Used -------------  4 
Starting Wavelength (Angstroms) ---  2950 
Final Wavelength (Angstoms) -------  2984 
Wavelength Increment (Angstroms) --  .25 
Filter Wheel #1 Position ---------- (1) Ground quartz diffuser (ND=2.32)
Filter Wheel #2 Position ---------- (1) Neutral Density 0.494



************************************************************
HS scan start time = 17:42:01
Dark Count =  6.7 


Time (GMT)  Wavelength (Ang)  Step Number  Raw Counts  Counts/Second

 1062.38        2950.00           1222          71.00       280.30
 1062.45        2950.25           1226          67.00       262.86
 1062.48        2950.50           1229          70.00       275.94
 1062.51        2950.75           1232          70.00       275.94
 1062.54        2951.00           1236          69.00       271.58
 1062.57        2951.25           1239          64.00       249.78
 1062.60        2951.50           1242          79.00       315.17
 1062.63        2951.75           1246          67.00       262.86
 1062.67        2952.00           1249          71.00       280.30
 1062.70        2952.25           1252          75.00       297.74
 1062.73        2952.50           1256          68.00       267.22
 1062.76        2952.75           1259          81.00       323.89
 1062.79        2953.00           1262          66.00       258.50
 1062.82        2953.25           1266          65.00       254.14
 1062.85        2953.50           1269          60.00       232.35
 1062.88        2953.75           1272          69.00       271.58
 1062.91        2954.00           1276          76.00       302.10
 1062.94        2954.25           1279          92.00       371.84
 1062.97        2954.50           1282          73.00       289.02
 1063.00        2954.75           1286          59.00       227.99
 1063.03        2955.00           1289          67.00       262.86
 1063.06        2955.25           1292          69.00       271.58
 1063.10        2955.50           1296          67.00       262.86
 1063.13        2955.75           1299          68.00       267.22
 1063.16        2956.00           1302          68.00       267.22
 1063.19        2956.25           1306          75.00       297.74
 1063.22        2956.50           1309          69.00       271.58
 1063.25        2956.75           1312          66.00       258.50
 1063.28        2957.00           1316          71.00       280.30
 1063.31        2957.25           1319          67.00       262.86
 1063.34        2957.50           1322          68.00       267.22
 1063.37        2957.75           1326          65.00       254.14
 1063.40        2958.00           1329          61.00       236.71
 1063.43        2958.25           1332          60.00       232.35
 1063.47        2958.50           1336          66.00       258.50
 1063.50        2958.75           1339          63.00       245.42
 1063.53        2959.00           1342          68.00       267.22
 1063.56        2959.25           1346          74.00       293.38
 1063.59        2959.50           1349          74.00       293.38
 1063.62        2959.75           1352          91.00       367.48
 1063.65        2960.00           1356         117.00       480.83
 1063.68        2960.25           1359         149.00       620.33
 1063.71        2960.50           1362         196.00       825.22
 1063.74        2960.75           1366         226.00       956.00
 1063.77        2961.00           1369         271.00      1152.18
 1063.80        2961.25           1372         315.00      1343.99
 1063.83        2961.50           1376         413.00      1771.24
 1063.87        2961.75           1379         611.00      2634.47
 1063.90        2962.00           1382        1362.00      5909.07
 1063.93        2962.25           1386        3072.00     13367.61
 1063.96        2962.50           1389        4657.00     20283.92
 1063.99        2962.75           1392        6034.00     26294.93
 1064.02        2963.00           1396        7981.00     34797.86
 1064.05        2963.25           1399        9511.00     41482.72
 1064.08        2963.50           1402       11190.00     48821.67
 1064.11        2963.75           1406       13212.00     57664.19
 1064.14        2964.00           1409       14755.00     64415.12
 1064.18        2964.25           1412       16481.00     71969.96
 1064.21        2964.50           1416       18503.00     80824.78
 1064.24        2964.75           1419       20174.00     88146.04
 1064.27        2965.00           1422       21657.00     94646.30
 1064.30        2965.25           1426       23588.00    103114.10
 1064.33        2965.50           1429       25222.00    110282.80
 1064.36        2965.75           1432       26657.00    116581.00
 1064.39        2966.00           1436       28653.00    125345.40
 1064.42        2966.25           1439       29997.00    131249.40
 1064.46        2966.50           1442       31613.00    138351.20
 1064.49        2966.75           1446       32967.00    144303.90
 1064.52        2967.00           1449       33343.00    145957.20
 1064.55        2967.25           1452       33362.00    146040.80
 1064.58        2967.50           1456       33214.00    145390.00
 1064.61        2967.75           1459       33167.00    145183.30
 1064.64        2968.00           1462       33180.00    145240.50
 1064.67        2968.25           1466       32100.00    140492.00
 1064.70        2968.50           1469       30642.00    134083.60
 1064.73        2968.75           1472       29272.00    128064.30
 1064.76        2969.00           1476       27118.00    118604.80
 1064.80        2969.25           1479       25553.00    111735.30
 1064.83        2969.50           1482       24134.00    105509.10
 1064.86        2969.75           1486       22058.00     96404.39
 1064.89        2970.00           1489       20262.00     88531.69
 1064.92        2970.25           1492       18828.00     82248.47
 1064.95        2970.50           1496       17120.00     74767.78
 1064.98        2970.75           1499       15454.00     67474.28
 1065.01        2971.00           1502       13898.00     60665.24
 1065.05        2971.25           1506       11893.00     51895.47
 1065.08        2971.50           1509       10408.00     45403.13
 1065.11        2971.75           1513        8226.00     35868.13
 1065.14        2972.00           1516        6730.00     29334.00
 1065.17        2972.25           1519        5190.00     22610.36
 1065.20        2972.50           1523        3157.00     13738.44
 1065.23        2972.75           1526        1858.00      8072.14
 1065.26        2973.00           1529         768.00      3318.99
 1065.29        2973.25           1533         408.00      1749.44
 1065.32        2973.50           1536         320.00      1365.79
 1065.36        2973.75           1539         293.00      1248.09
 1065.39        2974.00           1543         229.00       969.08
 1065.42        2974.25           1546         183.00       768.54
 1065.45        2974.50           1549         148.00       615.97
 1065.48        2974.75           1553         107.00       437.23
 1065.51        2975.00           1556          75.00       297.74
 1065.54        2975.25           1559          71.00       280.30
 1065.57        2975.50           1563          65.00       254.14
 1065.60        2975.75           1566          64.00       249.78
 1065.63        2976.00           1569          63.00       245.42
 1065.66        2976.25           1573          62.00       241.07
 1065.70        2976.50           1576          62.00       241.07
 1065.73        2976.75           1579          69.00       271.58
 1065.76        2977.00           1583          66.00       258.50
 1065.79        2977.25           1586          70.00       275.94
 1065.82        2977.50           1590          62.00       241.07
 1065.85        2977.75           1593          69.00       271.58
 1065.88        2978.00           1596          66.00       258.50
 1065.91        2978.25           1600          57.00       219.27
 1065.94        2978.50           1603          63.00       245.42
 1065.97        2978.75           1606          63.00       245.42
 1066.00        2979.00           1610          65.00       254.14
 1066.03        2979.25           1613          59.00       227.99
 1066.06        2979.50           1616          59.00       227.99
 1066.10        2979.75           1620          69.00       271.58
 1066.13        2980.00           1623          61.00       236.71
 1066.16        2980.25           1626          51.00       193.11
 1066.19        2980.50           1630          64.00       249.78
 1066.22        2980.75           1633          65.00       254.14
 1066.25        2981.00           1637          67.00       262.86
 1066.28        2981.25           1640          61.00       236.71
 1066.31        2981.50           1643          67.00       262.86
 1066.34        2981.75           1647          62.00       241.07
 1066.37        2982.00           1650          59.00       227.99
 1066.40        2982.25           1653          61.00       236.71
 1066.43        2982.50           1657          58.00       223.63
 1066.46        2982.75           1660          62.00       241.07
 1066.50        2983.00           1663          57.00       219.27
 1066.53        2983.25           1667          56.00       214.91
 1066.56        2983.50           1670          70.00       275.94
 1066.59        2983.75           1673          55.00       210.55
 1066.62        2984.00           1677          66.00       258.50
HS scan finished at 17:46:50
end
