************************************************************
  HS Scan of (1) Internal mercury lamp
************************************************************
Integration time is 0.2294 seconds per sample
dh011117Manchester 53.47 2.23 2.804185pr1000
************************************************************
Dead Time -------------------------  3E-08 
Number of Cycles Used -------------  4 
Starting Wavelength (Angstroms) ---  2950 
Final Wavelength (Angstoms) -------  2984 
Wavelength Increment (Angstroms) --  .25 
Filter Wheel #1 Position ---------- (1) Ground quartz diffuser (ND=2.32)
Filter Wheel #2 Position ---------- (1) Neutral Density 0.494



************************************************************
HS scan start time = 04:20:39
Dark Count =  6.3 


Time (GMT)  Wavelength (Ang)  Step Number  Raw Counts  Counts/Second

  261.03        2950.00           1222          70.00       277.68
  261.09        2950.25           1226          70.00       277.68
  261.12        2950.50           1229          70.00       277.68
  261.15        2950.75           1232          67.00       264.61
  261.19        2951.00           1236          60.00       234.09
  261.22        2951.25           1239          70.00       277.68
  261.25        2951.50           1242          72.00       286.40
  261.28        2951.75           1246          64.00       251.53
  261.31        2952.00           1249          68.00       268.96
  261.34        2952.25           1252          63.00       247.17
  261.37        2952.50           1256          75.00       299.48
  261.40        2952.75           1259          67.00       264.61
  261.43        2953.00           1262          65.00       255.89
  261.46        2953.25           1266          73.00       290.76
  261.49        2953.50           1269          67.00       264.61
  261.52        2953.75           1272          69.00       273.32
  261.55        2954.00           1276          63.00       247.17
  261.58        2954.25           1279          68.00       268.96
  261.61        2954.50           1282          70.00       277.68
  261.65        2954.75           1286          63.00       247.17
  261.68        2955.00           1289          76.00       303.84
  261.71        2955.25           1292          70.00       277.68
  261.74        2955.50           1296          65.00       255.89
  261.77        2955.75           1299          63.00       247.17
  261.80        2956.00           1302          65.00       255.89
  261.83        2956.25           1306          71.00       282.04
  261.86        2956.50           1309          65.00       255.89
  261.89        2956.75           1312          69.00       273.32
  261.92        2957.00           1316          69.00       273.32
  261.95        2957.25           1319          72.00       286.40
  261.98        2957.50           1322          74.00       295.12
  262.01        2957.75           1326          71.00       282.04
  262.04        2958.00           1329          74.00       295.12
  262.08        2958.25           1332          68.00       268.96
  262.11        2958.50           1336          71.00       282.04
  262.14        2958.75           1339          64.00       251.53
  262.17        2959.00           1342          73.00       290.76
  262.20        2959.25           1346          80.00       321.28
  262.23        2959.50           1349          88.00       356.15
  262.26        2959.75           1352          85.00       343.07
  262.29        2960.00           1356         124.00       513.09
  262.32        2960.25           1359         164.00       687.46
  262.35        2960.50           1362         210.00       887.99
  262.39        2960.75           1366         266.00      1132.12
  262.42        2961.00           1369         308.00      1315.22
  262.45        2961.25           1372         333.00      1424.21
  262.48        2961.50           1376         417.00      1790.42
  262.51        2961.75           1379         489.00      2104.32
  262.54        2962.00           1382         936.00      4053.24
  262.57        2962.25           1386        2420.00     10525.12
  262.60        2962.50           1389        3957.00     17230.79
  262.63        2962.75           1392        5506.00     23991.54
  262.66        2963.00           1396        7485.00     32633.07
  262.70        2963.25           1399        8860.00     38639.80
  262.73        2963.50           1402       10521.00     45898.82
  262.76        2963.75           1406       12699.00     55422.07
  262.79        2964.00           1409       14207.00     62018.95
  262.82        2964.25           1412       15803.00     69003.65
  262.85        2964.50           1416       17974.00     78509.46
  262.88        2964.75           1419       19602.00     85641.28
  262.91        2965.00           1422       21257.00     92894.52
  262.94        2965.25           1426       23402.00    102300.00
  262.97        2965.50           1429       24661.00    107822.90
  263.00        2965.75           1432       26243.00    114765.40
  263.04        2966.00           1436       28309.00    123836.30
  263.07        2966.25           1439       29752.00    130174.80
  263.10        2966.50           1442       31156.00    136344.30
  263.13        2966.75           1446       32874.00    143896.70
  263.16        2967.00           1449       33531.00    146785.80
  263.19        2967.25           1452       33584.00    147018.90
  263.22        2967.50           1456       33759.00    147788.50
  263.25        2967.75           1459       33566.00    146939.70
  263.28        2968.00           1462       33479.00    146557.10
  263.32        2968.25           1466       32774.00    143457.00
  263.35        2968.50           1469       31866.00    139465.00
  263.38        2968.75           1472       30065.00    131550.00
  263.41        2969.00           1476       28207.00    123388.30
  263.44        2969.25           1479       26704.00    116789.00
  263.47        2969.50           1482       25191.00    110148.50
  263.50        2969.75           1486       22980.00    100449.20
  263.53        2970.00           1489       21531.00     94095.68
  263.56        2970.25           1492       19971.00     87258.19
  263.60        2970.50           1496       17844.00     77940.09
  263.63        2970.75           1499       16314.00     71240.58
  263.66        2971.00           1502       14743.00     64364.36
  263.69        2971.25           1506       12643.00     55177.14
  263.72        2971.50           1509       11093.00     48399.35
  263.75        2971.75           1513        9177.00     40024.93
  263.78        2972.00           1516        7621.00     33227.09
  263.81        2972.25           1519        6173.00     26903.57
  263.84        2972.50           1523        4197.00     18278.11
  263.88        2972.75           1526        2612.00     11362.64
  263.91        2973.00           1529        1266.00      5492.19
  263.94        2973.25           1533         484.00      2082.52
  263.97        2973.50           1536         355.00      1520.12
  264.00        2973.75           1539         294.00      1254.19
  264.03        2974.00           1543         252.00      1071.09
  264.06        2974.25           1546         186.00       783.37
  264.09        2974.50           1549         141.00       587.19
  264.12        2974.75           1553         105.00       430.26
  264.15        2975.00           1556          87.00       351.79
  264.18        2975.25           1559          82.00       329.99
  264.21        2975.50           1563          68.00       268.96
  264.25        2975.75           1566          65.00       255.89
  264.28        2976.00           1569          79.00       316.92
  264.31        2976.25           1573          59.00       229.73
  264.34        2976.50           1576          56.00       216.65
  264.37        2976.75           1579          66.00       260.25
  264.40        2977.00           1583          68.00       268.96
  264.43        2977.25           1586          68.00       268.96
  264.46        2977.50           1590          64.00       251.53
  264.49        2977.75           1593          71.00       282.04
  264.52        2978.00           1596          67.00       264.61
  264.55        2978.25           1600          65.00       255.89
  264.58        2978.50           1603          64.00       251.53
  264.62        2978.75           1606          68.00       268.96
  264.65        2979.00           1610          57.00       221.01
  264.68        2979.25           1613          66.00       260.25
  264.71        2979.50           1616          54.00       207.94
  264.74        2979.75           1620          60.00       234.09
  264.77        2980.00           1623          57.00       221.01
  264.80        2980.25           1626          62.00       242.81
  264.83        2980.50           1630          60.00       234.09
  264.86        2980.75           1633          56.00       216.65
  264.89        2981.00           1637          63.00       247.17
  264.93        2981.25           1640          61.00       238.45
  264.96        2981.50           1643          63.00       247.17
  264.99        2981.75           1647          62.00       242.81
  265.02        2982.00           1650          58.00       225.37
  265.05        2982.25           1653          57.00       221.01
  265.08        2982.50           1657          58.00       225.37
  265.11        2982.75           1660          57.00       221.01
  265.14        2983.00           1663          63.00       247.17
  265.17        2983.25           1667          60.00       234.09
  265.20        2983.50           1670          61.00       238.45
  265.23        2983.75           1673          59.00       229.73
  265.27        2984.00           1677          64.00       251.53
HS scan finished at 04:25:29
end
************************************************************
  HS Scan of (1) Internal mercury lamp
************************************************************
Integration time is 0.2294 seconds per sample
dh011117Manchester 53.47 2.23 2.804185pr1000
************************************************************
Dead Time -------------------------  3E-08 
Number of Cycles Used -------------  4 
Starting Wavelength (Angstroms) ---  2950 
Final Wavelength (Angstoms) -------  2984 
Wavelength Increment (Angstroms) --  .25 
Filter Wheel #1 Position ---------- (1) Ground quartz diffuser (ND=2.32)
Filter Wheel #2 Position ---------- (1) Neutral Density 0.494



************************************************************
HS scan start time = 17:41:59
Dark Count =  6.4 


Time (GMT)  Wavelength (Ang)  Step Number  Raw Counts  Counts/Second

 1062.34        2950.00           1222          74.00       294.68
 1062.41        2950.25           1226          68.00       268.53
 1062.44        2950.50           1229          64.00       251.09
 1062.47        2950.75           1232          73.00       290.33
 1062.50        2951.00           1236          75.00       299.04
 1062.53        2951.25           1239          70.00       277.25
 1062.57        2951.50           1242          68.00       268.53
 1062.60        2951.75           1246          68.00       268.53
 1062.63        2952.00           1249          68.00       268.53
 1062.66        2952.25           1252          69.00       272.89
 1062.69        2952.50           1256          63.00       246.73
 1062.72        2952.75           1259          69.00       272.89
 1062.75        2953.00           1262          75.00       299.04
 1062.78        2953.25           1266          69.00       272.89
 1062.81        2953.50           1269          68.00       268.53
 1062.84        2953.75           1272          66.00       259.81
 1062.87        2954.00           1276          59.00       229.30
 1062.90        2954.25           1279          69.00       272.89
 1062.94        2954.50           1282          69.00       272.89
 1062.97        2954.75           1286          76.00       303.40
 1063.00        2955.00           1289          67.00       264.17
 1063.03        2955.25           1292          72.00       285.97
 1063.06        2955.50           1296          67.00       264.17
 1063.09        2955.75           1299          62.00       242.37
 1063.12        2956.00           1302          72.00       285.97
 1063.15        2956.25           1306          63.00       246.73
 1063.18        2956.50           1309          75.00       299.04
 1063.21        2956.75           1312          68.00       268.53
 1063.24        2957.00           1316          64.00       251.09
 1063.28        2957.25           1319          65.00       255.45
 1063.31        2957.50           1322          62.00       242.37
 1063.34        2957.75           1326          62.00       242.37
 1063.37        2958.00           1329          69.00       272.89
 1063.40        2958.25           1332          56.00       216.22
 1063.43        2958.50           1336          59.00       229.30
 1063.46        2958.75           1339          64.00       251.09
 1063.49        2959.00           1342          63.00       246.73
 1063.52        2959.25           1346          65.00       255.45
 1063.55        2959.50           1349          76.00       303.40
 1063.58        2959.75           1352          93.00       377.51
 1063.61        2960.00           1356         118.00       486.49
 1063.64        2960.25           1359         157.00       656.51
 1063.67        2960.50           1362         187.00       787.29
 1063.70        2960.75           1366         235.00       996.54
 1063.74        2961.00           1369         292.00      1245.03
 1063.77        2961.25           1372         328.00      1401.98
 1063.80        2961.50           1376         365.00      1563.28
 1063.83        2961.75           1379         516.00      2221.60
 1063.86        2962.00           1382         950.00      4113.85
 1063.89        2962.25           1386        2582.00     11231.33
 1063.92        2962.50           1389        4115.00     17919.83
 1063.95        2962.75           1392        5579.00     24309.79
 1063.98        2963.00           1396        7582.00     33056.31
 1064.01        2963.25           1399        9035.00     39404.01
 1064.05        2963.50           1402       10718.00     46759.54
 1064.08        2963.75           1406       12817.00     55937.74
 1064.11        2964.00           1409       14375.00     62753.60
 1064.14        2964.25           1412       15932.00     69567.88
 1064.17        2964.50           1416       18053.00     78855.03
 1064.20        2964.75           1419       19486.00     85132.58
 1064.23        2965.00           1422       21047.00     91973.56
 1064.26        2965.25           1426       23244.00    101606.50
 1064.29        2965.50           1429       24794.00    108406.00
 1064.32        2965.75           1432       26344.00    115208.30
 1064.35        2966.00           1436       28291.00    123756.80
 1064.39        2966.25           1439       29658.00    129761.40
 1064.42        2966.50           1442       31110.00    136141.70
 1064.45        2966.75           1446       32785.00    143504.90
 1064.48        2967.00           1449       33289.00    145721.10
 1064.51        2967.25           1452       33517.00    146723.80
 1064.54        2967.50           1456       33296.00    145751.90
 1064.57        2967.75           1459       33274.00    145655.10
 1064.60        2968.00           1462       33278.00    145672.70
 1064.63        2968.25           1466       32409.00    141851.70
 1064.67        2968.50           1469       31180.00    136449.30
 1064.70        2968.75           1472       29721.00    130038.10
 1064.73        2969.00           1476       27692.00    121126.40
 1064.76        2969.25           1479       26444.00    115647.30
 1064.79        2969.50           1482       24832.00    108572.80
 1064.82        2969.75           1486       22805.00     99681.25
 1064.85        2970.00           1489       21315.00     93148.34
 1064.88        2970.25           1492       19646.00     85833.65
 1064.91        2970.50           1496       17689.00     77260.82
 1064.94        2970.75           1499       16134.00     70452.15
 1064.97        2971.00           1502       14530.00     63431.84
 1065.01        2971.25           1506       12362.00     53947.74
 1065.04        2971.50           1509       10979.00     47900.52
 1065.07        2971.75           1513        8989.00     39203.01
 1065.10        2972.00           1516        7428.00     32383.67
 1065.13        2972.25           1519        5967.00     26003.72
 1065.16        2972.50           1523        4019.00     17500.90
 1065.19        2972.75           1526        2566.00     11161.54
 1065.22        2973.00           1529        1231.00      5339.13
 1065.25        2973.25           1533         450.00      1933.85
 1065.29        2973.50           1536         325.00      1388.90
 1065.32        2973.75           1539         292.00      1245.03
 1065.35        2974.00           1543         241.00      1022.70
 1065.38        2974.25           1546         171.00       717.54
 1065.41        2974.50           1549         155.00       647.79
 1065.44        2974.75           1553          92.00       373.15
 1065.47        2975.00           1556          81.00       325.20
 1065.50        2975.25           1559          69.00       272.89
 1065.53        2975.50           1563          73.00       290.33
 1065.56        2975.75           1566          67.00       264.17
 1065.59        2976.00           1569          67.00       264.17
 1065.63        2976.25           1573          68.00       268.53
 1065.66        2976.50           1576          67.00       264.17
 1065.69        2976.75           1579          59.00       229.30
 1065.72        2977.00           1583          61.00       238.01
 1065.75        2977.25           1586          69.00       272.89
 1065.78        2977.50           1590          60.00       233.65
 1065.81        2977.75           1593          71.00       281.61
 1065.84        2978.00           1596          63.00       246.73
 1065.87        2978.25           1600          60.00       233.65
 1065.90        2978.50           1603          58.00       224.94
 1065.93        2978.75           1606          65.00       255.45
 1065.97        2979.00           1610          66.00       259.81
 1066.00        2979.25           1613          62.00       242.37
 1066.03        2979.50           1616          60.00       233.65
 1066.06        2979.75           1620          64.00       251.09
 1066.09        2980.00           1623          61.00       238.01
 1066.12        2980.25           1626          57.00       220.58
 1066.15        2980.50           1630          63.00       246.73
 1066.18        2980.75           1633          57.00       220.58
 1066.21        2981.00           1637          59.00       229.30
 1066.24        2981.25           1640          62.00       242.37
 1066.28        2981.50           1643          63.00       246.73
 1066.31        2981.75           1647          60.00       233.65
 1066.34        2982.00           1650          61.00       238.01
 1066.37        2982.25           1653          59.00       229.30
 1066.40        2982.50           1657          53.00       203.14
 1066.43        2982.75           1660          50.00       190.06
 1066.46        2983.00           1663          69.00       272.89
 1066.49        2983.25           1667          54.00       207.50
 1066.52        2983.50           1670          61.00       238.01
 1066.55        2983.75           1673          60.00       233.65
 1066.58        2984.00           1677          64.00       251.09
HS scan finished at 17:46:48
end
