************************************************************
  HS Scan of (1) Internal mercury lamp
************************************************************
Integration time is 0.2294 seconds per sample
dh271018Manchester 53.47 2.23 2.750537pr1000
************************************************************
Dead Time -------------------------  3E-08 
Number of Cycles Used -------------  4 
Starting Wavelength (Angstroms) ---  2950 
Final Wavelength (Angstoms) -------  2984 
Wavelength Increment (Angstroms) --  .25 
Filter Wheel #1 Position ---------- (1) Ground quartz diffuser (ND=2.32)
Filter Wheel #2 Position ---------- (1) Neutral Density 0.494



************************************************************
HS scan start time = 04:10:58
Dark Count =  7.2 


Time (GMT)  Wavelength (Ang)  Step Number  Raw Counts  Counts/Second

  251.33        2950.00           1222          52.00       195.29
  251.40        2950.25           1226          51.00       190.93
  251.43        2950.50           1229          48.00       177.86
  251.46        2950.75           1232          54.00       204.01
  251.49        2951.00           1236          53.00       199.65
  251.52        2951.25           1239          49.00       182.22
  251.55        2951.50           1242          46.00       169.14
  251.58        2951.75           1246          40.00       142.98
  251.62        2952.00           1249          47.00       173.50
  251.65        2952.25           1252          49.00       182.22
  251.68        2952.50           1256          57.00       217.09
  251.71        2952.75           1259          41.00       147.34
  251.74        2953.00           1262          47.00       173.50
  251.77        2953.25           1266          45.00       164.78
  251.80        2953.50           1269          47.00       173.50
  251.83        2953.75           1272          49.00       182.22
  251.86        2954.00           1276          50.00       186.57
  251.89        2954.25           1279          47.00       173.50
  251.92        2954.50           1282          50.00       186.57
  251.95        2954.75           1286          48.00       177.86
  251.99        2955.00           1289          47.00       173.50
  252.02        2955.25           1292          48.00       177.86
  252.05        2955.50           1296          48.00       177.86
  252.08        2955.75           1299          62.00       238.89
  252.11        2956.00           1302          49.00       182.22
  252.14        2956.25           1306          53.00       199.65
  252.17        2956.50           1309          50.00       186.57
  252.20        2956.75           1312          46.00       169.14
  252.23        2957.00           1316          51.00       190.93
  252.26        2957.25           1319          46.00       169.14
  252.29        2957.50           1322          53.00       199.65
  252.32        2957.75           1326          49.00       182.22
  252.35        2958.00           1329          45.00       164.78
  252.39        2958.25           1332          46.00       169.14
  252.42        2958.50           1336          43.00       156.06
  252.45        2958.75           1339          51.00       190.93
  252.48        2959.00           1342          48.00       177.86
  252.51        2959.25           1346          50.00       186.57
  252.54        2959.50           1349          58.00       221.45
  252.57        2959.75           1352          63.00       243.25
  252.60        2960.00           1356          87.00       347.87
  252.63        2960.25           1359         120.00       491.72
  252.66        2960.50           1362         138.00       570.19
  252.69        2960.75           1366         173.00       722.77
  252.72        2961.00           1369         199.00       836.12
  252.76        2961.25           1372         233.00       984.34
  252.79        2961.50           1376         279.00      1184.87
  252.82        2961.75           1379         333.00      1420.29
  252.85        2962.00           1382         539.00      2318.38
  252.88        2962.25           1386        1513.00      6565.37
  252.91        2962.50           1389        2496.00     10852.71
  252.94        2962.75           1392        3583.00     15594.92
  252.97        2963.00           1396        5095.00     22193.50
  253.00        2963.25           1399        6387.00     27834.05
  253.03        2963.50           1402        7463.00     32533.05
  253.07        2963.75           1406        9191.00     40082.17
  253.10        2964.00           1409       10230.00     44622.90
  253.13        2964.25           1412       11235.00     49016.23
  253.16        2964.50           1416       12893.00     56266.65
  253.19        2964.75           1419       14030.00     61240.57
  253.22        2965.00           1422       15263.00     66636.13
  253.25        2965.25           1426       16776.00     73259.36
  253.28        2965.50           1429       18114.00     79118.71
  253.31        2965.75           1432       19171.00     83748.96
  253.34        2966.00           1436       20984.00     91693.91
  253.38        2966.25           1439       21990.00     96104.06
  253.41        2966.50           1442       23267.00    101703.90
  253.44        2966.75           1446       24343.00    106423.80
  253.47        2967.00           1449       24840.00    108604.40
  253.50        2967.25           1452       25257.00    110434.20
  253.53        2967.50           1456       25155.00    109986.60
  253.56        2967.75           1459       25105.00    109767.20
  253.59        2968.00           1462       25090.00    109701.40
  253.62        2968.25           1466       24797.00    108415.70
  253.66        2968.50           1469       24077.00    105256.90
  253.69        2968.75           1472       23013.00    100589.90
  253.72        2969.00           1476       21506.00     93982.14
  253.75        2969.25           1479       20311.00     88744.24
  253.78        2969.50           1482       19103.00     83451.03
  253.81        2969.75           1486       17689.00     77257.32
  253.84        2970.00           1489       16452.00     71840.81
  253.87        2970.25           1492       15216.00     66430.43
  253.90        2970.50           1496       13816.00     60304.30
  253.94        2970.75           1499       12704.00     55440.00
  253.97        2971.00           1502       11616.00     50682.06
  254.00        2971.25           1506       10197.00     44478.67
  254.03        2971.50           1509        8974.00     39133.97
  254.06        2971.75           1513        7423.00     32358.34
  254.09        2972.00           1516        6193.00     26986.97
  254.12        2972.25           1519        5062.00     22049.45
  254.15        2972.50           1523        3549.00     15446.57
  254.18        2972.75           1526        2359.00     10255.12
  254.22        2973.00           1529        1318.00      5715.02
  254.25        2973.25           1533         460.00      1973.96
  254.28        2973.50           1536         280.00      1189.23
  254.31        2973.75           1539         227.00       958.18
  254.34        2974.00           1543         196.00       823.04
  254.37        2974.25           1546         131.00       539.68
  254.40        2974.50           1549         109.00       443.77
  254.43        2974.75           1553          72.00       282.48
  254.46        2975.00           1556          60.00       230.17
  254.49        2975.25           1559          49.00       182.22
  254.52        2975.50           1563          49.00       182.22
  254.55        2975.75           1566          48.00       177.86
  254.59        2976.00           1569          46.00       169.14
  254.62        2976.25           1573          49.00       182.22
  254.65        2976.50           1576          45.00       164.78
  254.68        2976.75           1579          39.00       138.62
  254.71        2977.00           1583          44.00       160.42
  254.74        2977.25           1586          43.00       156.06
  254.77        2977.50           1590          45.00       164.78
  254.80        2977.75           1593          38.00       134.26
  254.83        2978.00           1596          46.00       169.14
  254.86        2978.25           1600          53.00       199.65
  254.89        2978.50           1603          55.00       208.37
  254.92        2978.75           1606          41.00       147.34
  254.96        2979.00           1610          36.00       125.55
  254.99        2979.25           1613          51.00       190.93
  255.02        2979.50           1616          46.00       169.14
  255.05        2979.75           1620          41.00       147.34
  255.08        2980.00           1623          46.00       169.14
  255.11        2980.25           1626          47.00       173.50
  255.14        2980.50           1630          39.00       138.62
  255.17        2980.75           1633          45.00       164.78
  255.20        2981.00           1637          42.00       151.70
  255.23        2981.25           1640          52.00       195.29
  255.26        2981.50           1643          51.00       190.93
  255.30        2981.75           1647          41.00       147.34
  255.33        2982.00           1650          43.00       156.06
  255.36        2982.25           1653          43.00       156.06
  255.39        2982.50           1657          49.00       182.22
  255.42        2982.75           1660          45.00       164.78
  255.45        2983.00           1663          44.00       160.42
  255.48        2983.25           1667          42.00       151.70
  255.51        2983.50           1670          51.00       190.93
  255.54        2983.75           1673          52.00       195.29
  255.57        2984.00           1677          43.00       156.06
HS scan finished at 04:15:47
end
************************************************************
  HS Scan of (1) Internal mercury lamp
************************************************************
Integration time is 0.2294 seconds per sample
dh271018Manchester 53.47 2.23 2.804185pr1000
************************************************************
Dead Time -------------------------  3E-08 
Number of Cycles Used -------------  4 
Starting Wavelength (Angstroms) ---  2950 
Final Wavelength (Angstoms) -------  2984 
Wavelength Increment (Angstroms) --  .25 
Filter Wheel #1 Position ---------- (1) Ground quartz diffuser (ND=2.32)
Filter Wheel #2 Position ---------- (1) Neutral Density 0.494



************************************************************
HS scan start time = 17:42:02
Dark Count =  6.6 


Time (GMT)  Wavelength (Ang)  Step Number  Raw Counts  Counts/Second

 1062.40        2950.00           1222          47.00       176.11
 1062.46        2950.25           1226          47.00       176.11
 1062.49        2950.50           1229          48.00       180.47
 1062.52        2950.75           1232          46.00       171.75
 1062.55        2951.00           1236          49.00       184.83
 1062.58        2951.25           1239          53.00       202.27
 1062.62        2951.50           1242          50.00       189.19
 1062.65        2951.75           1246          51.00       193.55
 1062.68        2952.00           1249          52.00       197.91
 1062.71        2952.25           1252          53.00       202.27
 1062.74        2952.50           1256          58.00       224.06
 1062.77        2952.75           1259          48.00       180.47
 1062.80        2953.00           1262          52.00       197.91
 1062.83        2953.25           1266          53.00       202.27
 1062.86        2953.50           1269          50.00       189.19
 1062.90        2953.75           1272          43.00       158.68
 1062.93        2954.00           1276          55.00       210.99
 1062.96        2954.25           1279          49.00       184.83
 1062.99        2954.50           1282          51.00       193.55
 1063.02        2954.75           1286          49.00       184.83
 1063.05        2955.00           1289          51.00       193.55
 1063.08        2955.25           1292          49.00       184.83
 1063.11        2955.50           1296          48.00       180.47
 1063.14        2955.75           1299          45.00       167.39
 1063.17        2956.00           1302          47.00       176.11
 1063.20        2956.25           1306          47.00       176.11
 1063.23        2956.50           1309          53.00       202.27
 1063.26        2956.75           1312          44.00       163.03
 1063.29        2957.00           1316          48.00       180.47
 1063.33        2957.25           1319          52.00       197.91
 1063.36        2957.50           1322          51.00       193.55
 1063.39        2957.75           1326          51.00       193.55
 1063.42        2958.00           1329          49.00       184.83
 1063.45        2958.25           1332          47.00       176.11
 1063.48        2958.50           1336          50.00       189.19
 1063.51        2958.75           1339          56.00       215.35
 1063.54        2959.00           1342          55.00       210.99
 1063.57        2959.25           1346          54.00       206.63
 1063.60        2959.50           1349          65.00       254.58
 1063.63        2959.75           1352          60.00       232.78
 1063.66        2960.00           1356          77.00       306.89
 1063.69        2960.25           1359         114.00       468.18
 1063.72        2960.50           1362         130.00       537.93
 1063.75        2960.75           1366         188.00       790.78
 1063.79        2961.00           1369         208.00       877.97
 1063.82        2961.25           1372         242.00      1026.19
 1063.85        2961.50           1376         277.00      1178.77
 1063.88        2961.75           1379         385.00      1649.60
 1063.91        2962.00           1382         792.00      3424.07
 1063.94        2962.25           1386        2050.00      8909.97
 1063.97        2962.50           1389        3138.00     13655.99
 1064.00        2962.75           1392        4250.00     18508.09
 1064.03        2963.00           1396        5682.00     24758.58
 1064.06        2963.25           1399        6779.00     29548.41
 1064.09        2963.50           1402        7873.00     34326.53
 1064.12        2963.75           1406        9490.00     41391.39
 1064.16        2964.00           1409       10614.00     46304.04
 1064.19        2964.25           1412       11957.00     52175.77
 1064.22        2964.50           1416       13582.00     59283.20
 1064.25        2964.75           1419       14709.00     64214.27
 1064.28        2965.00           1422       15811.00     69037.35
 1064.31        2965.25           1426       17349.00     75771.00
 1064.34        2965.50           1429       18515.00     80877.78
 1064.37        2965.75           1432       19568.00     85490.99
 1064.40        2966.00           1436       21075.00     92095.43
 1064.43        2966.25           1439       22167.00     96882.75
 1064.47        2966.50           1442       23331.00    101987.20
 1064.50        2966.75           1446       24546.00    107317.10
 1064.53        2967.00           1449       24807.00    108462.20
 1064.56        2967.25           1452       24979.00    109216.90
 1064.59        2967.50           1456       24842.00    108615.80
 1064.62        2967.75           1459       24828.00    108554.40
 1064.65        2968.00           1462       24766.00    108282.30
 1064.68        2968.25           1466       24249.00    106014.10
 1064.71        2968.50           1469       23202.00    101421.50
 1064.74        2968.75           1472       22252.00     97255.44
 1064.78        2969.00           1476       20660.00     90276.44
 1064.81        2969.25           1479       19781.00     86424.31
 1064.84        2969.50           1482       18628.00     81372.78
 1064.87        2969.75           1486       17091.00     74641.24
 1064.90        2970.00           1489       15928.00     69549.50
 1064.93        2970.25           1492       14670.00     64043.60
 1064.96        2970.50           1496       13052.00     56964.75
 1064.99        2970.75           1499       11960.00     52188.89
 1065.02        2971.00           1502       10788.00     47064.67
 1065.05        2971.25           1506        9339.00     40731.52
 1065.09        2971.50           1509        8147.00     35523.45
 1065.12        2971.75           1513        6748.00     29413.04
 1065.15        2972.00           1516        5509.00     24003.33
 1065.18        2972.25           1519        4355.00     18966.32
 1065.21        2972.50           1523        2818.00     12259.96
 1065.24        2972.75           1526        1796.00      7802.18
 1065.27        2973.00           1529         842.00      3642.07
 1065.30        2973.25           1533         349.00      1492.66
 1065.33        2973.50           1536         248.00      1052.34
 1065.36        2973.75           1539         204.00       860.53
 1065.39        2974.00           1543         183.00       768.98
 1065.43        2974.25           1546         144.00       598.96
 1065.46        2974.50           1549         106.00       433.31
 1065.49        2974.75           1553          78.00       311.25
 1065.52        2975.00           1556          60.00       232.78
 1065.55        2975.25           1559          54.00       206.63
 1065.58        2975.50           1563          44.00       163.03
 1065.61        2975.75           1566          45.00       167.39
 1065.64        2976.00           1569          47.00       176.11
 1065.67        2976.25           1573          51.00       193.55
 1065.71        2976.50           1576          44.00       163.03
 1065.74        2976.75           1579          44.00       163.03
 1065.77        2977.00           1583          48.00       180.47
 1065.80        2977.25           1586          51.00       193.55
 1065.83        2977.50           1590          43.00       158.68
 1065.86        2977.75           1593          41.00       149.96
 1065.89        2978.00           1596          45.00       167.39
 1065.92        2978.25           1600          56.00       215.35
 1065.95        2978.50           1603          46.00       171.75
 1065.98        2978.75           1606          50.00       189.19
 1066.01        2979.00           1610          40.00       145.60
 1066.04        2979.25           1613          55.00       210.99
 1066.07        2979.50           1616          43.00       158.68
 1066.11        2979.75           1620          49.00       184.83
 1066.14        2980.00           1623          43.00       158.68
 1066.17        2980.25           1626          42.00       154.32
 1066.20        2980.50           1630          44.00       163.03
 1066.23        2980.75           1633          46.00       171.75
 1066.26        2981.00           1637          49.00       184.83
 1066.29        2981.25           1640          44.00       163.03
 1066.32        2981.50           1643          44.00       163.03
 1066.35        2981.75           1647          51.00       193.55
 1066.38        2982.00           1650          46.00       171.75
 1066.41        2982.25           1653          50.00       189.19
 1066.44        2982.50           1657          43.00       158.68
 1066.47        2982.75           1660          51.00       193.55
 1066.51        2983.00           1663          52.00       197.91
 1066.54        2983.25           1667          46.00       171.75
 1066.57        2983.50           1670          43.00       158.68
 1066.60        2983.75           1673          46.00       171.75
 1066.63        2984.00           1677          56.00       215.35
HS scan finished at 17:46:51
end
