************************************************************
  HS Scan of (1) Internal mercury lamp
************************************************************
Integration time is 0.2294 seconds per sample
dh031117Manchester 53.47 2.23 2.804185pr1000
************************************************************
Dead Time -------------------------  3E-08 
Number of Cycles Used -------------  4 
Starting Wavelength (Angstroms) ---  2950 
Final Wavelength (Angstoms) -------  2984 
Wavelength Increment (Angstroms) --  .25 
Filter Wheel #1 Position ---------- (1) Ground quartz diffuser (ND=2.32)
Filter Wheel #2 Position ---------- (1) Neutral Density 0.494



************************************************************
HS scan start time = 04:24:11
Dark Count =  6.1 


Time (GMT)  Wavelength (Ang)  Step Number  Raw Counts  Counts/Second

  264.56        2950.00           1222          66.00       261.12
  264.63        2950.25           1226          66.00       261.12
  264.66        2950.50           1229          62.00       243.68
  264.69        2950.75           1232          64.00       252.40
  264.72        2951.00           1236          73.00       291.63
  264.75        2951.25           1239          66.00       261.12
  264.78        2951.50           1242          60.00       234.96
  264.81        2951.75           1246          64.00       252.40
  264.84        2952.00           1249          68.00       269.84
  264.87        2952.25           1252          64.00       252.40
  264.90        2952.50           1256          64.00       252.40
  264.94        2952.75           1259          71.00       282.91
  264.97        2953.00           1262          67.00       265.48
  265.00        2953.25           1266          61.00       239.32
  265.03        2953.50           1269          63.00       248.04
  265.06        2953.75           1272          58.00       226.24
  265.09        2954.00           1276          71.00       282.91
  265.12        2954.25           1279          66.00       261.12
  265.15        2954.50           1282          77.00       309.07
  265.18        2954.75           1286          65.00       256.76
  265.21        2955.00           1289          75.00       300.35
  265.24        2955.25           1292          63.00       248.04
  265.27        2955.50           1296          70.00       278.56
  265.30        2955.75           1299          70.00       278.56
  265.34        2956.00           1302          64.00       252.40
  265.37        2956.25           1306          66.00       261.12
  265.40        2956.50           1309          65.00       256.76
  265.43        2956.75           1312          67.00       265.48
  265.46        2957.00           1316          68.00       269.84
  265.49        2957.25           1319          67.00       265.48
  265.52        2957.50           1322          64.00       252.40
  265.55        2957.75           1326          71.00       282.91
  265.58        2958.00           1329          70.00       278.56
  265.61        2958.25           1332          73.00       291.63
  265.64        2958.50           1336          69.00       274.20
  265.67        2958.75           1339          77.00       309.07
  265.71        2959.00           1342          68.00       269.84
  265.74        2959.25           1346          71.00       282.91
  265.77        2959.50           1349          65.00       256.76
  265.80        2959.75           1352          85.00       343.94
  265.83        2960.00           1356         104.00       426.77
  265.86        2960.25           1359         135.00       561.91
  265.89        2960.50           1362         175.00       736.28
  265.92        2960.75           1366         235.00       997.85
  265.95        2961.00           1369         276.00      1176.59
  265.98        2961.25           1372         312.00      1333.53
  266.01        2961.50           1376         374.00      1603.83
  266.04        2961.75           1379         497.00      2140.07
  266.07        2962.00           1382         940.00      4071.55
  266.10        2962.25           1386        2567.00     11167.21
  266.14        2962.50           1389        3995.00     17397.48
  266.17        2962.75           1392        5410.00     23573.34
  266.20        2963.00           1396        7332.00     31965.69
  266.23        2963.25           1399        8921.00     38907.20
  266.26        2963.50           1402       10514.00     45869.10
  266.29        2963.75           1406       12751.00     55650.38
  266.32        2964.00           1409       14333.00     62571.14
  266.35        2964.25           1412       15858.00     69245.27
  266.38        2964.50           1416       17988.00     78571.66
  266.42        2964.75           1419       19505.00     85217.15
  266.45        2965.00           1422       21415.00     93588.02
  266.48        2965.25           1426       23406.00    102318.40
  266.51        2965.50           1429       24867.00    108727.70
  266.54        2965.75           1432       26337.00    115178.90
  266.57        2966.00           1436       28431.00    124373.00
  266.60        2966.25           1439       30064.00    131546.50
  266.63        2966.50           1442       31734.00    138885.70
  266.66        2966.75           1446       32961.00    144280.10
  266.70        2967.00           1449       33502.00    146659.10
  266.73        2967.25           1452       33452.00    146439.20
  266.76        2967.50           1456       33573.00    146971.40
  266.79        2967.75           1459       33468.00    146509.60
  266.82        2968.00           1462       33470.00    146518.40
  266.85        2968.25           1466       32864.00    143853.60
  266.88        2968.50           1469       31456.00    137663.70
  266.91        2968.75           1472       30019.00    131348.70
  266.94        2969.00           1476       27908.00    122076.20
  266.97        2969.25           1479       26640.00    116509.00
  267.01        2969.50           1482       24940.00    109048.00
  267.04        2969.75           1486       22975.00    100428.10
  267.07        2970.00           1489       21347.00     93289.94
  267.10        2970.25           1492       19822.00     86606.16
  267.13        2970.50           1496       17827.00     77866.53
  267.16        2970.75           1499       16277.00     71079.49
  267.19        2971.00           1502       14736.00     64334.60
  267.22        2971.25           1506       12570.00     54858.74
  267.25        2971.50           1509       11169.00     48732.49
  267.29        2971.75           1513        9337.00     40724.97
  267.32        2972.00           1516        7735.00     33725.91
  267.35        2972.25           1519        6141.00     26764.73
  267.38        2972.50           1523        4105.00     17877.50
  267.41        2972.75           1526        2557.00     11123.59
  267.44        2973.00           1529        1346.00      5841.91
  267.47        2973.25           1533         483.00      2079.03
  267.50        2973.50           1536         358.00      1534.07
  267.53        2973.75           1539         309.00      1320.45
  267.56        2974.00           1543         256.00      1089.40
  267.59        2974.25           1546         197.00       832.19
  267.63        2974.50           1549         151.00       631.66
  267.66        2974.75           1553         105.00       431.13
  267.69        2975.00           1556          89.00       361.38
  267.72        2975.25           1559          83.00       335.23
  267.75        2975.50           1563          69.00       274.20
  267.78        2975.75           1566          71.00       282.91
  267.81        2976.00           1569          70.00       278.56
  267.84        2976.25           1573          66.00       261.12
  267.87        2976.50           1576          65.00       256.76
  267.90        2976.75           1579          56.00       217.53
  267.93        2977.00           1583          57.00       221.88
  267.96        2977.25           1586          65.00       256.76
  268.00        2977.50           1590          65.00       256.76
  268.03        2977.75           1593          64.00       252.40
  268.06        2978.00           1596          58.00       226.24
  268.09        2978.25           1600          70.00       278.56
  268.12        2978.50           1603          65.00       256.76
  268.15        2978.75           1606          57.00       221.88
  268.18        2979.00           1610          66.00       261.12
  268.21        2979.25           1613          63.00       248.04
  268.24        2979.50           1616          55.00       213.17
  268.27        2979.75           1620          64.00       252.40
  268.31        2980.00           1623          64.00       252.40
  268.34        2980.25           1626          66.00       261.12
  268.37        2980.50           1630          60.00       234.96
  268.40        2980.75           1633          64.00       252.40
  268.43        2981.00           1637          62.00       243.68
  268.46        2981.25           1640          55.00       213.17
  268.49        2981.50           1643          63.00       248.04
  268.52        2981.75           1647          61.00       239.32
  268.55        2982.00           1650          62.00       243.68
  268.58        2982.25           1653          66.00       261.12
  268.61        2982.50           1657          61.00       239.32
  268.64        2982.75           1660          57.00       221.88
  268.68        2983.00           1663          61.00       239.32
  268.71        2983.25           1667          59.00       230.60
  268.74        2983.50           1670          60.00       234.96
  268.77        2983.75           1673          65.00       256.76
  268.80        2984.00           1677          59.00       230.60
HS scan finished at 04:29:01
end
************************************************************
  HS Scan of (1) Internal mercury lamp
************************************************************
Integration time is 0.2294 seconds per sample
dh031117Manchester 53.47 2.23 2.804185pr1000
************************************************************
Dead Time -------------------------  3E-08 
Number of Cycles Used -------------  4 
Starting Wavelength (Angstroms) ---  2950 
Final Wavelength (Angstoms) -------  2984 
Wavelength Increment (Angstroms) --  .25 
Filter Wheel #1 Position ---------- (1) Ground quartz diffuser (ND=2.32)
Filter Wheel #2 Position ---------- (1) Neutral Density 0.494



************************************************************
HS scan start time = 19:13:01
Dark Count =  7 


Time (GMT)  Wavelength (Ang)  Step Number  Raw Counts  Counts/Second

 1153.39        2950.00           1222          70.00       274.63
 1153.46        2950.25           1226          70.00       274.63
 1153.49        2950.50           1229          64.00       248.48
 1153.52        2950.75           1232          67.00       261.55
 1153.55        2951.00           1236          66.00       257.19
 1153.58        2951.25           1239          74.00       292.07
 1153.62        2951.50           1242          78.00       309.51
 1153.65        2951.75           1246          64.00       248.48
 1153.68        2952.00           1249          68.00       265.91
 1153.71        2952.25           1252          61.00       235.40
 1153.74        2952.50           1256          74.00       292.07
 1153.77        2952.75           1259          67.00       261.55
 1153.80        2953.00           1262          65.00       252.84
 1153.83        2953.25           1266          69.00       270.27
 1153.86        2953.50           1269          70.00       274.63
 1153.89        2953.75           1272          67.00       261.55
 1153.92        2954.00           1276          63.00       244.12
 1153.95        2954.25           1279          64.00       248.48
 1153.99        2954.50           1282          70.00       274.63
 1154.02        2954.75           1286          64.00       248.48
 1154.05        2955.00           1289          73.00       287.71
 1154.08        2955.25           1292          69.00       270.27
 1154.11        2955.50           1296          64.00       248.48
 1154.14        2955.75           1299          60.00       231.04
 1154.17        2956.00           1302          66.00       257.19
 1154.20        2956.25           1306          63.00       244.12
 1154.23        2956.50           1309          61.00       235.40
 1154.26        2956.75           1312          78.00       309.51
 1154.29        2957.00           1316          67.00       261.55
 1154.33        2957.25           1319          71.00       278.99
 1154.36        2957.50           1322          76.00       300.79
 1154.39        2957.75           1326          67.00       261.55
 1154.42        2958.00           1329          74.00       292.07
 1154.45        2958.25           1332          64.00       248.48
 1154.48        2958.50           1336          66.00       257.19
 1154.51        2958.75           1339          69.00       270.27
 1154.54        2959.00           1342          67.00       261.55
 1154.57        2959.25           1346          71.00       278.99
 1154.60        2959.50           1349          79.00       313.87
 1154.63        2959.75           1352         102.00       414.13
 1154.67        2960.00           1356         126.00       518.75
 1154.70        2960.25           1359         169.00       706.21
 1154.73        2960.50           1362         180.00       754.16
 1154.76        2960.75           1366         252.00      1068.04
 1154.79        2961.00           1369         310.00      1320.89
 1154.82        2961.25           1372         326.00      1390.64
 1154.85        2961.50           1376         430.00      1844.04
 1154.88        2961.75           1379         608.00      2620.08
 1154.91        2962.00           1382        1220.00      5288.55
 1154.94        2962.25           1386        2806.00     12205.86
 1154.98        2962.50           1389        4491.00     19558.12
 1155.01        2962.75           1392        5946.00     25909.41
 1155.04        2963.00           1396        7898.00     34433.98
 1155.07        2963.25           1399        9404.00     41013.82
 1155.10        2963.50           1402       11143.00     48614.88
 1155.13        2963.75           1406       13243.00     57798.48
 1155.16        2964.00           1409       14674.00     64059.35
 1155.19        2964.25           1412       16494.00     72025.56
 1155.22        2964.50           1416       18384.00     80302.21
 1155.25        2964.75           1419       19912.00     86996.59
 1155.28        2965.00           1422       21381.00     93435.04
 1155.32        2965.25           1426       23679.00    103511.90
 1155.35        2965.50           1429       25068.00    109605.70
 1155.38        2965.75           1432       26496.00    115872.90
 1155.41        2966.00           1436       28646.00    125313.30
 1155.44        2966.25           1439       30177.00    132039.00
 1155.47        2966.50           1442       31605.00    138314.70
 1155.50        2966.75           1446       32987.00    144390.50
 1155.53        2967.00           1449       33377.00    146105.40
 1155.56        2967.25           1452       33401.00    146211.00
 1155.59        2967.50           1456       33172.00    145203.90
 1155.62        2967.75           1459       33275.00    145656.90
 1155.66        2968.00           1462       33097.00    144874.10
 1155.69        2968.25           1466       32001.00    140055.40
 1155.72        2968.50           1469       30807.00    134807.40
 1155.75        2968.75           1472       29300.00    128186.00
 1155.78        2969.00           1476       27260.00    119226.90
 1155.81        2969.25           1479       25687.00    112322.10
 1155.84        2969.50           1482       24232.00    105937.70
 1155.87        2969.75           1486       22144.00     96780.16
 1155.90        2970.00           1489       20736.00     90607.77
 1155.93        2970.25           1492       19191.00     83837.45
 1155.96        2970.50           1496       17185.00     75051.10
 1156.00        2970.75           1499       15592.00     68077.00
 1156.03        2971.00           1502       14121.00     61639.60
 1156.06        2971.25           1506       12106.00     52825.59
 1156.09        2971.50           1509       10639.00     46411.57
 1156.12        2971.75           1513        8390.00     36583.29
 1156.15        2972.00           1516        6945.00     30271.60
 1156.18        2972.25           1519        5285.00     23023.75
 1156.21        2972.50           1523        3352.00     14587.90
 1156.24        2972.75           1526        1913.00      8310.70
 1156.27        2973.00           1529         786.00      3396.16
 1156.31        2973.25           1533         399.00      1708.89
 1156.34        2973.50           1536         326.00      1390.64
 1156.37        2973.75           1539         265.00      1124.71
 1156.40        2974.00           1543         230.00       972.13
 1156.43        2974.25           1546         162.00       675.69
 1156.46        2974.50           1549         128.00       527.47
 1156.49        2974.75           1553          89.00       357.46
 1156.52        2975.00           1556          85.00       340.02
 1156.55        2975.25           1559          65.00       252.84
 1156.58        2975.50           1563          68.00       265.91
 1156.62        2975.75           1566          61.00       235.40
 1156.65        2976.00           1569          65.00       252.84
 1156.68        2976.25           1573          65.00       252.84
 1156.71        2976.50           1576          65.00       252.84
 1156.74        2976.75           1579          62.00       239.76
 1156.77        2977.00           1583          63.00       244.12
 1156.80        2977.25           1586          61.00       235.40
 1156.83        2977.50           1590          58.00       222.32
 1156.86        2977.75           1593          67.00       261.55
 1156.89        2978.00           1596          65.00       252.84
 1156.92        2978.25           1600          63.00       244.12
 1156.96        2978.50           1603          79.00       313.87
 1156.99        2978.75           1606          61.00       235.40
 1157.02        2979.00           1610          59.00       226.68
 1157.05        2979.25           1613          61.00       235.40
 1157.08        2979.50           1616          64.00       248.48
 1157.11        2979.75           1620          58.00       222.32
 1157.14        2980.00           1623          63.00       244.12
 1157.17        2980.25           1626          57.00       217.96
 1157.20        2980.50           1630          62.00       239.76
 1157.23        2980.75           1633          64.00       248.48
 1157.26        2981.00           1637          61.00       235.40
 1157.29        2981.25           1640          66.00       257.19
 1157.32        2981.50           1643          58.00       222.32
 1157.35        2981.75           1647          63.00       244.12
 1157.38        2982.00           1650          56.00       213.60
 1157.41        2982.25           1653          61.00       235.40
 1157.45        2982.50           1657          64.00       248.48
 1157.48        2982.75           1660          65.00       252.84
 1157.51        2983.00           1663          57.00       217.96
 1157.54        2983.25           1667          63.00       244.12
 1157.57        2983.50           1670          57.00       217.96
 1157.60        2983.75           1673          60.00       231.04
 1157.63        2984.00           1677          65.00       252.84
HS scan finished at 19:17:51
end
