************************************************************
  HS Scan of (1) Internal mercury lamp
************************************************************
Integration time is 0.2294 seconds per sample
dh021117Manchester 53.47 2.23 2.804185pr1000
************************************************************
Dead Time -------------------------  3E-08 
Number of Cycles Used -------------  4 
Starting Wavelength (Angstroms) ---  2950 
Final Wavelength (Angstoms) -------  2984 
Wavelength Increment (Angstroms) --  .25 
Filter Wheel #1 Position ---------- (1) Ground quartz diffuser (ND=2.32)
Filter Wheel #2 Position ---------- (1) Neutral Density 0.494



************************************************************
HS scan start time = 04:22:27
Dark Count =  5.7 


Time (GMT)  Wavelength (Ang)  Step Number  Raw Counts  Counts/Second

  262.81        2950.00           1222          70.00       280.30
  262.88        2950.25           1226          64.00       254.14
  262.91        2950.50           1229          61.00       241.07
  262.94        2950.75           1232          72.00       289.02
  262.97        2951.00           1236          60.00       236.71
  263.00        2951.25           1239          67.00       267.22
  263.03        2951.50           1242          69.00       275.94
  263.07        2951.75           1246          69.00       275.94
  263.10        2952.00           1249          65.00       258.50
  263.13        2952.25           1252          71.00       284.66
  263.16        2952.50           1256          67.00       267.22
  263.19        2952.75           1259          76.00       306.45
  263.22        2953.00           1262          62.00       245.42
  263.25        2953.25           1266          67.00       267.22
  263.28        2953.50           1269          66.00       262.86
  263.31        2953.75           1272          70.00       280.30
  263.34        2954.00           1276          57.00       223.63
  263.37        2954.25           1279          81.00       328.25
  263.40        2954.50           1282          68.00       271.58
  263.43        2954.75           1286          64.00       254.14
  263.46        2955.00           1289          63.00       249.78
  263.49        2955.25           1292          72.00       289.02
  263.53        2955.50           1296          69.00       275.94
  263.56        2955.75           1299          63.00       249.78
  263.59        2956.00           1302          68.00       271.58
  263.62        2956.25           1306          62.00       245.42
  263.65        2956.50           1309          60.00       236.71
  263.68        2956.75           1312          75.00       302.10
  263.71        2957.00           1316          61.00       241.07
  263.74        2957.25           1319          64.00       254.14
  263.77        2957.50           1322          62.00       245.42
  263.80        2957.75           1326          59.00       232.35
  263.83        2958.00           1329          67.00       267.22
  263.86        2958.25           1332          59.00       232.35
  263.89        2958.50           1336          68.00       271.58
  263.92        2958.75           1339          65.00       258.50
  263.95        2959.00           1342          61.00       241.07
  263.99        2959.25           1346          62.00       245.42
  264.02        2959.50           1349          72.00       289.02
  264.05        2959.75           1352          94.00       384.92
  264.08        2960.00           1356         111.00       459.03
  264.11        2960.25           1359         140.00       585.45
  264.14        2960.50           1362         173.00       729.31
  264.17        2960.75           1366         215.00       912.41
  264.20        2961.00           1369         263.00      1121.66
  264.23        2961.25           1372         316.00      1352.71
  264.26        2961.50           1376         372.00      1596.85
  264.30        2961.75           1379         469.00      2019.74
  264.33        2962.00           1382         997.00      4321.83
  264.36        2962.25           1386        2478.00     10780.73
  264.39        2962.50           1389        4002.00     17429.77
  264.42        2962.75           1392        5551.00     24190.61
  264.45        2963.00           1396        7609.00     33177.29
  264.48        2963.25           1399        9146.00     39892.09
  264.51        2963.50           1402       10624.00     46351.69
  264.54        2963.75           1406       12815.00     55932.05
  264.57        2964.00           1409       14428.00     62988.58
  264.61        2964.25           1412       16258.00     70998.05
  264.64        2964.50           1416       18116.00     79134.03
  264.67        2964.75           1419       19590.00     85591.34
  264.70        2965.00           1422       21276.00     92980.46
  264.73        2965.25           1426       23372.00    102171.00
  264.76        2965.50           1429       25033.00    109457.80
  264.79        2965.75           1432       26510.00    115940.10
  264.82        2966.00           1436       28833.00    126140.40
  264.85        2966.25           1439       30187.00    132088.70
  264.89        2966.50           1442       31602.00    138307.20
  264.92        2966.75           1446       33198.00    145324.00
  264.95        2967.00           1449       33575.00    146981.90
  264.98        2967.25           1452       33748.00    147742.80
  265.01        2967.50           1456       33894.00    148384.90
  265.04        2967.75           1459       33807.00    148002.30
  265.07        2968.00           1462       33666.00    147382.10
  265.10        2968.25           1466       32861.00    143842.10
  265.13        2968.50           1469       31499.00    137854.50
  265.16        2968.75           1472       30127.00    131825.00
  265.20        2969.00           1476       27991.00    122442.40
  265.23        2969.25           1479       26539.00    116067.40
  265.26        2969.50           1482       24794.00    108409.10
  265.29        2969.75           1486       22766.00     99513.31
  265.32        2970.00           1489       21189.00     92599.09
  265.35        2970.25           1492       19703.00     86086.47
  265.38        2970.50           1496       17709.00     77351.49
  265.41        2970.75           1499       16192.00     70709.12
  265.44        2971.00           1502       14745.00     64375.73
  265.47        2971.25           1506       12784.00     55796.46
  265.51        2971.50           1509       11116.00     48502.52
  265.54        2971.75           1513        9104.00     39708.56
  265.57        2972.00           1516        7502.00     32709.94
  265.60        2972.25           1519        5926.00     25827.76
  265.63        2972.50           1523        3889.00     16936.68
  265.66        2972.75           1526        2436.00     10597.53
  265.69        2973.00           1529        1266.00      5494.80
  265.72        2973.25           1533         489.00      2106.93
  265.75        2973.50           1536         368.00      1579.41
  265.78        2973.75           1539         319.00      1365.79
  265.82        2974.00           1543         271.00      1156.54
  265.85        2974.25           1546         203.00       860.09
  265.88        2974.50           1549         157.00       659.56
  265.91        2974.75           1553         107.00       441.59
  265.94        2975.00           1556          84.00       341.33
  265.97        2975.25           1559          75.00       302.10
  266.00        2975.50           1563          71.00       284.66
  266.03        2975.75           1566          64.00       254.14
  266.06        2976.00           1569          66.00       262.86
  266.09        2976.25           1573          68.00       271.58
  266.12        2976.50           1576          63.00       249.78
  266.15        2976.75           1579          64.00       254.14
  266.19        2977.00           1583          76.00       306.45
  266.22        2977.25           1586          65.00       258.50
  266.25        2977.50           1590          59.00       232.35
  266.28        2977.75           1593          62.00       245.42
  266.31        2978.00           1596          55.00       214.91
  266.34        2978.25           1600          60.00       236.71
  266.37        2978.50           1603          69.00       275.94
  266.40        2978.75           1606          59.00       232.35
  266.43        2979.00           1610          60.00       236.71
  266.46        2979.25           1613          57.00       223.63
  266.49        2979.50           1616          67.00       267.22
  266.52        2979.75           1620          61.00       241.07
  266.55        2980.00           1623          60.00       236.71
  266.58        2980.25           1626          66.00       262.86
  266.61        2980.50           1630          62.00       245.42
  266.64        2980.75           1633          61.00       241.07
  266.67        2981.00           1637          55.00       214.91
  266.70        2981.25           1640          79.00       319.53
  266.73        2981.50           1643          58.00       227.99
  266.77        2981.75           1647          60.00       236.71
  266.80        2982.00           1650          65.00       258.50
  266.83        2982.25           1653          58.00       227.99
  266.86        2982.50           1657          65.00       258.50
  266.89        2982.75           1660          69.00       275.94
  266.92        2983.00           1663          59.00       232.35
  266.95        2983.25           1667          58.00       227.99
  266.98        2983.50           1670          64.00       254.14
  267.01        2983.75           1673          70.00       280.30
  267.04        2984.00           1677          60.00       236.71
HS scan finished at 04:27:16
end
************************************************************
  HS Scan of (1) Internal mercury lamp
************************************************************
Integration time is 0.2294 seconds per sample
dh021117Manchester 53.47 2.23 2.804185pr1000
************************************************************
Dead Time -------------------------  3E-08 
Number of Cycles Used -------------  4 
Starting Wavelength (Angstroms) ---  2950 
Final Wavelength (Angstoms) -------  2984 
Wavelength Increment (Angstroms) --  .25 
Filter Wheel #1 Position ---------- (1) Ground quartz diffuser (ND=2.32)
Filter Wheel #2 Position ---------- (1) Neutral Density 0.494



************************************************************
HS scan start time = 17:42:01
Dark Count =  6 


Time (GMT)  Wavelength (Ang)  Step Number  Raw Counts  Counts/Second

 1062.39        2950.00           1222          70.00       278.99
 1062.45        2950.25           1226          73.00       292.07
 1062.48        2950.50           1229          72.00       287.71
 1062.52        2950.75           1232          73.00       292.07
 1062.55        2951.00           1236          64.00       252.84
 1062.58        2951.25           1239          62.00       244.12
 1062.61        2951.50           1242          65.00       257.19
 1062.64        2951.75           1246          68.00       270.27
 1062.67        2952.00           1249          74.00       296.43
 1062.70        2952.25           1252          69.00       274.63
 1062.73        2952.50           1256          68.00       270.27
 1062.76        2952.75           1259          63.00       248.48
 1062.79        2953.00           1262          70.00       278.99
 1062.82        2953.25           1266          66.00       261.55
 1062.85        2953.50           1269          70.00       278.99
 1062.88        2953.75           1272          67.00       265.91
 1062.91        2954.00           1276          64.00       252.84
 1062.95        2954.25           1279          65.00       257.19
 1062.98        2954.50           1282          66.00       261.55
 1063.01        2954.75           1286          72.00       287.71
 1063.04        2955.00           1289          68.00       270.27
 1063.07        2955.25           1292          71.00       283.35
 1063.10        2955.50           1296          76.00       305.15
 1063.13        2955.75           1299          68.00       270.27
 1063.16        2956.00           1302          63.00       248.48
 1063.19        2956.25           1306          65.00       257.19
 1063.22        2956.50           1309          58.00       226.68
 1063.25        2956.75           1312          61.00       239.76
 1063.28        2957.00           1316          68.00       270.27
 1063.32        2957.25           1319          68.00       270.27
 1063.35        2957.50           1322          59.00       231.04
 1063.38        2957.75           1326          70.00       278.99
 1063.41        2958.00           1329          65.00       257.19
 1063.44        2958.25           1332          66.00       261.55
 1063.47        2958.50           1336          66.00       261.55
 1063.50        2958.75           1339          55.00       213.60
 1063.53        2959.00           1342          70.00       278.99
 1063.56        2959.25           1346          73.00       292.07
 1063.60        2959.50           1349          77.00       309.51
 1063.63        2959.75           1352          80.00       322.58
 1063.66        2960.00           1356         108.00       444.64
 1063.69        2960.25           1359         146.00       610.30
 1063.72        2960.50           1362         176.00       741.08
 1063.75        2960.75           1366         218.00       924.18
 1063.78        2961.00           1369         280.00      1194.46
 1063.81        2961.25           1372         313.00      1338.33
 1063.84        2961.50           1376         389.00      1669.66
 1063.87        2961.75           1379         504.00      2171.02
 1063.90        2962.00           1382         993.00      4303.08
 1063.93        2962.25           1386        2581.00     11228.72
 1063.96        2962.50           1389        4016.00     17489.56
 1064.00        2962.75           1392        5411.00     23578.14
 1064.03        2963.00           1396        7259.00     31647.30
 1064.06        2963.25           1399        8867.00     38671.70
 1064.09        2963.50           1402       10394.00     45344.99
 1064.12        2963.75           1406       12522.00     54649.24
 1064.15        2964.00           1409       14068.00     61412.08
 1064.18        2964.25           1412       15836.00     69149.40
 1064.21        2964.50           1416       17998.00     78615.88
 1064.24        2964.75           1419       19457.00     85007.27
 1064.28        2965.00           1422       20929.00     91458.09
 1064.31        2965.25           1426       22961.00    100367.10
 1064.34        2965.50           1429       24595.00    107534.70
 1064.37        2965.75           1432       26143.00    114327.80
 1064.40        2966.00           1436       28197.00    123345.70
 1064.43        2966.25           1439       29323.00    128291.40
 1064.46        2966.50           1442       31014.00    135721.50
 1064.49        2966.75           1446       32541.00    142433.80
 1064.52        2967.00           1449       33299.00    145766.80
 1064.55        2967.25           1452       33397.00    146197.80
 1064.58        2967.50           1456       33572.00    146967.40
 1064.62        2967.75           1459       33475.00    146540.80
 1064.65        2968.00           1462       33242.00    145516.20
 1064.68        2968.25           1466       32453.00    142046.90
 1064.71        2968.50           1469       31328.00    137101.60
 1064.74        2968.75           1472       29818.00    130466.10
 1064.77        2969.00           1476       27963.00    122318.10
 1064.80        2969.25           1479       26345.00    115214.50
 1064.83        2969.50           1482       24927.00    108991.40
 1064.86        2969.75           1486       23043.00    100726.80
 1064.89        2970.00           1489       21325.00     93193.93
 1064.93        2970.25           1492       19655.00     85874.83
 1064.96        2970.50           1496       17693.00     77280.10
 1064.99        2970.75           1499       16073.00     70186.87
 1065.02        2971.00           1502       14539.00     63472.98
 1065.05        2971.25           1506       12626.00     55104.10
 1065.08        2971.50           1509       10991.00     47954.73
 1065.11        2971.75           1513        9146.00     39890.78
 1065.14        2972.00           1516        7537.00     32861.50
 1065.18        2972.25           1519        5925.00     25822.09
 1065.21        2972.50           1523        4029.00     17546.29
 1065.24        2972.75           1526        2490.00     10831.77
 1065.27        2973.00           1529        1248.00      5415.00
 1065.30        2973.25           1533         465.00      2000.99
 1065.33        2973.50           1536         339.00      1451.68
 1065.36        2973.75           1539         283.00      1207.54
 1065.39        2974.00           1543         236.00      1002.65
 1065.42        2974.25           1546         172.00       723.64
 1065.45        2974.50           1549         129.00       536.19
 1065.48        2974.75           1553          99.00       405.41
 1065.51        2975.00           1556          76.00       305.15
 1065.55        2975.25           1559          73.00       292.07
 1065.58        2975.50           1563          84.00       340.02
 1065.61        2975.75           1566          59.00       231.04
 1065.64        2976.00           1569          64.00       252.84
 1065.67        2976.25           1573          79.00       318.22
 1065.70        2976.50           1576          59.00       231.04
 1065.73        2976.75           1579          56.00       217.96
 1065.76        2977.00           1583          59.00       231.04
 1065.79        2977.25           1586          62.00       244.12
 1065.83        2977.50           1590          66.00       261.55
 1065.86        2977.75           1593          54.00       209.24
 1065.89        2978.00           1596          62.00       244.12
 1065.92        2978.25           1600          64.00       252.84
 1065.95        2978.50           1603          62.00       244.12
 1065.98        2978.75           1606          60.00       235.40
 1066.01        2979.00           1610          59.00       231.04
 1066.04        2979.25           1613          64.00       252.84
 1066.07        2979.50           1616          69.00       274.63
 1066.10        2979.75           1620          62.00       244.12
 1066.13        2980.00           1623          59.00       231.04
 1066.16        2980.25           1626          59.00       231.04
 1066.19        2980.50           1630          69.00       274.63
 1066.22        2980.75           1633          63.00       248.48
 1066.25        2981.00           1637          61.00       239.76
 1066.28        2981.25           1640          58.00       226.68
 1066.31        2981.50           1643          66.00       261.55
 1066.35        2981.75           1647          60.00       235.40
 1066.38        2982.00           1650          58.00       226.68
 1066.41        2982.25           1653          61.00       239.76
 1066.44        2982.50           1657          61.00       239.76
 1066.47        2982.75           1660          64.00       252.84
 1066.50        2983.00           1663          64.00       252.84
 1066.53        2983.25           1667          62.00       244.12
 1066.56        2983.50           1670          57.00       222.32
 1066.59        2983.75           1673          62.00       244.12
 1066.62        2984.00           1677          50.00       191.81
HS scan finished at 17:46:50
end
