************************************************************
  HS Scan of (1) Internal mercury lamp
************************************************************
Integration time is 0.2294 seconds per sample
dh301018Manchester 53.47 2.23 2.750537pr1000
************************************************************
Dead Time -------------------------  3E-08 
Number of Cycles Used -------------  4 
Starting Wavelength (Angstroms) ---  2950 
Final Wavelength (Angstoms) -------  2984 
Wavelength Increment (Angstroms) --  .25 
Filter Wheel #1 Position ---------- (1) Ground quartz diffuser (ND=2.32)
Filter Wheel #2 Position ---------- (1) Neutral Density 0.494



************************************************************
HS scan start time = 04:16:35
Dark Count =  5.5 


Time (GMT)  Wavelength (Ang)  Step Number  Raw Counts  Counts/Second

  256.96        2950.00           1222          50.00       193.99
  257.02        2950.25           1226          50.00       193.99
  257.05        2950.50           1229          52.00       202.70
  257.08        2950.75           1232          48.00       185.27
  257.12        2951.00           1236          51.00       198.34
  257.15        2951.25           1239          62.00       246.30
  257.18        2951.50           1242          47.00       180.91
  257.21        2951.75           1246          50.00       193.99
  257.24        2952.00           1249          45.00       172.19
  257.27        2952.25           1252          49.00       189.63
  257.30        2952.50           1256          57.00       224.50
  257.33        2952.75           1259          49.00       189.63
  257.36        2953.00           1262          40.00       150.39
  257.39        2953.25           1266          49.00       189.63
  257.42        2953.50           1269          49.00       189.63
  257.45        2953.75           1272          51.00       198.34
  257.48        2954.00           1276          47.00       180.91
  257.51        2954.25           1279          49.00       189.63
  257.54        2954.50           1282          58.00       228.86
  257.58        2954.75           1286          50.00       193.99
  257.61        2955.00           1289          56.00       220.14
  257.64        2955.25           1292          48.00       185.27
  257.67        2955.50           1296          47.00       180.91
  257.70        2955.75           1299          50.00       193.99
  257.73        2956.00           1302          44.00       167.83
  257.76        2956.25           1306          45.00       172.19
  257.79        2956.50           1309          53.00       207.06
  257.82        2956.75           1312          42.00       159.11
  257.85        2957.00           1316          51.00       198.34
  257.88        2957.25           1319          57.00       224.50
  257.91        2957.50           1322          52.00       202.70
  257.94        2957.75           1326          53.00       207.06
  257.98        2958.00           1329          53.00       207.06
  258.01        2958.25           1332          49.00       189.63
  258.04        2958.50           1336          49.00       189.63
  258.07        2958.75           1339          47.00       180.91
  258.10        2959.00           1342          50.00       193.99
  258.13        2959.25           1346          58.00       228.86
  258.16        2959.50           1349          50.00       193.99
  258.19        2959.75           1352          52.00       202.70
  258.22        2960.00           1356          70.00       281.17
  258.25        2960.25           1359          94.00       385.79
  258.28        2960.50           1362         117.00       486.06
  258.31        2960.75           1366         159.00       669.15
  258.34        2961.00           1369         177.00       747.62
  258.37        2961.25           1372         221.00       939.43
  258.40        2961.50           1376         288.00      1231.52
  258.43        2961.75           1379         396.00      1702.35
  258.47        2962.00           1382         833.00      3607.63
  258.50        2962.25           1386        2188.00      9516.67
  258.53        2962.50           1389        3308.00     14402.47
  258.56        2962.75           1392        4381.00     19084.60
  258.59        2963.00           1396        5922.00     25811.18
  258.62        2963.25           1399        7006.00     30544.54
  258.65        2963.50           1402        8198.00     35751.06
  258.68        2963.75           1406        9883.00     43113.71
  258.71        2964.00           1409       10970.00     47865.11
  258.74        2964.25           1412       12239.00     53413.78
  258.77        2964.50           1416       13669.00     59668.62
  258.80        2964.75           1419       14866.00     64906.13
  258.84        2965.00           1422       15935.00     69584.96
  258.87        2965.25           1426       17537.00     76599.10
  258.90        2965.50           1429       18708.00     81728.04
  258.93        2965.75           1432       19855.00     86753.39
  258.96        2966.00           1436       21368.00     93384.62
  258.99        2966.25           1439       22583.00     98711.68
  259.02        2966.50           1442       23644.00    103364.90
  259.05        2966.75           1446       24715.00    108063.40
  259.08        2967.00           1449       24979.00    109221.70
  259.11        2967.25           1452       25063.00    109590.30
  259.15        2967.50           1456       25181.00    110108.10
  259.18        2967.75           1459       25082.00    109673.70
  259.21        2968.00           1462       24924.00    108980.40
  259.24        2968.25           1466       24240.00    105979.40
  259.27        2968.50           1469       23170.00    101285.90
  259.30        2968.75           1472       22039.00     96326.34
  259.33        2969.00           1476       20445.00     89338.96
  259.36        2969.25           1479       19378.00     84663.32
  259.39        2969.50           1482       18312.00     79993.40
  259.43        2969.75           1486       16559.00     72316.71
  259.46        2970.00           1489       15657.00     68368.06
  259.49        2970.25           1492       14553.00     63536.43
  259.52        2970.50           1496       13112.00     57232.01
  259.55        2970.75           1499       11798.00     51485.31
  259.58        2971.00           1502       10708.00     46719.76
  259.61        2971.25           1506        9268.00     40426.07
  259.64        2971.50           1509        8042.00     35069.57
  259.67        2971.75           1513        6421.00     27989.93
  259.70        2972.00           1516        5254.00     22894.97
  259.74        2972.25           1519        4182.00     18216.14
  259.77        2972.50           1523        2719.00     11832.88
  259.80        2972.75           1526        1571.00      6825.72
  259.83        2973.00           1529         705.00      3049.54
  259.86        2973.25           1533         342.00      1466.93
  259.89        2973.50           1536         263.00      1122.53
  259.92        2973.75           1539         223.00       948.15
  259.95        2974.00           1543         189.00       799.93
  259.98        2974.25           1546         154.00       647.35
  260.01        2974.50           1549         126.00       525.29
  260.04        2974.75           1553          98.00       403.23
  260.08        2975.00           1556          77.00       311.69
  260.11        2975.25           1559          59.00       233.22
  260.14        2975.50           1563          45.00       172.19
  260.17        2975.75           1566          48.00       185.27
  260.20        2976.00           1569          46.00       176.55
  260.23        2976.25           1573          46.00       176.55
  260.26        2976.50           1576          43.00       163.47
  260.29        2976.75           1579          43.00       163.47
  260.32        2977.00           1583          52.00       202.70
  260.35        2977.25           1586          48.00       185.27
  260.38        2977.50           1590          42.00       159.11
  260.41        2977.75           1593          51.00       198.34
  260.44        2978.00           1596          51.00       198.34
  260.47        2978.25           1600          50.00       193.99
  260.51        2978.50           1603          46.00       176.55
  260.54        2978.75           1606          51.00       198.34
  260.57        2979.00           1610          51.00       198.34
  260.60        2979.25           1613          48.00       185.27
  260.63        2979.50           1616          40.00       150.39
  260.66        2979.75           1620          43.00       163.47
  260.69        2980.00           1623          41.00       154.75
  260.72        2980.25           1626          44.00       167.83
  260.75        2980.50           1630          54.00       211.42
  260.78        2980.75           1633          53.00       207.06
  260.81        2981.00           1637          51.00       198.34
  260.84        2981.25           1640          43.00       163.47
  260.87        2981.50           1643          50.00       193.99
  260.90        2981.75           1647          47.00       180.91
  260.94        2982.00           1650          48.00       185.27
  260.97        2982.25           1653          47.00       180.91
  261.00        2982.50           1657          43.00       163.47
  261.03        2982.75           1660          37.00       137.32
  261.06        2983.00           1663          53.00       207.06
  261.09        2983.25           1667          38.00       141.67
  261.12        2983.50           1670          46.00       176.55
  261.15        2983.75           1673          42.00       159.11
  261.18        2984.00           1677          47.00       180.91
HS scan finished at 04:21:24
end
************************************************************
  HS Scan of (1) Internal mercury lamp
************************************************************
Integration time is 0.2294 seconds per sample
dh301018Manchester 53.47 2.23 2.804185pr1000
************************************************************
Dead Time -------------------------  3E-08 
Number of Cycles Used -------------  4 
Starting Wavelength (Angstroms) ---  2950 
Final Wavelength (Angstoms) -------  2984 
Wavelength Increment (Angstroms) --  .25 
Filter Wheel #1 Position ---------- (1) Ground quartz diffuser (ND=2.32)
Filter Wheel #2 Position ---------- (1) Neutral Density 0.494



************************************************************
HS scan start time = 17:42:00
Dark Count =  5 


Time (GMT)  Wavelength (Ang)  Step Number  Raw Counts  Counts/Second

 1062.38        2950.00           1222          45.00       174.37
 1062.44        2950.25           1226          49.00       191.81
 1062.47        2950.50           1229          56.00       222.32
 1062.50        2950.75           1232          49.00       191.81
 1062.54        2951.00           1236          44.00       170.01
 1062.57        2951.25           1239          50.00       196.17
 1062.60        2951.50           1242          50.00       196.17
 1062.63        2951.75           1246          52.00       204.88
 1062.66        2952.00           1249          51.00       200.52
 1062.69        2952.25           1252          46.00       178.73
 1062.72        2952.50           1256          49.00       191.81
 1062.75        2952.75           1259          56.00       222.32
 1062.78        2953.00           1262          44.00       170.01
 1062.81        2953.25           1266          46.00       178.73
 1062.84        2953.50           1269          52.00       204.88
 1062.87        2953.75           1272          41.00       156.93
 1062.90        2954.00           1276          49.00       191.81
 1062.94        2954.25           1279          52.00       204.88
 1062.97        2954.50           1282          48.00       187.45
 1063.00        2954.75           1286          50.00       196.17
 1063.03        2955.00           1289          52.00       204.88
 1063.06        2955.25           1292          61.00       244.12
 1063.09        2955.50           1296          50.00       196.17
 1063.12        2955.75           1299          51.00       200.52
 1063.15        2956.00           1302          45.00       174.37
 1063.18        2956.25           1306          46.00       178.73
 1063.21        2956.50           1309          57.00       226.68
 1063.24        2956.75           1312          49.00       191.81
 1063.27        2957.00           1316          48.00       187.45
 1063.31        2957.25           1319          50.00       196.17
 1063.34        2957.50           1322          52.00       204.88
 1063.37        2957.75           1326          52.00       204.88
 1063.40        2958.00           1329          50.00       196.17
 1063.43        2958.25           1332          43.00       165.65
 1063.46        2958.50           1336          50.00       196.17
 1063.49        2958.75           1339          49.00       191.81
 1063.52        2959.00           1342          52.00       204.88
 1063.55        2959.25           1346          58.00       231.04
 1063.58        2959.50           1349          64.00       257.19
 1063.61        2959.75           1352          70.00       283.35
 1063.64        2960.00           1356          87.00       357.46
 1063.68        2960.25           1359          99.00       409.77
 1063.71        2960.50           1362         121.00       505.67
 1063.74        2960.75           1366         162.00       684.41
 1063.77        2961.00           1369         183.00       775.96
 1063.80        2961.25           1372         237.00      1011.36
 1063.83        2961.50           1376         286.00      1224.98
 1063.86        2961.75           1379         410.00      1765.57
 1063.89        2962.00           1382         911.00      3949.90
 1063.92        2962.25           1386        2176.00      9466.51
 1063.95        2962.50           1389        3222.00     14029.44
 1063.98        2962.75           1392        4264.00     18576.17
 1064.02        2963.00           1396        5767.00     25136.65
 1064.05        2963.25           1399        6847.00     29852.36
 1064.08        2963.50           1402        8134.00     35473.65
 1064.11        2963.75           1406        9739.00     42486.56
 1064.14        2964.00           1409       10974.00     47884.78
 1064.17        2964.25           1412       12160.00     53070.48
 1064.20        2964.50           1416       13814.00     60305.17
 1064.23        2964.75           1419       14936.00     65214.65
 1064.26        2965.00           1422       16095.00     70287.56
 1064.29        2965.25           1426       17470.00     76307.88
 1064.32        2965.50           1429       18610.00     81300.94
 1064.35        2965.75           1432       19888.00     86900.19
 1064.39        2966.00           1436       21260.00     92913.38
 1064.42        2966.25           1439       22442.00     98095.59
 1064.45        2966.50           1442       23579.00    103082.00
 1064.48        2966.75           1446       24543.00    107310.90
 1064.51        2967.00           1449       24760.00    108263.00
 1064.54        2967.25           1452       24839.00    108609.60
 1064.57        2967.50           1456       24835.00    108592.10
 1064.60        2967.75           1459       24741.00    108179.70
 1064.63        2968.00           1462       24760.00    108263.00
 1064.67        2968.25           1466       23887.00    104433.10
 1064.70        2968.50           1469       23000.00    100542.60
 1064.73        2968.75           1472       21911.00     95767.34
 1064.76        2969.00           1476       20344.00     88898.50
 1064.79        2969.25           1479       19115.00     83513.25
 1064.82        2969.50           1482       17993.00     78598.37
 1064.85        2969.75           1486       16494.00     72034.31
 1064.88        2970.00           1489       15378.00     67149.09
 1064.91        2970.25           1492       14271.00     62304.67
 1064.94        2970.50           1496       12736.00     55589.58
 1064.97        2970.75           1499       11528.00     50306.91
 1065.00        2971.00           1502       10546.00     46013.78
 1065.03        2971.25           1506        9043.00     39445.09
 1065.07        2971.50           1509        7789.00     33966.59
 1065.10        2971.75           1513        6395.00     27878.58
 1065.13        2972.00           1516        5255.00     22901.52
 1065.16        2972.25           1519        4184.00     18227.05
 1065.19        2972.50           1523        2680.00     11664.94
 1065.22        2972.75           1526        1593.00      6923.84
 1065.25        2973.00           1529         675.00      2920.92
 1065.28        2973.25           1533         328.00      1408.08
 1065.31        2973.50           1536         248.00      1059.32
 1065.34        2973.75           1539         221.00       941.61
 1065.38        2974.00           1543         175.00       741.08
 1065.41        2974.25           1546         135.00       566.71
 1065.44        2974.50           1549         134.00       562.35
 1065.47        2974.75           1553          81.00       331.30
 1065.50        2975.00           1556          59.00       235.40
 1065.53        2975.25           1559          51.00       200.52
 1065.56        2975.50           1563          51.00       200.52
 1065.59        2975.75           1566          50.00       196.17
 1065.62        2976.00           1569          49.00       191.81
 1065.65        2976.25           1573          46.00       178.73
 1065.69        2976.50           1576          50.00       196.17
 1065.72        2976.75           1579          47.00       183.09
 1065.75        2977.00           1583          47.00       183.09
 1065.78        2977.25           1586          43.00       165.65
 1065.81        2977.50           1590          47.00       183.09
 1065.84        2977.75           1593          40.00       152.57
 1065.87        2978.00           1596          39.00       148.21
 1065.90        2978.25           1600          47.00       183.09
 1065.93        2978.50           1603          47.00       183.09
 1065.96        2978.75           1606          42.00       161.29
 1065.99        2979.00           1610          48.00       187.45
 1066.02        2979.25           1613          47.00       183.09
 1066.06        2979.50           1616          50.00       196.17
 1066.09        2979.75           1620          50.00       196.17
 1066.12        2980.00           1623          45.00       174.37
 1066.15        2980.25           1626          43.00       165.65
 1066.18        2980.50           1630          41.00       156.93
 1066.21        2980.75           1633          39.00       148.21
 1066.24        2981.00           1637          47.00       183.09
 1066.27        2981.25           1640          43.00       165.65
 1066.30        2981.50           1643          51.00       200.52
 1066.33        2981.75           1647          46.00       178.73
 1066.36        2982.00           1650          45.00       174.37
 1066.40        2982.25           1653          54.00       213.60
 1066.43        2982.50           1657          38.00       143.85
 1066.46        2982.75           1660          43.00       165.65
 1066.49        2983.00           1663          37.00       139.49
 1066.52        2983.25           1667          48.00       187.45
 1066.55        2983.50           1670          50.00       196.17
 1066.58        2983.75           1673          43.00       165.65
 1066.61        2984.00           1677          46.00       178.73
HS scan finished at 17:46:50
end
