************************************************************
  HS Scan of (1) Internal mercury lamp
************************************************************
Integration time is 0.2294 seconds per sample
dh291018Manchester 53.47 2.23 2.750537pr1000
************************************************************
Dead Time -------------------------  3E-08 
Number of Cycles Used -------------  4 
Starting Wavelength (Angstroms) ---  2950 
Final Wavelength (Angstoms) -------  2984 
Wavelength Increment (Angstroms) --  .25 
Filter Wheel #1 Position ---------- (1) Ground quartz diffuser (ND=2.32)
Filter Wheel #2 Position ---------- (1) Neutral Density 0.494



************************************************************
HS scan start time = 04:14:47
Dark Count =  8.600001 


Time (GMT)  Wavelength (Ang)  Step Number  Raw Counts  Counts/Second

  255.15        2950.00           1222          43.00       149.96
  255.22        2950.25           1226          50.00       180.47
  255.25        2950.50           1229          51.00       184.83
  255.28        2950.75           1232          42.00       145.60
  255.31        2951.00           1236          52.00       189.19
  255.34        2951.25           1239          55.00       202.27
  255.37        2951.50           1242          47.00       167.39
  255.40        2951.75           1246          47.00       167.39
  255.43        2952.00           1249          43.00       149.96
  255.46        2952.25           1252          52.00       189.19
  255.49        2952.50           1256          50.00       180.47
  255.52        2952.75           1259          51.00       184.83
  255.55        2953.00           1262          54.00       197.91
  255.58        2953.25           1266          49.00       176.11
  255.62        2953.50           1269          51.00       184.83
  255.65        2953.75           1272          49.00       176.11
  255.68        2954.00           1276          49.00       176.11
  255.71        2954.25           1279          53.00       193.55
  255.74        2954.50           1282          49.00       176.11
  255.77        2954.75           1286          51.00       184.83
  255.80        2955.00           1289          54.00       197.91
  255.83        2955.25           1292          54.00       197.91
  255.86        2955.50           1296          50.00       180.47
  255.89        2955.75           1299          47.00       167.39
  255.92        2956.00           1302          53.00       193.55
  255.95        2956.25           1306          49.00       176.11
  255.98        2956.50           1309          47.00       167.39
  256.02        2956.75           1312          49.00       176.11
  256.05        2957.00           1316          45.00       158.68
  256.08        2957.25           1319          61.00       228.42
  256.11        2957.50           1322          52.00       189.19
  256.14        2957.75           1326          50.00       180.47
  256.17        2958.00           1329          43.00       149.96
  256.20        2958.25           1332          49.00       176.11
  256.23        2958.50           1336          44.00       154.32
  256.26        2958.75           1339          61.00       228.42
  256.29        2959.00           1342          49.00       176.11
  256.32        2959.25           1346          48.00       171.75
  256.35        2959.50           1349          55.00       202.27
  256.38        2959.75           1352          59.00       219.71
  256.42        2960.00           1356          77.00       298.17
  256.45        2960.25           1359          93.00       367.92
  256.48        2960.50           1362         113.00       455.11
  256.51        2960.75           1366         144.00       590.25
  256.54        2961.00           1369         185.00       768.98
  256.57        2961.25           1372         209.00       873.61
  256.60        2961.50           1376         275.00      1161.33
  256.63        2961.75           1379         402.00      1715.00
  256.66        2962.00           1382         886.00      3825.20
  256.69        2962.25           1386        2152.00      9346.13
  256.72        2962.50           1389        3207.00     13948.30
  256.75        2962.75           1392        4315.00     18783.03
  256.79        2963.00           1396        5893.00     25671.03
  256.82        2963.25           1399        6951.00     30290.81
  256.85        2963.50           1402        8133.00     35453.56
  256.88        2963.75           1406        9823.00     42837.93
  256.91        2964.00           1409       11141.00     48599.14
  256.94        2964.25           1412       12281.00     53583.90
  256.97        2964.50           1416       13796.00     60210.67
  257.00        2964.75           1419       14979.00     65387.08
  257.03        2965.00           1422       15928.00     69540.75
  257.06        2965.25           1426       17517.00     76497.94
  257.09        2965.50           1429       18696.00     81661.90
  257.13        2965.75           1432       19679.00     85968.61
  257.16        2966.00           1436       21398.00     93502.55
  257.19        2966.25           1439       22581.00     98689.32
  257.22        2966.50           1442       23659.00    103417.10
  257.25        2966.75           1446       24722.00    108080.50
  257.28        2967.00           1449       24988.00    109247.60
  257.31        2967.25           1452       24999.00    109295.90
  257.34        2967.50           1456       24778.00    108326.20
  257.37        2967.75           1459       24951.00    109085.30
  257.41        2968.00           1462       24811.00    108471.00
  257.44        2968.25           1466       24140.00    105527.10
  257.47        2968.50           1469       23343.00    102031.10
  257.50        2968.75           1472       22165.00     96865.21
  257.53        2969.00           1476       20668.00     90302.72
  257.56        2969.25           1479       19452.00     84973.98
  257.59        2969.50           1482       18225.00     79598.75
  257.62        2969.75           1486       16670.00     72789.12
  257.65        2970.00           1489       15630.00     68236.33
  257.69        2970.25           1492       14463.00     63129.04
  257.72        2970.50           1496       13067.00     57021.61
  257.75        2970.75           1499       11862.00     51751.61
  257.78        2971.00           1502       10699.00     46666.86
  257.81        2971.25           1506        9237.00     40277.06
  257.84        2971.50           1509        8003.00     34885.67
  257.87        2971.75           1513        6517.00     28395.58
  257.90        2972.00           1516        5521.00     24046.99
  257.93        2972.25           1519        4349.00     18931.41
  257.96        2972.50           1523        2861.00     12438.82
  258.00        2972.75           1526        1705.00      7396.59
  258.03        2973.00           1529         784.00      3380.47
  258.06        2973.25           1533         364.00      1549.33
  258.09        2973.50           1536         270.00      1139.53
  258.12        2973.75           1539         247.00      1039.27
  258.15        2974.00           1543         201.00       838.73
  258.18        2974.25           1546         152.00       625.12
  258.21        2974.50           1549         119.00       481.26
  258.24        2974.75           1553          90.00       354.84
  258.28        2975.00           1556          63.00       237.14
  258.31        2975.25           1559          58.00       215.35
  258.34        2975.50           1563          52.00       189.19
  258.37        2975.75           1566          50.00       180.47
  258.40        2976.00           1569          49.00       176.11
  258.43        2976.25           1573          50.00       180.47
  258.46        2976.50           1576          48.00       171.75
  258.49        2976.75           1579          51.00       184.83
  258.52        2977.00           1583          50.00       180.47
  258.55        2977.25           1586          45.00       158.68
  258.58        2977.50           1590          44.00       154.32
  258.61        2977.75           1593          48.00       171.75
  258.64        2978.00           1596          51.00       184.83
  258.68        2978.25           1600          52.00       189.19
  258.71        2978.50           1603          51.00       184.83
  258.74        2978.75           1606          49.00       176.11
  258.77        2979.00           1610          52.00       189.19
  258.80        2979.25           1613          55.00       202.27
  258.83        2979.50           1616          47.00       167.39
  258.86        2979.75           1620          49.00       176.11
  258.89        2980.00           1623          51.00       184.83
  258.92        2980.25           1626          46.00       163.03
  258.95        2980.50           1630          42.00       145.60
  258.99        2980.75           1633          36.00       119.44
  259.02        2981.00           1637          43.00       149.96
  259.05        2981.25           1640          48.00       171.75
  259.08        2981.50           1643          46.00       163.03
  259.11        2981.75           1647          41.00       141.24
  259.14        2982.00           1650          47.00       167.39
  259.17        2982.25           1653          45.00       158.68
  259.20        2982.50           1657          44.00       154.32
  259.23        2982.75           1660          38.00       128.16
  259.26        2983.00           1663          37.00       123.80
  259.29        2983.25           1667          51.00       184.83
  259.33        2983.50           1670          39.00       132.52
  259.36        2983.75           1673          48.00       171.75
  259.39        2984.00           1677          47.00       167.39
HS scan finished at 04:19:36
end
************************************************************
  HS Scan of (1) Internal mercury lamp
************************************************************
Integration time is 0.2294 seconds per sample
dh291018Manchester 53.47 2.23 2.804185pr1000
************************************************************
Dead Time -------------------------  3E-08 
Number of Cycles Used -------------  4 
Starting Wavelength (Angstroms) ---  2950 
Final Wavelength (Angstoms) -------  2984 
Wavelength Increment (Angstroms) --  .25 
Filter Wheel #1 Position ---------- (1) Ground quartz diffuser (ND=2.32)
Filter Wheel #2 Position ---------- (1) Neutral Density 0.494



************************************************************
HS scan start time = 17:42:03
Dark Count =  6.3 


Time (GMT)  Wavelength (Ang)  Step Number  Raw Counts  Counts/Second

 1062.41        2950.00           1222          48.00       181.78
 1062.48        2950.25           1226          51.00       194.86
 1062.51        2950.50           1229          48.00       181.78
 1062.54        2950.75           1232          50.00       190.50
 1062.57        2951.00           1236          49.00       186.14
 1062.60        2951.25           1239          57.00       221.01
 1062.63        2951.50           1242          55.00       212.29
 1062.67        2951.75           1246          50.00       190.50
 1062.70        2952.00           1249          50.00       190.50
 1062.73        2952.25           1252          53.00       203.58
 1062.76        2952.50           1256          51.00       194.86
 1062.79        2952.75           1259          55.00       212.29
 1062.82        2953.00           1262          55.00       212.29
 1062.85        2953.25           1266          53.00       203.58
 1062.88        2953.50           1269          61.00       238.45
 1062.91        2953.75           1272          53.00       203.58
 1062.94        2954.00           1276          47.00       177.42
 1062.97        2954.25           1279          50.00       190.50
 1063.00        2954.50           1282          48.00       181.78
 1063.03        2954.75           1286          43.00       159.98
 1063.07        2955.00           1289          46.00       173.06
 1063.10        2955.25           1292          50.00       190.50
 1063.13        2955.50           1296          47.00       177.42
 1063.16        2955.75           1299          53.00       203.58
 1063.19        2956.00           1302          52.00       199.22
 1063.22        2956.25           1306          49.00       186.14
 1063.25        2956.50           1309          44.00       164.34
 1063.28        2956.75           1312          51.00       194.86
 1063.31        2957.00           1316          52.00       199.22
 1063.34        2957.25           1319          52.00       199.22
 1063.37        2957.50           1322          47.00       177.42
 1063.40        2957.75           1326          58.00       225.37
 1063.44        2958.00           1329          47.00       177.42
 1063.47        2958.25           1332          54.00       207.94
 1063.50        2958.50           1336          45.00       168.70
 1063.53        2958.75           1339          49.00       186.14
 1063.56        2959.00           1342          46.00       173.06
 1063.59        2959.25           1346          60.00       234.09
 1063.62        2959.50           1349          55.00       212.29
 1063.65        2959.75           1352          65.00       255.89
 1063.68        2960.00           1356          90.00       364.87
 1063.71        2960.25           1359         102.00       417.18
 1063.74        2960.50           1362         135.00       561.04
 1063.77        2960.75           1366         183.00       770.29
 1063.81        2961.00           1369         212.00       896.71
 1063.84        2961.25           1372         242.00      1027.49
 1063.87        2961.50           1376         322.00      1376.26
 1063.90        2961.75           1379         461.00      1982.25
 1063.93        2962.00           1382        1048.00      4541.60
 1063.96        2962.25           1386        2401.00     10442.24
 1063.99        2962.50           1389        3475.00     15127.61
 1064.02        2962.75           1392        4609.00     20076.17
 1064.05        2963.00           1396        6165.00     26868.64
 1064.08        2963.25           1399        7372.00     32139.52
 1064.11        2963.50           1402        8510.00     37110.60
 1064.14        2963.75           1406       10063.00     43896.92
 1064.18        2964.00           1409       11239.00     49037.66
 1064.21        2964.25           1412       12500.00     54551.72
 1064.24        2964.50           1416       13989.00     61065.13
 1064.27        2964.75           1419       15153.00     66158.65
 1064.30        2965.00           1422       16158.00     70557.66
 1064.33        2965.25           1426       17757.00     77559.06
 1064.36        2965.50           1429       18842.00     82311.55
 1064.39        2965.75           1432       20090.00     87779.68
 1064.42        2966.00           1436       21749.00     95051.40
 1064.45        2966.25           1439       22986.00    100475.50
 1064.49        2966.50           1442       23846.00    104247.50
 1064.52        2966.75           1446       24863.00    108709.20
 1064.55        2967.00           1449       24934.00    109020.80
 1064.58        2967.25           1452       24813.00    108489.90
 1064.61        2967.50           1456       24938.00    109038.30
 1064.64        2967.75           1459       24838.00    108599.50
 1064.67        2968.00           1462       24751.00    108217.80
 1064.70        2968.25           1466       23834.00    104194.90
 1064.73        2968.50           1469       22678.00     99124.77
 1064.76        2968.75           1472       21474.00     93845.79
 1064.80        2969.00           1476       20079.00     87731.46
 1064.83        2969.25           1479       18764.00     81969.85
 1064.86        2969.50           1482       17813.00     77804.32
 1064.89        2969.75           1486       16263.00     71017.31
 1064.92        2970.00           1489       14936.00     65208.96
 1064.95        2970.25           1492       13937.00     60837.62
 1064.98        2970.50           1496       12366.00     53965.68
 1065.01        2970.75           1499       11224.00     48972.07
 1065.04        2971.00           1502       10235.00     44648.70
 1065.07        2971.25           1506        8668.00     37800.91
 1065.10        2971.50           1509        7573.00     33017.43
 1065.14        2971.75           1513        5910.00     25755.29
 1065.17        2972.00           1516        4719.00     20556.27
 1065.20        2972.25           1519        3572.00     15550.84
 1065.23        2972.50           1523        2175.00      9456.47
 1065.26        2972.75           1526        1149.00      4982.00
 1065.29        2973.00           1529         500.00      2152.28
 1065.32        2973.25           1533         295.00      1258.55
 1065.35        2973.50           1536         234.00       992.62
 1065.38        2973.75           1539         208.00       879.27
 1065.41        2974.00           1543         170.00       713.62
 1065.45        2974.25           1546         132.00       547.96
 1065.48        2974.50           1549         106.00       434.62
 1065.51        2974.75           1553          67.00       264.61
 1065.54        2975.00           1556          61.00       238.45
 1065.57        2975.25           1559          53.00       203.58
 1065.60        2975.50           1563          43.00       159.98
 1065.63        2975.75           1566          48.00       181.78
 1065.66        2976.00           1569          50.00       190.50
 1065.69        2976.25           1573          53.00       203.58
 1065.72        2976.50           1576          47.00       177.42
 1065.75        2976.75           1579          44.00       164.34
 1065.78        2977.00           1583          54.00       207.94
 1065.81        2977.25           1586          44.00       164.34
 1065.85        2977.50           1590          48.00       181.78
 1065.88        2977.75           1593          55.00       212.29
 1065.91        2978.00           1596          47.00       177.42
 1065.94        2978.25           1600          52.00       199.22
 1065.97        2978.50           1603          48.00       181.78
 1066.00        2978.75           1606          50.00       190.50
 1066.03        2979.00           1610          42.00       155.62
 1066.06        2979.25           1613          45.00       168.70
 1066.09        2979.50           1616          37.00       133.83
 1066.12        2979.75           1620          40.00       146.91
 1066.15        2980.00           1623          47.00       177.42
 1066.18        2980.25           1626          46.00       173.06
 1066.21        2980.50           1630          43.00       159.98
 1066.24        2980.75           1633          40.00       146.91
 1066.27        2981.00           1637          45.00       168.70
 1066.30        2981.25           1640          47.00       177.42
 1066.33        2981.50           1643          45.00       168.70
 1066.36        2981.75           1647          49.00       186.14
 1066.40        2982.00           1650          44.00       164.34
 1066.43        2982.25           1653          53.00       203.58
 1066.46        2982.50           1657          50.00       190.50
 1066.49        2982.75           1660          48.00       181.78
 1066.52        2983.00           1663          46.00       173.06
 1066.55        2983.25           1667          45.00       168.70
 1066.58        2983.50           1670          42.00       155.62
 1066.61        2983.75           1673          41.00       151.26
 1066.64        2984.00           1677          47.00       177.42
HS scan finished at 17:46:51
end
