************************************************************
  HS Scan of (1) Internal mercury lamp
************************************************************
Integration time is 0.2294 seconds per sample
dh271017Manchester 53.47 2.23 2.804185pr1000
************************************************************
Dead Time -------------------------  3E-08 
Number of Cycles Used -------------  4 
Starting Wavelength (Angstroms) ---  2950 
Final Wavelength (Angstoms) -------  2984 
Wavelength Increment (Angstroms) --  .25 
Filter Wheel #1 Position ---------- (1) Ground quartz diffuser (ND=2.32)
Filter Wheel #2 Position ---------- (1) Neutral Density 0.494



************************************************************
HS scan start time = 04:11:28
Dark Count =  5.7 


Time (GMT)  Wavelength (Ang)  Step Number  Raw Counts  Counts/Second

  251.83        2950.00           1222          68.00       271.58
  251.90        2950.25           1226          66.00       262.86
  251.93        2950.50           1229          77.00       310.81
  251.96        2950.75           1232          61.00       241.07
  251.99        2951.00           1236          67.00       267.22
  252.02        2951.25           1239          67.00       267.22
  252.05        2951.50           1242          64.00       254.14
  252.08        2951.75           1246          70.00       280.30
  252.11        2952.00           1249          65.00       258.50
  252.14        2952.25           1252          66.00       262.86
  252.17        2952.50           1256          71.00       284.66
  252.20        2952.75           1259          68.00       271.58
  252.23        2953.00           1262          72.00       289.02
  252.27        2953.25           1266          67.00       267.22
  252.30        2953.50           1269          62.00       245.42
  252.33        2953.75           1272          68.00       271.58
  252.36        2954.00           1276          65.00       258.50
  252.39        2954.25           1279          68.00       271.58
  252.42        2954.50           1282          83.00       336.97
  252.45        2954.75           1286          71.00       284.66
  252.48        2955.00           1289          74.00       297.74
  252.51        2955.25           1292          68.00       271.58
  252.55        2955.50           1296          66.00       262.86
  252.58        2955.75           1299          66.00       262.86
  252.61        2956.00           1302          67.00       267.22
  252.64        2956.25           1306          65.00       258.50
  252.67        2956.50           1309          69.00       275.94
  252.70        2956.75           1312          69.00       275.94
  252.73        2957.00           1316          70.00       280.30
  252.76        2957.25           1319          58.00       227.99
  252.79        2957.50           1322          68.00       271.58
  252.82        2957.75           1326          63.00       249.78
  252.86        2958.00           1329          71.00       284.66
  252.89        2958.25           1332          62.00       245.42
  252.92        2958.50           1336          67.00       267.22
  252.95        2958.75           1339          73.00       293.38
  252.98        2959.00           1342          73.00       293.38
  253.01        2959.25           1346          68.00       271.58
  253.04        2959.50           1349          72.00       289.02
  253.07        2959.75           1352          85.00       345.69
  253.10        2960.00           1356         102.00       419.80
  253.13        2960.25           1359         138.00       576.73
  253.16        2960.50           1362         180.00       759.83
  253.19        2960.75           1366         242.00      1030.11
  253.22        2961.00           1369         265.00      1130.38
  253.26        2961.25           1372         316.00      1352.71
  253.29        2961.50           1376         366.00      1570.69
  253.32        2961.75           1379         424.00      1823.55
  253.35        2962.00           1382         643.00      2778.35
  253.38        2962.25           1386        1795.00      7801.74
  253.41        2962.50           1389        3169.00     13795.16
  253.44        2962.75           1392        4620.00     20126.80
  253.47        2963.00           1396        6594.00     28744.48
  253.50        2963.25           1399        8126.00     35435.65
  253.54        2963.50           1402        9387.00     40945.21
  253.57        2963.75           1406       11562.00     50452.51
  253.60        2964.00           1409       13166.00     57467.35
  253.63        2964.25           1412       14880.00     64966.51
  253.66        2964.50           1416       17037.00     74408.72
  253.69        2964.75           1419       18575.00     81144.56
  253.72        2965.00           1422       20108.00     87861.19
  253.75        2965.25           1426       21978.00     96058.03
  253.78        2965.50           1429       23600.00    103171.10
  253.81        2965.75           1432       24993.00    109282.30
  253.84        2966.00           1436       27234.00    119118.50
  253.88        2966.25           1439       28636.00    125275.10
  253.91        2966.50           1442       30263.00    132422.60
  253.94        2966.75           1446       32104.00    140513.90
  253.97        2967.00           1449       33278.00    145675.80
  254.00        2967.25           1452       33499.00    146647.70
  254.03        2967.50           1456       33559.00    146911.60
  254.06        2967.75           1459       33477.00    146550.90
  254.09        2968.00           1462       33456.00    146458.60
  254.13        2968.25           1466       33240.00    145508.70
  254.16        2968.50           1469       32401.00    141819.60
  254.19        2968.75           1472       31131.00    136237.00
  254.22        2969.00           1476       29171.00    127625.00
  254.25        2969.25           1479       27696.00    121147.00
  254.28        2969.50           1482       26338.00    115185.10
  254.31        2969.75           1486       23958.00    104741.40
  254.34        2970.00           1489       22563.00     98623.11
  254.37        2970.25           1492       21057.00     92020.48
  254.40        2970.50           1496       19113.00     83501.43
  254.43        2970.75           1499       17554.00     76672.68
  254.47        2971.00           1502       15964.00     69711.03
  254.50        2971.25           1506       14095.00     61531.53
  254.53        2971.50           1509       12515.00     54619.95
  254.56        2971.75           1513       10717.00     46758.22
  254.59        2972.00           1516        9191.00     40088.72
  254.62        2972.25           1519        7553.00     32932.70
  254.65        2972.50           1523        5472.00     23845.74
  254.68        2972.75           1526        4030.00     17551.96
  254.71        2973.00           1529        2539.00     11046.82
  254.75        2973.25           1533         910.00      3942.49
  254.78        2973.50           1536         460.00      1980.50
  254.81        2973.75           1539         295.00      1261.16
  254.84        2974.00           1543         254.00      1082.42
  254.87        2974.25           1546         184.00       777.26
  254.90        2974.50           1549         137.00       572.37
  254.93        2974.75           1553         104.00       428.51
  254.96        2975.00           1556          90.00       367.48
  254.99        2975.25           1559          75.00       302.10
  255.02        2975.50           1563          60.00       236.71
  255.05        2975.75           1566          69.00       275.94
  255.08        2976.00           1569          69.00       275.94
  255.12        2976.25           1573          64.00       254.14
  255.15        2976.50           1576          64.00       254.14
  255.18        2976.75           1579          61.00       241.07
  255.21        2977.00           1583          66.00       262.86
  255.24        2977.25           1586          66.00       262.86
  255.27        2977.50           1590          71.00       284.66
  255.30        2977.75           1593          67.00       267.22
  255.33        2978.00           1596          61.00       241.07
  255.36        2978.25           1600          60.00       236.71
  255.39        2978.50           1603          60.00       236.71
  255.42        2978.75           1606          64.00       254.14
  255.45        2979.00           1610          62.00       245.42
  255.48        2979.25           1613          80.00       323.89
  255.51        2979.50           1616          63.00       249.78
  255.54        2979.75           1620          67.00       267.22
  255.58        2980.00           1623          54.00       210.55
  255.61        2980.25           1626          70.00       280.30
  255.64        2980.50           1630          64.00       254.14
  255.67        2980.75           1633          62.00       245.42
  255.70        2981.00           1637          61.00       241.07
  255.73        2981.25           1640          64.00       254.14
  255.76        2981.50           1643          66.00       262.86
  255.79        2981.75           1647          59.00       232.35
  255.82        2982.00           1650          62.00       245.42
  255.85        2982.25           1653          70.00       280.30
  255.89        2982.50           1657          66.00       262.86
  255.92        2982.75           1660          68.00       271.58
  255.95        2983.00           1663          59.00       232.35
  255.98        2983.25           1667          53.00       206.19
  256.01        2983.50           1670          65.00       258.50
  256.04        2983.75           1673          67.00       267.22
  256.07        2984.00           1677          61.00       241.07
HS scan finished at 04:16:17
end
************************************************************
  HS Scan of (1) Internal mercury lamp
************************************************************
Integration time is 0.2294 seconds per sample
dh271017Manchester 53.47 2.23 2.804185pr1000
************************************************************
Dead Time -------------------------  3E-08 
Number of Cycles Used -------------  4 
Starting Wavelength (Angstroms) ---  2950 
Final Wavelength (Angstoms) -------  2984 
Wavelength Increment (Angstroms) --  .25 
Filter Wheel #1 Position ---------- (1) Ground quartz diffuser (ND=2.32)
Filter Wheel #2 Position ---------- (1) Neutral Density 0.494



************************************************************
HS scan start time = 17:42:01
Dark Count =  8.2 


Time (GMT)  Wavelength (Ang)  Step Number  Raw Counts  Counts/Second

 1062.39        2950.00           1222          62.00       234.53
 1062.46        2950.25           1226          63.00       238.89
 1062.49        2950.50           1229          73.00       282.48
 1062.52        2950.75           1232          62.00       234.53
 1062.55        2951.00           1236          76.00       295.56
 1062.58        2951.25           1239          74.00       286.84
 1062.61        2951.50           1242          66.00       251.96
 1062.64        2951.75           1246          75.00       291.20
 1062.67        2952.00           1249          70.00       269.40
 1062.70        2952.25           1252          73.00       282.48
 1062.73        2952.50           1256          69.00       265.04
 1062.76        2952.75           1259          67.00       256.32
 1062.79        2953.00           1262          68.00       260.68
 1062.82        2953.25           1266          59.00       221.45
 1062.86        2953.50           1269          62.00       234.53
 1062.89        2953.75           1272          69.00       265.04
 1062.92        2954.00           1276          71.00       273.76
 1062.95        2954.25           1279          65.00       247.60
 1062.98        2954.50           1282          71.00       273.76
 1063.01        2954.75           1286          63.00       238.89
 1063.04        2955.00           1289          68.00       260.68
 1063.07        2955.25           1292          66.00       251.96
 1063.10        2955.50           1296          69.00       265.04
 1063.13        2955.75           1299          70.00       269.40
 1063.16        2956.00           1302          65.00       247.60
 1063.20        2956.25           1306          68.00       260.68
 1063.23        2956.50           1309          76.00       295.56
 1063.26        2956.75           1312          73.00       282.48
 1063.29        2957.00           1316          69.00       265.04
 1063.32        2957.25           1319          71.00       273.76
 1063.35        2957.50           1322          59.00       221.45
 1063.38        2957.75           1326          54.00       199.65
 1063.41        2958.00           1329          71.00       273.76
 1063.44        2958.25           1332          64.00       243.25
 1063.47        2958.50           1336          68.00       260.68
 1063.50        2958.75           1339          66.00       251.96
 1063.53        2959.00           1342          67.00       256.32
 1063.56        2959.25           1346          63.00       238.89
 1063.59        2959.50           1349          69.00       265.04
 1063.63        2959.75           1352          82.00       321.71
 1063.66        2960.00           1356         104.00       417.62
 1063.69        2960.25           1359         135.00       552.76
 1063.72        2960.50           1362         174.00       722.77
 1063.75        2960.75           1366         233.00       979.98
 1063.78        2961.00           1369         280.00      1184.87
 1063.81        2961.25           1372         321.00      1363.61
 1063.84        2961.50           1376         370.00      1577.23
 1063.87        2961.75           1379         499.00      2139.63
 1063.90        2962.00           1382         908.00      3922.87
 1063.93        2962.25           1386        2485.00     10800.36
 1063.96        2962.50           1389        3905.00     16995.59
 1064.00        2962.75           1392        5431.00     23655.84
 1064.03        2963.00           1396        7348.00     32026.40
 1064.06        2963.25           1399        8830.00     38500.42
 1064.09        2963.50           1402       10491.00     45759.38
 1064.12        2963.75           1406       12486.00     54482.18
 1064.15        2964.00           1409       14040.00     61279.95
 1064.18        2964.25           1412       15627.00     68224.94
 1064.21        2964.50           1416       17757.00     77550.75
 1064.24        2964.75           1419       19166.00     83722.68
 1064.28        2965.00           1422       20617.00     90080.96
 1064.31        2965.25           1426       22662.00     99046.28
 1064.34        2965.50           1429       24214.00    105853.50
 1064.37        2965.75           1432       25670.00    112242.20
 1064.40        2966.00           1436       27780.00    121504.90
 1064.43        2966.25           1439       29475.00    128949.50
 1064.46        2966.50           1442       31042.00    135834.90
 1064.49        2966.75           1446       32590.00    142639.60
 1064.52        2967.00           1449       33175.00    145211.90
 1064.56        2967.25           1452       33302.00    145770.40
 1064.59        2967.50           1456       33204.00    145339.40
 1064.62        2967.75           1459       33151.00    145106.40
 1064.65        2968.00           1462       33309.00    145801.10
 1064.68        2968.25           1466       32601.00    142688.00
 1064.71        2968.50           1469       31523.00    137949.00
 1064.74        2968.75           1472       30141.00    131875.60
 1064.77        2969.00           1476       27801.00    121597.10
 1064.80        2969.25           1479       26396.00    115428.70
 1064.84        2969.50           1482       24708.00    108020.80
 1064.87        2969.75           1486       22766.00     99502.34
 1064.90        2970.00           1489       21252.00     92864.30
 1064.93        2970.25           1492       19879.00     86846.74
 1064.96        2970.50           1496       17759.00     77559.51
 1064.99        2970.75           1499       16316.00     71241.03
 1065.02        2971.00           1502       14818.00     64684.25
 1065.05        2971.25           1506       12751.00     55641.19
 1065.08        2971.50           1509       11418.00     49811.96
 1065.11        2971.75           1513        9214.00     40178.30
 1065.15        2972.00           1516        7740.00     33738.58
 1065.18        2972.25           1519        6134.00     26724.99
 1065.21        2972.50           1523        4155.00     18086.53
 1065.24        2972.75           1526        2707.00     11768.76
 1065.27        2973.00           1529        1347.00      5837.12
 1065.30        2973.25           1533         480.00      2056.80
 1065.33        2973.50           1536         353.00      1503.12
 1065.36        2973.75           1539         275.00      1163.07
 1065.39        2974.00           1543         232.00       975.62
 1065.42        2974.25           1546         168.00       696.61
 1065.45        2974.50           1549         131.00       535.32
 1065.48        2974.75           1553          96.00       382.74
 1065.51        2975.00           1556          85.00       334.79
 1065.54        2975.25           1559          66.00       251.96
 1065.57        2975.50           1563          67.00       256.32
 1065.61        2975.75           1566          59.00       221.45
 1065.64        2976.00           1569          67.00       256.32
 1065.67        2976.25           1573          58.00       217.09
 1065.70        2976.50           1576          58.00       217.09
 1065.73        2976.75           1579          69.00       265.04
 1065.76        2977.00           1583          55.00       204.01
 1065.79        2977.25           1586          65.00       247.60
 1065.82        2977.50           1590          65.00       247.60
 1065.85        2977.75           1593          60.00       225.81
 1065.88        2978.00           1596          61.00       230.17
 1065.91        2978.25           1600          62.00       234.53
 1065.94        2978.50           1603          69.00       265.04
 1065.97        2978.75           1606          66.00       251.96
 1066.00        2979.00           1610          78.00       304.27
 1066.04        2979.25           1613          67.00       256.32
 1066.07        2979.50           1616          60.00       225.81
 1066.10        2979.75           1620          62.00       234.53
 1066.13        2980.00           1623          63.00       238.89
 1066.16        2980.25           1626          58.00       217.09
 1066.19        2980.50           1630          66.00       251.96
 1066.22        2980.75           1633          62.00       234.53
 1066.25        2981.00           1637          61.00       230.17
 1066.28        2981.25           1640          61.00       230.17
 1066.31        2981.50           1643          63.00       238.89
 1066.34        2981.75           1647          65.00       247.60
 1066.38        2982.00           1650          58.00       217.09
 1066.41        2982.25           1653          67.00       256.32
 1066.44        2982.50           1657          52.00       190.93
 1066.47        2982.75           1660          59.00       221.45
 1066.50        2983.00           1663          66.00       251.96
 1066.53        2983.25           1667          63.00       238.89
 1066.56        2983.50           1670          60.00       225.81
 1066.59        2983.75           1673          61.00       230.17
 1066.62        2984.00           1677          56.00       208.37
HS scan finished at 17:46:50
end
