************************************************************
  HS Scan of (1) Internal mercury lamp
************************************************************
Integration time is 0.2294 seconds per sample
dh021118Manchester 53.47 2.23 2.804185pr1000
************************************************************
Dead Time -------------------------  3E-08 
Number of Cycles Used -------------  4 
Starting Wavelength (Angstroms) ---  2950 
Final Wavelength (Angstoms) -------  2984 
Wavelength Increment (Angstroms) --  .25 
Filter Wheel #1 Position ---------- (1) Ground quartz diffuser (ND=2.32)
Filter Wheel #2 Position ---------- (1) Neutral Density 0.494



************************************************************
HS scan start time = 04:22:00
Dark Count =  5.8 


Time (GMT)  Wavelength (Ang)  Step Number  Raw Counts  Counts/Second

  262.37        2950.00           1222          48.00       183.96
  262.44        2950.25           1226          46.00       175.24
  262.47        2950.50           1229          54.00       210.11
  262.50        2950.75           1232          58.00       227.55
  262.53        2951.00           1236          57.00       223.19
  262.56        2951.25           1239          50.00       192.68
  262.59        2951.50           1242          48.00       183.96
  262.62        2951.75           1246          54.00       210.11
  262.66        2952.00           1249          46.00       175.24
  262.69        2952.25           1252          55.00       214.47
  262.72        2952.50           1256          51.00       197.04
  262.75        2952.75           1259          47.00       179.60
  262.78        2953.00           1262          55.00       214.47
  262.81        2953.25           1266          62.00       244.99
  262.84        2953.50           1269          46.00       175.24
  262.87        2953.75           1272          52.00       201.40
  262.90        2954.00           1276          48.00       183.96
  262.93        2954.25           1279          53.00       205.76
  262.96        2954.50           1282          42.00       157.80
  262.99        2954.75           1286          53.00       205.76
  263.02        2955.00           1289          57.00       223.19
  263.05        2955.25           1292          46.00       175.24
  263.09        2955.50           1296          40.00       149.09
  263.12        2955.75           1299          49.00       188.32
  263.15        2956.00           1302          48.00       183.96
  263.18        2956.25           1306          51.00       197.04
  263.21        2956.50           1309          46.00       175.24
  263.24        2956.75           1312          51.00       197.04
  263.27        2957.00           1316          49.00       188.32
  263.30        2957.25           1319          49.00       188.32
  263.33        2957.50           1322          50.00       192.68
  263.36        2957.75           1326          46.00       175.24
  263.39        2958.00           1329          42.00       157.80
  263.42        2958.25           1332          50.00       192.68
  263.46        2958.50           1336          47.00       179.60
  263.49        2958.75           1339          50.00       192.68
  263.52        2959.00           1342          47.00       179.60
  263.55        2959.25           1346          44.00       166.52
  263.58        2959.50           1349          51.00       197.04
  263.61        2959.75           1352          73.00       292.94
  263.64        2960.00           1356          91.00       371.41
  263.67        2960.25           1359         108.00       445.52
  263.70        2960.50           1362         138.00       576.30
  263.73        2960.75           1366         180.00       759.39
  263.76        2961.00           1369         200.00       846.58
  263.80        2961.25           1372         243.00      1034.03
  263.83        2961.50           1376         305.00      1304.32
  263.86        2961.75           1379         376.00      1613.85
  263.89        2962.00           1382         708.00      3061.31
  263.92        2962.25           1386        1774.00      7709.72
  263.95        2962.50           1389        2949.00     12834.93
  263.98        2962.75           1392        4147.00     18062.10
  264.01        2963.00           1396        5616.00     24473.93
  264.04        2963.25           1399        6694.00     29180.73
  264.07        2963.50           1402        7754.00     33810.22
  264.11        2963.75           1406        9317.00     40638.88
  264.14        2964.00           1409       10571.00     46119.57
  264.17        2964.25           1412       11652.00     50845.59
  264.20        2964.50           1416       13198.00     57606.89
  264.23        2964.75           1419       14222.00     62086.77
  264.26        2965.00           1422       15416.00     67311.91
  264.29        2965.25           1426       17093.00     74653.50
  264.32        2965.50           1429       18288.00     79886.96
  264.35        2965.75           1432       19391.00     84718.96
  264.39        2966.00           1436       20940.00     91507.18
  264.42        2966.25           1439       22018.00     96232.96
  264.45        2966.50           1442       22997.00    100525.90
  264.48        2966.75           1446       24280.00    106153.60
  264.51        2967.00           1449       24637.00    107719.80
  264.54        2967.25           1452       24739.00    108167.40
  264.57        2967.50           1456       24812.00    108487.60
  264.60        2967.75           1459       24738.00    108163.00
  264.63        2968.00           1462       24648.00    107768.10
  264.67        2968.25           1466       24272.00    106118.50
  264.70        2968.50           1469       23154.00    101214.40
  264.73        2968.75           1472       22284.00     97399.26
  264.76        2969.00           1476       20720.00     90542.91
  264.79        2969.25           1479       19641.00     85814.36
  264.82        2969.50           1482       18310.00     79983.33
  264.85        2969.75           1486       16963.00     74084.27
  264.88        2970.00           1489       15773.00     68874.52
  264.91        2970.25           1492       14779.00     64524.09
  264.94        2970.50           1496       13254.00     57851.85
  264.98        2970.75           1499       12247.00     53447.45
  265.01        2971.00           1502       11141.00     48611.39
  265.04        2971.25           1506        9505.00     41460.43
  265.07        2971.50           1509        8405.00     36654.06
  265.10        2971.75           1513        6753.00     29438.37
  265.13        2972.00           1516        5695.00     24818.82
  265.16        2972.25           1519        4555.00     19842.67
  265.19        2972.50           1523        3105.00     13515.51
  265.22        2972.75           1526        2030.00      8826.22
  265.26        2973.00           1529        1004.00      4351.92
  265.29        2973.25           1533         374.00      1605.13
  265.32        2973.50           1536         245.00      1042.75
  265.35        2973.75           1539         199.00       842.22
  265.38        2974.00           1543         174.00       733.23
  265.41        2974.25           1546         118.00       489.11
  265.44        2974.50           1549         100.00       410.64
  265.47        2974.75           1553          68.00       271.14
  265.50        2975.00           1556          51.00       197.04
  265.53        2975.25           1559          49.00       188.32
  265.57        2975.50           1563          50.00       192.68
  265.60        2975.75           1566          49.00       188.32
  265.63        2976.00           1569          52.00       201.40
  265.66        2976.25           1573          48.00       183.96
  265.69        2976.50           1576          51.00       197.04
  265.72        2976.75           1579          47.00       179.60
  265.75        2977.00           1583          44.00       166.52
  265.78        2977.25           1586          47.00       179.60
  265.81        2977.50           1590          50.00       192.68
  265.84        2977.75           1593          47.00       179.60
  265.87        2978.00           1596          42.00       157.80
  265.90        2978.25           1600          44.00       166.52
  265.94        2978.50           1603          54.00       210.11
  265.97        2978.75           1606          36.00       131.65
  266.00        2979.00           1610          46.00       175.24
  266.03        2979.25           1613          43.00       162.16
  266.06        2979.50           1616          43.00       162.16
  266.09        2979.75           1620          44.00       166.52
  266.12        2980.00           1623          48.00       183.96
  266.15        2980.25           1626          50.00       192.68
  266.18        2980.50           1630          46.00       175.24
  266.21        2980.75           1633          41.00       153.44
  266.25        2981.00           1637          40.00       149.09
  266.28        2981.25           1640          41.00       153.44
  266.31        2981.50           1643          48.00       183.96
  266.34        2981.75           1647          44.00       166.52
  266.37        2982.00           1650          47.00       179.60
  266.40        2982.25           1653          49.00       188.32
  266.43        2982.50           1657          42.00       157.80
  266.46        2982.75           1660          42.00       157.80
  266.49        2983.00           1663          41.00       153.44
  266.52        2983.25           1667          39.00       144.73
  266.55        2983.50           1670          51.00       197.04
  266.58        2983.75           1673          50.00       192.68
  266.61        2984.00           1677          39.00       144.73
HS scan finished at 04:26:50
end
************************************************************
  HS Scan of (1) Internal mercury lamp
************************************************************
Integration time is 0.2294 seconds per sample
dh021118Manchester 53.47 2.23 2.804185pr1000
************************************************************
Dead Time -------------------------  3E-08 
Number of Cycles Used -------------  4 
Starting Wavelength (Angstroms) ---  2950 
Final Wavelength (Angstoms) -------  2984 
Wavelength Increment (Angstroms) --  .25 
Filter Wheel #1 Position ---------- (1) Ground quartz diffuser (ND=2.32)
Filter Wheel #2 Position ---------- (1) Neutral Density 0.494



************************************************************
HS scan start time = 17:42:04
Dark Count =  6.4 


Time (GMT)  Wavelength (Ang)  Step Number  Raw Counts  Counts/Second

 1062.43        2950.00           1222          52.00       198.78
 1062.50        2950.25           1226          49.00       185.70
 1062.53        2950.50           1229          52.00       198.78
 1062.56        2950.75           1232          57.00       220.58
 1062.59        2951.00           1236          56.00       216.22
 1062.62        2951.25           1239          48.00       181.34
 1062.66        2951.50           1242          52.00       198.78
 1062.69        2951.75           1246          54.00       207.50
 1062.72        2952.00           1249          47.00       176.98
 1062.75        2952.25           1252          47.00       176.98
 1062.78        2952.50           1256          53.00       203.14
 1062.81        2952.75           1259          53.00       203.14
 1062.84        2953.00           1262          49.00       185.70
 1062.87        2953.25           1266          56.00       216.22
 1062.90        2953.50           1269          46.00       172.63
 1062.93        2953.75           1272          58.00       224.94
 1062.96        2954.00           1276          50.00       190.06
 1062.99        2954.25           1279          59.00       229.30
 1063.02        2954.50           1282          42.00       155.19
 1063.05        2954.75           1286          50.00       190.06
 1063.09        2955.00           1289          48.00       181.34
 1063.12        2955.25           1292          50.00       190.06
 1063.15        2955.50           1296          51.00       194.42
 1063.18        2955.75           1299          48.00       181.34
 1063.21        2956.00           1302          58.00       224.94
 1063.24        2956.25           1306          46.00       172.63
 1063.27        2956.50           1309          47.00       176.98
 1063.30        2956.75           1312          54.00       207.50
 1063.33        2957.00           1316          46.00       172.63
 1063.36        2957.25           1319          54.00       207.50
 1063.39        2957.50           1322          47.00       176.98
 1063.42        2957.75           1326          52.00       198.78
 1063.45        2958.00           1329          47.00       176.98
 1063.48        2958.25           1332          52.00       198.78
 1063.51        2958.50           1336          53.00       203.14
 1063.55        2958.75           1339          47.00       176.98
 1063.58        2959.00           1342          57.00       220.58
 1063.61        2959.25           1346          49.00       185.70
 1063.64        2959.50           1349          48.00       181.34
 1063.67        2959.75           1352          59.00       229.30
 1063.70        2960.00           1356          74.00       294.68
 1063.73        2960.25           1359          94.00       381.87
 1063.76        2960.50           1362         126.00       521.37
 1063.79        2960.75           1366         156.00       652.15
 1063.82        2961.00           1369         193.00       813.45
 1063.85        2961.25           1372         233.00       987.82
 1063.88        2961.50           1376         276.00      1175.28
 1063.92        2961.75           1379         334.00      1428.13
 1063.95        2962.00           1382         753.00      3254.90
 1063.98        2962.25           1386        1895.00      8234.82
 1064.01        2962.50           1389        2993.00     13024.27
 1064.04        2962.75           1392        4168.00     18151.12
 1064.07        2963.00           1396        5570.00     24270.50
 1064.10        2963.25           1399        6701.00     29208.67
 1064.13        2963.50           1402        7808.00     34043.47
 1064.16        2963.75           1406        9330.00     40693.07
 1064.19        2964.00           1409       10554.00     46042.63
 1064.23        2964.25           1412       11532.00     50318.28
 1064.26        2964.50           1416       13098.00     57166.83
 1064.29        2964.75           1419       14163.00     61825.99
 1064.32        2965.00           1422       15412.00     67291.78
 1064.35        2965.25           1426       16889.00     73757.62
 1064.38        2965.50           1429       17838.00     77913.38
 1064.41        2965.75           1432       19146.00     83642.93
 1064.44        2966.00           1436       20712.00     90505.21
 1064.47        2966.25           1439       21798.00     95265.78
 1064.50        2966.50           1442       22573.00     98663.88
 1064.54        2966.75           1446       23933.00    104628.70
 1064.57        2967.00           1449       24461.00    106945.00
 1064.60        2967.25           1452       24557.00    107366.20
 1064.63        2967.50           1456       24600.00    107554.90
 1064.66        2967.75           1459       24417.00    106752.00
 1064.69        2968.00           1462       24608.00    107590.00
 1064.72        2968.25           1466       24065.00    105207.70
 1064.75        2968.50           1469       23120.00    101062.70
 1064.78        2968.75           1472       22319.00     97550.10
 1064.81        2969.00           1476       20652.00     90242.24
 1064.84        2969.25           1479       19497.00     85180.78
 1064.88        2969.50           1482       18274.00     79823.01
 1064.91        2969.75           1486       16848.00     73578.10
 1064.94        2970.00           1489       15745.00     68749.32
 1064.97        2970.25           1492       14780.00     64525.83
 1065.00        2970.50           1496       13330.00     58181.68
 1065.03        2970.75           1499       12210.00     53283.01
 1065.06        2971.00           1502       11024.00     48097.25
 1065.09        2971.25           1506        9512.00     41488.40
 1065.12        2971.50           1509        8225.00     35865.08
 1065.15        2971.75           1513        6739.00     29374.61
 1065.19        2972.00           1516        5659.00     24659.04
 1065.22        2972.25           1519        4496.00     19582.56
 1065.25        2972.50           1523        3069.00     13355.83
 1065.28        2972.75           1526        1891.00      8217.37
 1065.31        2973.00           1529         884.00      3826.07
 1065.34        2973.25           1533         363.00      1554.56
 1065.37        2973.50           1536         258.00      1096.81
 1065.40        2973.75           1539         228.00       966.03
 1065.43        2974.00           1543         173.00       726.26
 1065.46        2974.25           1546         152.00       634.71
 1065.50        2974.50           1549         118.00       486.49
 1065.53        2974.75           1553          96.00       390.59
 1065.56        2975.00           1556          73.00       290.33
 1065.59        2975.25           1559          54.00       207.50
 1065.62        2975.50           1563          55.00       211.86
 1065.65        2975.75           1566          42.00       155.19
 1065.68        2976.00           1569          44.00       163.91
 1065.71        2976.25           1573          47.00       176.98
 1065.74        2976.50           1576          43.00       159.55
 1065.78        2976.75           1579          42.00       155.19
 1065.81        2977.00           1583          50.00       190.06
 1065.84        2977.25           1586          47.00       176.98
 1065.87        2977.50           1590          48.00       181.34
 1065.90        2977.75           1593          50.00       190.06
 1065.93        2978.00           1596          46.00       172.63
 1065.96        2978.25           1600          52.00       198.78
 1065.99        2978.50           1603          40.00       146.47
 1066.02        2978.75           1606          48.00       181.34
 1066.05        2979.00           1610          56.00       216.22
 1066.08        2979.25           1613          40.00       146.47
 1066.11        2979.50           1616          42.00       155.19
 1066.15        2979.75           1620          46.00       172.63
 1066.18        2980.00           1623          45.00       168.27
 1066.21        2980.25           1626          60.00       233.65
 1066.24        2980.50           1630          47.00       176.98
 1066.27        2980.75           1633          44.00       163.91
 1066.30        2981.00           1637          44.00       163.91
 1066.33        2981.25           1640          38.00       137.75
 1066.36        2981.50           1643          60.00       233.65
 1066.39        2981.75           1647          44.00       163.91
 1066.42        2982.00           1650          44.00       163.91
 1066.45        2982.25           1653          46.00       172.63
 1066.49        2982.50           1657          47.00       176.98
 1066.52        2982.75           1660          48.00       181.34
 1066.55        2983.00           1663          52.00       198.78
 1066.58        2983.25           1667          43.00       159.55
 1066.61        2983.50           1670          38.00       137.75
 1066.64        2983.75           1673          42.00       155.19
 1066.67        2984.00           1677          45.00       168.27
HS scan finished at 17:46:53
end
