************************************************************
  HS Scan of (1) Internal mercury lamp
************************************************************
Integration time is 0.2294 seconds per sample
dh051118Manchester 53.47 2.23 2.804185pr1000
************************************************************
Dead Time -------------------------  3E-08 
Number of Cycles Used -------------  4 
Starting Wavelength (Angstroms) ---  2950 
Final Wavelength (Angstoms) -------  2984 
Wavelength Increment (Angstroms) --  .25 
Filter Wheel #1 Position ---------- (1) Ground quartz diffuser (ND=2.32)
Filter Wheel #2 Position ---------- (1) Neutral Density 0.494



************************************************************
HS scan start time = 04:27:19
Dark Count =  5.8 


Time (GMT)  Wavelength (Ang)  Step Number  Raw Counts  Counts/Second

  267.69        2950.00           1222          50.00       192.68
  267.76        2950.25           1226          38.00       140.37
  267.79        2950.50           1229          49.00       188.32
  267.82        2950.75           1232          51.00       197.04
  267.85        2951.00           1236          57.00       223.19
  267.88        2951.25           1239          48.00       183.96
  267.91        2951.50           1242          51.00       197.04
  267.94        2951.75           1246          45.00       170.88
  267.97        2952.00           1249          48.00       183.96
  268.00        2952.25           1252          47.00       179.60
  268.04        2952.50           1256          44.00       166.52
  268.07        2952.75           1259          49.00       188.32
  268.10        2953.00           1262          47.00       179.60
  268.13        2953.25           1266          50.00       192.68
  268.16        2953.50           1269          49.00       188.32
  268.19        2953.75           1272          47.00       179.60
  268.22        2954.00           1276          46.00       175.24
  268.25        2954.25           1279          55.00       214.47
  268.28        2954.50           1282          45.00       170.88
  268.31        2954.75           1286          55.00       214.47
  268.34        2955.00           1289          54.00       210.11
  268.38        2955.25           1292          50.00       192.68
  268.41        2955.50           1296          45.00       170.88
  268.44        2955.75           1299          50.00       192.68
  268.47        2956.00           1302          46.00       175.24
  268.50        2956.25           1306          49.00       188.32
  268.53        2956.50           1309          47.00       179.60
  268.56        2956.75           1312          44.00       166.52
  268.59        2957.00           1316          54.00       210.11
  268.62        2957.25           1319          50.00       192.68
  268.65        2957.50           1322          55.00       214.47
  268.68        2957.75           1326          50.00       192.68
  268.71        2958.00           1329          50.00       192.68
  268.74        2958.25           1332          54.00       210.11
  268.77        2958.50           1336          59.00       231.91
  268.80        2958.75           1339          52.00       201.40
  268.84        2959.00           1342          48.00       183.96
  268.87        2959.25           1346          51.00       197.04
  268.90        2959.50           1349          53.00       205.76
  268.93        2959.75           1352          61.00       240.63
  268.96        2960.00           1356          79.00       319.10
  268.99        2960.25           1359          95.00       388.85
  269.02        2960.50           1362         126.00       523.98
  269.05        2960.75           1366         160.00       672.20
  269.08        2961.00           1369         199.00       842.22
  269.11        2961.25           1372         216.00       916.33
  269.14        2961.50           1376         275.00      1173.54
  269.17        2961.75           1379         375.00      1609.49
  269.21        2962.00           1382         805.00      3484.24
  269.24        2962.25           1386        2014.00      8756.44
  269.27        2962.50           1389        3180.00     13842.71
  269.30        2962.75           1392        4188.00     18241.02
  269.33        2963.00           1396        5792.00     25242.30
  269.36        2963.25           1399        6842.00     29827.03
  269.39        2963.50           1402        7929.00     34574.64
  269.42        2963.75           1406        9499.00     41434.21
  269.45        2964.00           1409       10625.00     46355.62
  269.49        2964.25           1412       11884.00     51860.05
  269.52        2964.50           1416       13447.00     58696.12
  269.55        2964.75           1419       14718.00     64257.14
  269.58        2965.00           1422       15820.00     69080.25
  269.61        2965.25           1426       17355.00     75800.78
  269.64        2965.50           1429       18369.00     80241.75
  269.67        2965.75           1432       19567.00     85490.12
  269.70        2966.00           1436       20867.00     91187.21
  269.73        2966.25           1439       22069.00     96456.56
  269.76        2966.50           1442       23038.00    100705.70
  269.80        2966.75           1446       24270.00    106109.70
  269.83        2967.00           1449       24428.00    106802.90
  269.86        2967.25           1452       24495.00    107096.80
  269.89        2967.50           1456       24553.00    107351.30
  269.92        2967.75           1459       24685.00    107930.40
  269.95        2968.00           1462       24469.00    106982.70
  269.98        2968.25           1466       23876.00    104381.30
  270.01        2968.50           1469       22725.00     99333.06
  270.04        2968.75           1472       21765.00     95123.72
  270.08        2969.00           1476       20277.00     88601.37
  270.11        2969.25           1479       19175.00     83772.61
  270.14        2969.50           1482       18004.00     78643.04
  270.17        2969.75           1486       16616.00     72564.95
  270.20        2970.00           1489       15439.00     67412.57
  270.23        2970.25           1492       14328.00     62550.58
  270.26        2970.50           1496       12865.00     56150.31
  270.29        2970.75           1499       11662.00     50889.32
  270.32        2971.00           1502       10394.00     45345.87
  270.36        2971.25           1506        8909.00     38856.08
  270.39        2971.50           1509        7811.00     34059.20
  270.42        2971.75           1513        6342.00     27643.67
  270.45        2972.00           1516        5240.00     22832.55
  270.48        2972.25           1519        4245.00     18489.77
  270.51        2972.50           1523        2739.00     11918.82
  270.54        2972.75           1526        1662.00      7221.27
  270.57        2973.00           1529         730.00      3157.23
  270.60        2973.25           1533         324.00      1387.15
  270.63        2973.50           1536         252.00      1073.27
  270.67        2973.75           1539         219.00       929.41
  270.70        2974.00           1543         183.00       772.47
  270.73        2974.25           1546         132.00       550.14
  270.76        2974.50           1549         105.00       432.44
  270.79        2974.75           1553          81.00       327.81
  270.82        2975.00           1556          67.00       266.79
  270.85        2975.25           1559          52.00       201.40
  270.88        2975.50           1563          55.00       214.47
  270.91        2975.75           1566          50.00       192.68
  270.94        2976.00           1569          48.00       183.96
  270.97        2976.25           1573          47.00       179.60
  271.00        2976.50           1576          51.00       197.04
  271.03        2976.75           1579          47.00       179.60
  271.07        2977.00           1583          45.00       170.88
  271.10        2977.25           1586          51.00       197.04
  271.13        2977.50           1590          55.00       214.47
  271.16        2977.75           1593          55.00       214.47
  271.19        2978.00           1596          43.00       162.16
  271.22        2978.25           1600          49.00       188.32
  271.25        2978.50           1603          44.00       166.52
  271.28        2978.75           1606          42.00       157.80
  271.31        2979.00           1610          41.00       153.44
  271.35        2979.25           1613          44.00       166.52
  271.38        2979.50           1616          42.00       157.80
  271.41        2979.75           1620          48.00       183.96
  271.44        2980.00           1623          47.00       179.60
  271.47        2980.25           1626          47.00       179.60
  271.50        2980.50           1630          40.00       149.09
  271.53        2980.75           1633          38.00       140.37
  271.56        2981.00           1637          46.00       175.24
  271.59        2981.25           1640          43.00       162.16
  271.62        2981.50           1643          40.00       149.09
  271.65        2981.75           1647          49.00       188.32
  271.68        2982.00           1650          50.00       192.68
  271.72        2982.25           1653          42.00       157.80
  271.75        2982.50           1657          51.00       197.04
  271.78        2982.75           1660          42.00       157.80
  271.81        2983.00           1663          42.00       157.80
  271.84        2983.25           1667          42.00       157.80
  271.87        2983.50           1670          47.00       179.60
  271.90        2983.75           1673          39.00       144.73
  271.93        2984.00           1677          39.00       144.73
HS scan finished at 04:32:09
end
************************************************************
  HS Scan of (1) Internal mercury lamp
************************************************************
Integration time is 0.2294 seconds per sample
dh051118Manchester 53.47 2.23 2.804185pr1000
************************************************************
Dead Time -------------------------  3E-08 
Number of Cycles Used -------------  4 
Starting Wavelength (Angstroms) ---  2950 
Final Wavelength (Angstoms) -------  2984 
Wavelength Increment (Angstroms) --  .25 
Filter Wheel #1 Position ---------- (1) Ground quartz diffuser (ND=2.32)
Filter Wheel #2 Position ---------- (1) Neutral Density 0.494



************************************************************
HS scan start time = 17:42:01
Dark Count =  5.5 


Time (GMT)  Wavelength (Ang)  Step Number  Raw Counts  Counts/Second

 1062.38        2950.00           1222          50.00       193.99
 1062.45        2950.25           1226          55.00       215.78
 1062.48        2950.50           1229          49.00       189.63
 1062.51        2950.75           1232          42.00       159.11
 1062.54        2951.00           1236          46.00       176.55
 1062.57        2951.25           1239          46.00       176.55
 1062.61        2951.50           1242          46.00       176.55
 1062.64        2951.75           1246          43.00       163.47
 1062.67        2952.00           1249          51.00       198.34
 1062.70        2952.25           1252          55.00       215.78
 1062.73        2952.50           1256          44.00       167.83
 1062.76        2952.75           1259          49.00       189.63
 1062.79        2953.00           1262          46.00       176.55
 1062.82        2953.25           1266          55.00       215.78
 1062.85        2953.50           1269          50.00       193.99
 1062.88        2953.75           1272          45.00       172.19
 1062.91        2954.00           1276          50.00       193.99
 1062.94        2954.25           1279          54.00       211.42
 1062.97        2954.50           1282          52.00       202.70
 1063.01        2954.75           1286          54.00       211.42
 1063.04        2955.00           1289          50.00       193.99
 1063.07        2955.25           1292          50.00       193.99
 1063.10        2955.50           1296          50.00       193.99
 1063.13        2955.75           1299          51.00       198.34
 1063.16        2956.00           1302          43.00       163.47
 1063.19        2956.25           1306          50.00       193.99
 1063.22        2956.50           1309          48.00       185.27
 1063.25        2956.75           1312          63.00       250.66
 1063.28        2957.00           1316          44.00       167.83
 1063.31        2957.25           1319          47.00       180.91
 1063.34        2957.50           1322          57.00       224.50
 1063.38        2957.75           1326          55.00       215.78
 1063.41        2958.00           1329          42.00       159.11
 1063.44        2958.25           1332          44.00       167.83
 1063.47        2958.50           1336          46.00       176.55
 1063.50        2958.75           1339          47.00       180.91
 1063.53        2959.00           1342          58.00       228.86
 1063.56        2959.25           1346          47.00       180.91
 1063.59        2959.50           1349          50.00       193.99
 1063.62        2959.75           1352          70.00       281.17
 1063.65        2960.00           1356          84.00       342.20
 1063.68        2960.25           1359         115.00       477.34
 1063.71        2960.50           1362         133.00       555.81
 1063.74        2960.75           1366         182.00       769.42
 1063.78        2961.00           1369         197.00       834.81
 1063.81        2961.25           1372         232.00       987.39
 1063.84        2961.50           1376         295.00      1262.04
 1063.87        2961.75           1379         444.00      1911.62
 1063.90        2962.00           1382        1060.00      4597.41
 1063.93        2962.25           1386        2362.00     10275.62
 1063.96        2962.50           1389        3512.00     15292.54
 1063.99        2962.75           1392        4607.00     20070.93
 1064.02        2963.00           1396        5998.00     26142.99
 1064.05        2963.25           1399        7100.00     30955.07
 1064.08        2963.50           1402        8268.00     36056.86
 1064.11        2963.75           1406        9934.00     43336.60
 1064.15        2964.00           1409       10983.00     47921.95
 1064.18        2964.25           1412       12229.00     53370.04
 1064.21        2964.50           1416       13670.00     59672.99
 1064.24        2964.75           1419       14724.00     64284.71
 1064.27        2965.00           1422       16012.00     69922.02
 1064.30        2965.25           1426       17447.00     76204.98
 1064.33        2965.50           1429       18425.00     80488.37
 1064.36        2965.75           1432       19606.00     85662.31
 1064.39        2966.00           1436       21082.00     92130.94
 1064.43        2966.25           1439       22290.00     97426.89
 1064.46        2966.50           1442       23314.00    101917.50
 1064.49        2966.75           1446       24297.00    106229.50
 1064.52        2967.00           1449       24533.00    107264.90
 1064.55        2967.25           1452       24677.00    107896.60
 1064.58        2967.50           1456       24535.00    107273.60
 1064.61        2967.75           1459       24493.00    107089.40
 1064.64        2968.00           1462       24338.00    106409.30
 1064.67        2968.25           1466       23522.00    102829.80
 1064.70        2968.50           1469       22503.00     98360.88
 1064.74        2968.75           1472       21604.00     94419.21
 1064.77        2969.00           1476       19974.00     87274.85
 1064.80        2969.25           1479       18873.00     82450.86
 1064.83        2969.50           1482       17602.00     76883.76
 1064.86        2969.75           1486       16207.00     70775.66
 1064.89        2970.00           1489       15158.00     66184.03
 1064.92        2970.25           1492       13983.00     61042.38
 1064.95        2970.50           1496       12515.00     54620.82
 1064.98        2970.75           1499       11383.00     49670.74
 1065.01        2971.00           1502       10195.00     44477.36
 1065.05        2971.25           1506        8772.00     38258.80
 1065.08        2971.50           1509        7683.00     33501.40
 1065.11        2971.75           1513        6056.00     26396.22
 1065.14        2972.00           1516        4908.00     21384.68
 1065.17        2972.25           1519        3838.00     16715.01
 1065.20        2972.50           1523        2415.00     10506.80
 1065.23        2972.75           1526        1314.00      5704.99
 1065.26        2973.00           1529         562.00      2426.07
 1065.29        2973.25           1533         289.00      1235.88
 1065.32        2973.50           1536         246.00      1048.42
 1065.35        2973.75           1539         211.00       895.84
 1065.39        2974.00           1543         185.00       782.49
 1065.42        2974.25           1546         124.00       516.57
 1065.45        2974.50           1549         107.00       442.46
 1065.48        2974.75           1553          65.00       259.37
 1065.51        2975.00           1556          64.00       255.02
 1065.54        2975.25           1559          50.00       193.99
 1065.57        2975.50           1563          40.00       150.39
 1065.60        2975.75           1566          51.00       198.34
 1065.63        2976.00           1569          49.00       189.63
 1065.66        2976.25           1573          51.00       198.34
 1065.69        2976.50           1576          45.00       172.19
 1065.72        2976.75           1579          47.00       180.91
 1065.75        2977.00           1583          40.00       150.39
 1065.78        2977.25           1586          49.00       189.63
 1065.81        2977.50           1590          62.00       246.30
 1065.84        2977.75           1593          46.00       176.55
 1065.87        2978.00           1596          49.00       189.63
 1065.90        2978.25           1600          44.00       167.83
 1065.94        2978.50           1603          48.00       185.27
 1065.97        2978.75           1606          47.00       180.91
 1066.00        2979.00           1610          42.00       159.11
 1066.03        2979.25           1613          44.00       167.83
 1066.06        2979.50           1616          46.00       176.55
 1066.09        2979.75           1620          46.00       176.55
 1066.12        2980.00           1623          44.00       167.83
 1066.15        2980.25           1626          48.00       185.27
 1066.18        2980.50           1630          44.00       167.83
 1066.21        2980.75           1633          39.00       146.03
 1066.24        2981.00           1637          45.00       172.19
 1066.28        2981.25           1640          47.00       180.91
 1066.31        2981.50           1643          52.00       202.70
 1066.34        2981.75           1647          48.00       185.27
 1066.37        2982.00           1650          46.00       176.55
 1066.40        2982.25           1653          43.00       163.47
 1066.43        2982.50           1657          42.00       159.11
 1066.46        2982.75           1660          40.00       150.39
 1066.49        2983.00           1663          39.00       146.03
 1066.52        2983.25           1667          54.00       211.42
 1066.55        2983.50           1670          40.00       150.39
 1066.58        2983.75           1673          41.00       154.75
 1066.61        2984.00           1677          43.00       163.47
HS scan finished at 17:46:50
end
