************************************************************
  HS Scan of (1) Internal mercury lamp
************************************************************
Integration time is 0.2294 seconds per sample
dh011118Manchester 53.47 2.23 2.804185pr1000
************************************************************
Dead Time -------------------------  3E-08 
Number of Cycles Used -------------  4 
Starting Wavelength (Angstroms) ---  2950 
Final Wavelength (Angstoms) -------  2984 
Wavelength Increment (Angstroms) --  .25 
Filter Wheel #1 Position ---------- (1) Ground quartz diffuser (ND=2.32)
Filter Wheel #2 Position ---------- (1) Neutral Density 0.494



************************************************************
HS scan start time = 04:20:11
Dark Count =  6.3 


Time (GMT)  Wavelength (Ang)  Step Number  Raw Counts  Counts/Second

  260.55        2950.00           1222          53.00       203.58
  260.62        2950.25           1226          47.00       177.42
  260.65        2950.50           1229          48.00       181.78
  260.68        2950.75           1232          51.00       194.86
  260.71        2951.00           1236          52.00       199.22
  260.74        2951.25           1239          52.00       199.22
  260.77        2951.50           1242          49.00       186.14
  260.80        2951.75           1246          44.00       164.34
  260.83        2952.00           1249          47.00       177.42
  260.86        2952.25           1252          49.00       186.14
  260.89        2952.50           1256          42.00       155.62
  260.92        2952.75           1259          42.00       155.62
  260.95        2953.00           1262          49.00       186.14
  260.98        2953.25           1266          48.00       181.78
  261.02        2953.50           1269          53.00       203.58
  261.05        2953.75           1272          42.00       155.62
  261.08        2954.00           1276          56.00       216.65
  261.11        2954.25           1279          48.00       181.78
  261.14        2954.50           1282          52.00       199.22
  261.17        2954.75           1286          45.00       168.70
  261.20        2955.00           1289          52.00       199.22
  261.23        2955.25           1292          52.00       199.22
  261.26        2955.50           1296          49.00       186.14
  261.29        2955.75           1299          50.00       190.50
  261.32        2956.00           1302          47.00       177.42
  261.35        2956.25           1306          46.00       173.06
  261.39        2956.50           1309          48.00       181.78
  261.42        2956.75           1312          47.00       177.42
  261.45        2957.00           1316          48.00       181.78
  261.48        2957.25           1319          55.00       212.29
  261.51        2957.50           1322          49.00       186.14
  261.54        2957.75           1326          49.00       186.14
  261.57        2958.00           1329          41.00       151.26
  261.60        2958.25           1332          45.00       168.70
  261.63        2958.50           1336          52.00       199.22
  261.66        2958.75           1339          58.00       225.37
  261.69        2959.00           1342          57.00       221.01
  261.72        2959.25           1346          55.00       212.29
  261.75        2959.50           1349          49.00       186.14
  261.79        2959.75           1352          66.00       260.25
  261.82        2960.00           1356          78.00       312.56
  261.85        2960.25           1359          99.00       404.10
  261.88        2960.50           1362         119.00       491.29
  261.91        2960.75           1366         167.00       700.54
  261.94        2961.00           1369         191.00       805.16
  261.97        2961.25           1372         216.00       914.15
  262.00        2961.50           1376         265.00      1127.76
  262.03        2961.75           1379         335.00      1432.93
  262.07        2962.00           1382         634.00      2736.49
  262.10        2962.25           1386        1676.00      7280.14
  262.13        2962.50           1389        2848.00     12392.14
  262.16        2962.75           1392        4018.00     17496.98
  262.19        2963.00           1396        5530.00     24096.32
  262.22        2963.25           1399        6605.00     28789.90
  262.25        2963.50           1402        7649.00     33349.39
  262.28        2963.75           1406        9383.00     40925.11
  262.31        2964.00           1409       10399.00     45365.54
  262.34        2964.25           1412       11703.00     51066.40
  262.38        2964.50           1416       13277.00     57950.27
  262.41        2964.75           1419       14280.00     62338.37
  262.44        2965.00           1422       15494.00     67651.11
  262.47        2965.25           1426       17158.00     74935.93
  262.50        2965.50           1429       18249.00     79713.95
  262.53        2965.75           1432       19499.00     85189.98
  262.56        2966.00           1436       21054.00     92004.69
  262.59        2966.25           1439       22194.00     97002.46
  262.62        2966.50           1442       23358.00    102107.00
  262.66        2966.75           1446       24503.00    107129.70
  262.69        2967.00           1449       24962.00    109143.60
  262.72        2967.25           1452       24908.00    108906.70
  262.75        2967.50           1456       24809.00    108472.30
  262.78        2967.75           1459       24938.00    109038.30
  262.81        2968.00           1462       24957.00    109121.70
  262.84        2968.25           1466       24255.00    106041.70
  262.87        2968.50           1469       23251.00    101637.70
  262.90        2968.75           1472       22284.00     97397.08
  262.93        2969.00           1476       20763.00     90729.18
  262.96        2969.25           1479       19578.00     85536.13
  263.00        2969.50           1482       18325.00     80046.84
  263.03        2969.75           1486       16910.00     73850.01
  263.06        2970.00           1489       15832.00     69130.58
  263.09        2970.25           1492       14540.00     63476.04
  263.12        2970.50           1496       13112.00     57228.51
  263.15        2970.75           1499       11937.00     52089.62
  263.18        2971.00           1502       10932.00     47695.49
  263.21        2971.25           1506        9479.00     41344.63
  263.24        2971.50           1509        8262.00     36027.15
  263.27        2971.75           1513        6737.00     29366.32
  263.31        2972.00           1516        5642.00     24585.26
  263.34        2972.25           1519        4515.00     19665.92
  263.37        2972.50           1523        2978.00     12959.27
  263.40        2972.75           1526        1908.00      8291.95
  263.43        2973.00           1529         997.00      4319.22
  263.46        2973.25           1533         393.00      1685.79
  263.49        2973.50           1536         270.00      1149.56
  263.52        2973.75           1539         236.00      1001.34
  263.55        2974.00           1543         180.00       757.21
  263.58        2974.25           1546         141.00       587.19
  263.62        2974.50           1549         117.00       482.57
  263.65        2974.75           1553          79.00       316.92
  263.68        2975.00           1556          62.00       242.81
  263.71        2975.25           1559          55.00       212.29
  263.74        2975.50           1563          49.00       186.14
  263.77        2975.75           1566          42.00       155.62
  263.80        2976.00           1569          45.00       168.70
  263.83        2976.25           1573          46.00       173.06
  263.86        2976.50           1576          41.00       151.26
  263.89        2976.75           1579          43.00       159.98
  263.93        2977.00           1583          43.00       159.98
  263.96        2977.25           1586          53.00       203.58
  263.99        2977.50           1590          43.00       159.98
  264.02        2977.75           1593          52.00       199.22
  264.05        2978.00           1596          47.00       177.42
  264.08        2978.25           1600          41.00       151.26
  264.11        2978.50           1603          45.00       168.70
  264.14        2978.75           1606          45.00       168.70
  264.17        2979.00           1610          42.00       155.62
  264.20        2979.25           1613          50.00       190.50
  264.23        2979.50           1616          46.00       173.06
  264.26        2979.75           1620          48.00       181.78
  264.30        2980.00           1623          44.00       164.34
  264.33        2980.25           1626          50.00       190.50
  264.36        2980.50           1630          46.00       173.06
  264.39        2980.75           1633          45.00       168.70
  264.42        2981.00           1637          41.00       151.26
  264.45        2981.25           1640          49.00       186.14
  264.48        2981.50           1643          53.00       203.58
  264.51        2981.75           1647          51.00       194.86
  264.54        2982.00           1650          41.00       151.26
  264.57        2982.25           1653          40.00       146.91
  264.60        2982.50           1657          45.00       168.70
  264.63        2982.75           1660          40.00       146.91
  264.66        2983.00           1663          43.00       159.98
  264.69        2983.25           1667          50.00       190.50
  264.72        2983.50           1670          44.00       164.34
  264.76        2983.75           1673          40.00       146.91
  264.79        2984.00           1677          39.00       142.55
HS scan finished at 04:25:00
end
************************************************************
  HS Scan of (1) Internal mercury lamp
************************************************************
Integration time is 0.2294 seconds per sample
dh011118Manchester 53.47 2.23 2.804185pr1000
************************************************************
Dead Time -------------------------  3E-08 
Number of Cycles Used -------------  4 
Starting Wavelength (Angstroms) ---  2950 
Final Wavelength (Angstoms) -------  2984 
Wavelength Increment (Angstroms) --  .25 
Filter Wheel #1 Position ---------- (1) Ground quartz diffuser (ND=2.32)
Filter Wheel #2 Position ---------- (1) Neutral Density 0.494



************************************************************
HS scan start time = 17:42:01
Dark Count =  6.4 


Time (GMT)  Wavelength (Ang)  Step Number  Raw Counts  Counts/Second

 1062.39        2950.00           1222          55.00       211.86
 1062.46        2950.25           1226          48.00       181.34
 1062.49        2950.50           1229          44.00       163.91
 1062.52        2950.75           1232          54.00       207.50
 1062.55        2951.00           1236          45.00       168.27
 1062.58        2951.25           1239          43.00       159.55
 1062.61        2951.50           1242          45.00       168.27
 1062.64        2951.75           1246          46.00       172.63
 1062.67        2952.00           1249          53.00       203.14
 1062.70        2952.25           1252          46.00       172.63
 1062.73        2952.50           1256          44.00       163.91
 1062.77        2952.75           1259          47.00       176.98
 1062.80        2953.00           1262          49.00       185.70
 1062.83        2953.25           1266          57.00       220.58
 1062.86        2953.50           1269          54.00       207.50
 1062.89        2953.75           1272          46.00       172.63
 1062.92        2954.00           1276          54.00       207.50
 1062.95        2954.25           1279          44.00       163.91
 1062.98        2954.50           1282          54.00       207.50
 1063.01        2954.75           1286          44.00       163.91
 1063.04        2955.00           1289          48.00       181.34
 1063.07        2955.25           1292          45.00       168.27
 1063.10        2955.50           1296          51.00       194.42
 1063.13        2955.75           1299          59.00       229.30
 1063.16        2956.00           1302          50.00       190.06
 1063.19        2956.25           1306          43.00       159.55
 1063.22        2956.50           1309          48.00       181.34
 1063.25        2956.75           1312          50.00       190.06
 1063.28        2957.00           1316          45.00       168.27
 1063.31        2957.25           1319          49.00       185.70
 1063.34        2957.50           1322          51.00       194.42
 1063.37        2957.75           1326          41.00       150.83
 1063.40        2958.00           1329          52.00       198.78
 1063.43        2958.25           1332          44.00       163.91
 1063.46        2958.50           1336          46.00       172.63
 1063.49        2958.75           1339          47.00       176.98
 1063.53        2959.00           1342          51.00       194.42
 1063.56        2959.25           1346          55.00       211.86
 1063.59        2959.50           1349          52.00       198.78
 1063.62        2959.75           1352          60.00       233.65
 1063.65        2960.00           1356          80.00       320.84
 1063.68        2960.25           1359         102.00       416.74
 1063.71        2960.50           1362         128.00       530.09
 1063.74        2960.75           1366         169.00       708.82
 1063.77        2961.00           1369         197.00       830.88
 1063.80        2961.25           1372         217.00       918.07
 1063.84        2961.50           1376         282.00      1201.44
 1063.87        2961.75           1379         378.00      1619.96
 1063.90        2962.00           1382         781.00      3376.98
 1063.93        2962.25           1386        2098.00      9120.19
 1063.96        2962.50           1389        3191.00     13888.09
 1063.99        2962.75           1392        4299.00     18722.81
 1064.02        2963.00           1396        5743.00     25025.76
 1064.05        2963.25           1399        6894.00     30051.49
 1064.08        2963.50           1402        7880.00     34357.98
 1064.12        2963.75           1406        9518.00     41514.62
 1064.15        2964.00           1409       10801.00     47122.37
 1064.18        2964.25           1412       11906.00     51953.63
 1064.21        2964.50           1416       13432.00     58627.87
 1064.24        2964.75           1419       14550.00     63519.35
 1064.27        2965.00           1422       15779.00     68898.15
 1064.30        2965.25           1426       17247.00     75325.22
 1064.33        2965.50           1429       18455.00     80615.83
 1064.36        2965.75           1432       19425.00     84865.31
 1064.39        2966.00           1436       20960.00     91592.22
 1064.43        2966.25           1439       21858.00     95528.83
 1064.46        2966.50           1442       23097.00    100961.80
 1064.49        2966.75           1446       24132.00    105501.70
 1064.52        2967.00           1449       24588.00    107502.20
 1064.55        2967.25           1452       24521.00    107208.20
 1064.58        2967.50           1456       24565.00    107401.30
 1064.61        2967.75           1459       24718.00    108072.60
 1064.64        2968.00           1462       24578.00    107458.30
 1064.67        2968.25           1466       23867.00    104339.20
 1064.71        2968.50           1469       22912.00    100150.50
 1064.74        2968.75           1472       21880.00     95625.28
 1064.77        2969.00           1476       20376.00     89032.61
 1064.80        2969.25           1479       19316.00     84387.74
 1064.83        2969.50           1482       18214.00     79560.21
 1064.86        2969.75           1486       16731.00     73065.83
 1064.89        2970.00           1489       15482.00     67598.15
 1064.92        2970.25           1492       14482.00     63221.80
 1064.95        2970.50           1496       12999.00     56733.80
 1064.99        2970.75           1499       11754.00     51288.97
 1065.02        2971.00           1502       10636.00     46401.08
 1065.05        2971.25           1506        9079.00     39596.27
 1065.08        2971.50           1509        7900.00     34445.35
 1065.11        2971.75           1513        6437.00     28055.86
 1065.14        2972.00           1516        5451.00     23751.01
 1065.17        2972.25           1519        4281.00     18644.25
 1065.20        2972.50           1523        2749.00     11959.83
 1065.24        2972.75           1526        1783.00      7746.35
 1065.27        2973.00           1529         849.00      3673.47
 1065.30        2973.25           1533         328.00      1401.98
 1065.33        2973.50           1536         259.00      1101.17
 1065.36        2973.75           1539         213.00       900.63
 1065.39        2974.00           1543         176.00       739.34
 1065.42        2974.25           1546         123.00       508.29
 1065.45        2974.50           1549         114.00       469.06
 1065.48        2974.75           1553          75.00       299.04
 1065.51        2975.00           1556          57.00       220.58
 1065.54        2975.25           1559          54.00       207.50
 1065.58        2975.50           1563          47.00       176.98
 1065.61        2975.75           1566          55.00       211.86
 1065.64        2976.00           1569          50.00       190.06
 1065.67        2976.25           1573          58.00       224.94
 1065.70        2976.50           1576          51.00       194.42
 1065.73        2976.75           1579          41.00       150.83
 1065.76        2977.00           1583          52.00       198.78
 1065.79        2977.25           1586          48.00       181.34
 1065.82        2977.50           1590          46.00       172.63
 1065.85        2977.75           1593          45.00       168.27
 1065.88        2978.00           1596          50.00       190.06
 1065.91        2978.25           1600          45.00       168.27
 1065.94        2978.50           1603          50.00       190.06
 1065.98        2978.75           1606          48.00       181.34
 1066.01        2979.00           1610          45.00       168.27
 1066.04        2979.25           1613          46.00       172.63
 1066.07        2979.50           1616          53.00       203.14
 1066.10        2979.75           1620          46.00       172.63
 1066.13        2980.00           1623          46.00       172.63
 1066.16        2980.25           1626          38.00       137.75
 1066.19        2980.50           1630          39.00       142.11
 1066.22        2980.75           1633          42.00       155.19
 1066.25        2981.00           1637          42.00       155.19
 1066.28        2981.25           1640          42.00       155.19
 1066.31        2981.50           1643          45.00       168.27
 1066.34        2981.75           1647          49.00       185.70
 1066.37        2982.00           1650          38.00       137.75
 1066.40        2982.25           1653          46.00       172.63
 1066.43        2982.50           1657          42.00       155.19
 1066.47        2982.75           1660          45.00       168.27
 1066.50        2983.00           1663          39.00       142.11
 1066.53        2983.25           1667          49.00       185.70
 1066.56        2983.50           1670          43.00       159.55
 1066.59        2983.75           1673          47.00       176.98
 1066.62        2984.00           1677          44.00       163.91
HS scan finished at 17:46:50
end
