************************************************************
  HS Scan of (1) Internal mercury lamp
************************************************************
Integration time is 0.2294 seconds per sample
dh041118Manchester 53.47 2.23 2.804185pr1000
************************************************************
Dead Time -------------------------  3E-08 
Number of Cycles Used -------------  4 
Starting Wavelength (Angstroms) ---  2950 
Final Wavelength (Angstoms) -------  2984 
Wavelength Increment (Angstroms) --  .25 
Filter Wheel #1 Position ---------- (1) Ground quartz diffuser (ND=2.32)
Filter Wheel #2 Position ---------- (1) Neutral Density 0.494



************************************************************
HS scan start time = 04:25:34
Dark Count =  5.9 


Time (GMT)  Wavelength (Ang)  Step Number  Raw Counts  Counts/Second

  265.93        2950.00           1222          49.00       187.88
  265.99        2950.25           1226          47.00       179.16
  266.03        2950.50           1229          51.00       196.60
  266.06        2950.75           1232          46.00       174.80
  266.09        2951.00           1236          51.00       196.60
  266.12        2951.25           1239          51.00       196.60
  266.15        2951.50           1242          48.00       183.52
  266.18        2951.75           1246          53.00       205.32
  266.21        2952.00           1249          49.00       187.88
  266.24        2952.25           1252          46.00       174.80
  266.27        2952.50           1256          55.00       214.04
  266.30        2952.75           1259          42.00       157.37
  266.33        2953.00           1262          52.00       200.96
  266.36        2953.25           1266          51.00       196.60
  266.40        2953.50           1269          51.00       196.60
  266.43        2953.75           1272          45.00       170.45
  266.46        2954.00           1276          46.00       174.80
  266.49        2954.25           1279          48.00       183.52
  266.52        2954.50           1282          48.00       183.52
  266.55        2954.75           1286          42.00       157.37
  266.58        2955.00           1289          55.00       214.04
  266.61        2955.25           1292          51.00       196.60
  266.64        2955.50           1296          52.00       200.96
  266.67        2955.75           1299          54.00       209.68
  266.70        2956.00           1302          44.00       166.09
  266.73        2956.25           1306          52.00       200.96
  266.76        2956.50           1309          52.00       200.96
  266.80        2956.75           1312          49.00       187.88
  266.83        2957.00           1316          48.00       183.52
  266.86        2957.25           1319          50.00       192.24
  266.89        2957.50           1322          43.00       161.73
  266.92        2957.75           1326          54.00       209.68
  266.95        2958.00           1329          43.00       161.73
  266.98        2958.25           1332          52.00       200.96
  267.01        2958.50           1336          48.00       183.52
  267.04        2958.75           1339          55.00       214.04
  267.07        2959.00           1342          57.00       222.76
  267.10        2959.25           1346          54.00       209.68
  267.13        2959.50           1349          58.00       227.12
  267.16        2959.75           1352          70.00       279.43
  267.20        2960.00           1356          76.00       305.58
  267.23        2960.25           1359         109.00       449.44
  267.26        2960.50           1362         130.00       540.99
  267.29        2960.75           1366         180.00       758.95
  267.32        2961.00           1369         206.00       872.30
  267.35        2961.25           1372         239.00      1016.16
  267.38        2961.50           1376         298.00      1273.37
  267.41        2961.75           1379         381.00      1635.22
  267.44        2962.00           1382         714.00      3087.03
  267.48        2962.25           1386        1966.00      8546.65
  267.51        2962.50           1389        3019.00     13139.88
  267.54        2962.75           1392        4156.00     18100.93
  267.57        2963.00           1396        5671.00     24713.61
  267.60        2963.25           1399        6644.00     28961.95
  267.63        2963.50           1402        7787.00     33953.92
  267.66        2963.75           1406        9379.00     40909.38
  267.69        2964.00           1409       10461.00     45638.29
  267.72        2964.25           1412       11685.00     50989.45
  267.75        2964.50           1416       13255.00     57855.79
  267.79        2964.75           1419       14306.00     62453.87
  267.82        2965.00           1422       15615.00     68182.48
  267.85        2965.25           1426       17236.00     75279.24
  267.88        2965.50           1429       18382.00     80298.26
  267.91        2965.75           1432       19455.00     84998.94
  267.94        2966.00           1436       20987.00     91712.76
  267.97        2966.25           1439       22181.00     96947.21
  268.00        2966.50           1442       23201.00    101420.10
  268.03        2966.75           1446       24300.00    106240.90
  268.07        2967.00           1449       24664.00    107837.90
  268.10        2967.25           1452       24742.00    108180.10
  268.13        2967.50           1456       24616.00    107627.20
  268.16        2967.75           1459       24853.00    108667.10
  268.19        2968.00           1462       24624.00    107662.40
  268.22        2968.25           1466       24069.00    105227.50
  268.25        2968.50           1469       23018.00    100617.60
  268.28        2968.75           1472       21731.00     94974.22
  268.31        2969.00           1476       20674.00     90340.85
  268.34        2969.25           1479       19409.00     84797.40
  268.38        2969.50           1482       18337.00     80101.15
  268.41        2969.75           1486       16916.00     73878.04
  268.44        2970.00           1489       15794.00     68966.00
  268.47        2970.25           1492       14741.00     64357.36
  268.50        2970.50           1496       13162.00     57448.97
  268.53        2970.75           1499       12056.00     52611.75
  268.56        2971.00           1502       10797.00     47107.07
  268.59        2971.25           1506        9331.00     40699.62
  268.62        2971.50           1509        8042.00     35067.83
  268.66        2971.75           1513        6680.00     29119.15
  268.69        2972.00           1516        5485.00     23901.61
  268.72        2972.25           1519        4417.00     19239.96
  268.75        2972.50           1523        2905.00     12642.55
  268.78        2972.75           1526        1796.00      7805.23
  268.81        2973.00           1529         892.00      3863.13
  268.84        2973.25           1533         363.00      1556.74
  268.87        2973.50           1536         250.00      1064.11
  268.90        2973.75           1539         211.00       894.10
  268.94        2974.00           1543         158.00       663.05
  268.97        2974.25           1546         133.00       554.06
  269.00        2974.50           1549          96.00       392.77
  269.03        2974.75           1553          80.00       323.02
  269.06        2975.00           1556          58.00       227.12
  269.09        2975.25           1559          50.00       192.24
  269.12        2975.50           1563          43.00       161.73
  269.15        2975.75           1566          49.00       187.88
  269.18        2976.00           1569          50.00       192.24
  269.21        2976.25           1573          51.00       196.60
  269.25        2976.50           1576          45.00       170.45
  269.28        2976.75           1579          42.00       157.37
  269.31        2977.00           1583          45.00       170.45
  269.34        2977.25           1586          45.00       170.45
  269.37        2977.50           1590          39.00       144.29
  269.40        2977.75           1593          45.00       170.45
  269.43        2978.00           1596          47.00       179.16
  269.46        2978.25           1600          44.00       166.09
  269.49        2978.50           1603          47.00       179.16
  269.52        2978.75           1606          48.00       183.52
  269.55        2979.00           1610          44.00       166.09
  269.58        2979.25           1613          42.00       157.37
  269.61        2979.50           1616          43.00       161.73
  269.64        2979.75           1620          50.00       192.24
  269.68        2980.00           1623          44.00       166.09
  269.71        2980.25           1626          48.00       183.52
  269.74        2980.50           1630          45.00       170.45
  269.77        2980.75           1633          50.00       192.24
  269.80        2981.00           1637          46.00       174.80
  269.83        2981.25           1640          45.00       170.45
  269.86        2981.50           1643          47.00       179.16
  269.89        2981.75           1647          45.00       170.45
  269.92        2982.00           1650          48.00       183.52
  269.95        2982.25           1653          45.00       170.45
  269.98        2982.50           1657          42.00       157.37
  270.02        2982.75           1660          39.00       144.29
  270.05        2983.00           1663          40.00       148.65
  270.08        2983.25           1667          43.00       161.73
  270.11        2983.50           1670          56.00       218.40
  270.14        2983.75           1673          42.00       157.37
  270.17        2984.00           1677          42.00       157.37
HS scan finished at 04:30:23
end
************************************************************
  HS Scan of (1) Internal mercury lamp
************************************************************
Integration time is 0.2294 seconds per sample
dh041118Manchester 53.47 2.23 2.804185pr1000
************************************************************
Dead Time -------------------------  3E-08 
Number of Cycles Used -------------  4 
Starting Wavelength (Angstroms) ---  2950 
Final Wavelength (Angstoms) -------  2984 
Wavelength Increment (Angstroms) --  .25 
Filter Wheel #1 Position ---------- (1) Ground quartz diffuser (ND=2.32)
Filter Wheel #2 Position ---------- (1) Neutral Density 0.494



************************************************************
HS scan start time = 17:42:08
Dark Count =  6.7 


Time (GMT)  Wavelength (Ang)  Step Number  Raw Counts  Counts/Second

 1062.50        2950.00           1222          51.00       193.11
 1062.57        2950.25           1226          52.00       197.47
 1062.60        2950.50           1229          48.00       180.04
 1062.63        2950.75           1232          54.00       206.19
 1062.66        2951.00           1236          50.00       188.75
 1062.69        2951.25           1239          55.00       210.55
 1062.72        2951.50           1242          46.00       171.32
 1062.75        2951.75           1246          45.00       166.96
 1062.78        2952.00           1249          56.00       214.91
 1062.81        2952.25           1252          50.00       188.75
 1062.85        2952.50           1256          55.00       210.55
 1062.88        2952.75           1259          48.00       180.04
 1062.91        2953.00           1262          45.00       166.96
 1062.94        2953.25           1266          47.00       175.68
 1062.97        2953.50           1269          49.00       184.40
 1063.00        2953.75           1272          43.00       158.24
 1063.03        2954.00           1276          41.00       149.52
 1063.06        2954.25           1279          43.00       158.24
 1063.09        2954.50           1282          50.00       188.75
 1063.12        2954.75           1286          44.00       162.60
 1063.15        2955.00           1289          52.00       197.47
 1063.18        2955.25           1292          46.00       171.32
 1063.21        2955.50           1296          52.00       197.47
 1063.24        2955.75           1299          49.00       184.40
 1063.28        2956.00           1302          50.00       188.75
 1063.31        2956.25           1306          52.00       197.47
 1063.34        2956.50           1309          44.00       162.60
 1063.37        2956.75           1312          54.00       206.19
 1063.40        2957.00           1316          55.00       210.55
 1063.43        2957.25           1319          48.00       180.04
 1063.46        2957.50           1322          47.00       175.68
 1063.49        2957.75           1326          46.00       171.32
 1063.52        2958.00           1329          58.00       223.63
 1063.55        2958.25           1332          49.00       184.40
 1063.58        2958.50           1336          54.00       206.19
 1063.61        2958.75           1339          50.00       188.75
 1063.64        2959.00           1342          53.00       201.83
 1063.67        2959.25           1346          49.00       184.40
 1063.70        2959.50           1349          51.00       193.11
 1063.73        2959.75           1352          62.00       241.07
 1063.76        2960.00           1356          78.00       310.81
 1063.80        2960.25           1359          96.00       389.28
 1063.83        2960.50           1362         119.00       489.55
 1063.86        2960.75           1366         159.00       663.92
 1063.89        2961.00           1369         169.00       707.51
 1063.92        2961.25           1372         214.00       903.69
 1063.95        2961.50           1376         268.00      1139.10
 1063.98        2961.75           1379         361.00      1544.54
 1064.01        2962.00           1382         822.00      3554.43
 1064.04        2962.25           1386        1959.00      8512.64
 1064.07        2962.50           1389        3132.00     13629.37
 1064.10        2962.75           1392        4226.00     18402.92
 1064.14        2963.00           1396        5640.00     24574.78
 1064.17        2963.25           1399        6699.00     29198.63
 1064.20        2963.50           1402        7984.00     34810.97
 1064.23        2963.75           1406        9346.00     40761.67
 1064.26        2964.00           1409       10665.00     46526.54
 1064.29        2964.25           1412       11778.00     51392.60
 1064.32        2964.50           1416       13224.00     57716.68
 1064.35        2964.75           1419       14402.00     62870.43
 1064.38        2965.00           1422       15544.00     67868.21
 1064.42        2965.25           1426       17115.00     74745.90
 1064.45        2965.50           1429       18275.00     79826.08
 1064.48        2965.75           1432       19132.00     83580.28
 1064.51        2966.00           1436       20782.00     90810.71
 1064.54        2966.25           1439       21971.00     96022.96
 1064.57        2966.50           1442       23076.00    100868.40
 1064.60        2966.75           1446       24107.00    105390.70
 1064.63        2967.00           1449       24470.00    106983.20
 1064.66        2967.25           1452       24668.00    107851.90
 1064.69        2967.50           1456       24500.00    107114.80
 1064.72        2967.75           1459       24530.00    107246.40
 1064.75        2968.00           1462       24470.00    106983.20
 1064.78        2968.25           1466       23779.00    103951.80
 1064.82        2968.50           1469       22714.00     99280.88
 1064.85        2968.75           1472       21785.00     95207.47
 1064.88        2969.00           1476       20397.00     89123.34
 1064.91        2969.25           1479       19140.00     83615.33
 1064.94        2969.50           1482       18055.00     78862.48
 1064.97        2969.75           1486       16538.00     72219.51
 1065.00        2970.00           1489       15317.00     66874.66
 1065.03        2970.25           1492       14336.00     62581.64
 1065.06        2970.50           1496       12782.00     55783.34
 1065.09        2970.75           1499       11752.00     51278.92
 1065.13        2971.00           1502       10543.00     45993.24
 1065.16        2971.25           1506        9049.00     39463.87
 1065.19        2971.50           1509        7938.00     34610.02
 1065.22        2971.75           1513        6389.00     27844.96
 1065.25        2972.00           1516        5207.00     22684.57
 1065.28        2972.25           1519        4172.00     18167.27
 1065.31        2972.50           1523        2642.00     11491.76
 1065.34        2972.75           1526        1641.00      7125.76
 1065.37        2973.00           1529         705.00      3044.31
 1065.40        2973.25           1533         335.00      1431.19
 1065.44        2973.50           1536         261.00      1108.58
 1065.47        2973.75           1539         231.00       977.80
 1065.50        2974.00           1543         186.00       781.62
 1065.53        2974.25           1546         138.00       572.37
 1065.56        2974.50           1549         108.00       441.59
 1065.59        2974.75           1553          77.00       306.45
 1065.62        2975.00           1556          65.00       254.14
 1065.65        2975.25           1559          59.00       227.99
 1065.68        2975.50           1563          42.00       153.88
 1065.71        2975.75           1566          49.00       184.40
 1065.74        2976.00           1569          43.00       158.24
 1065.77        2976.25           1573          45.00       166.96
 1065.80        2976.50           1576          46.00       171.32
 1065.84        2976.75           1579          46.00       171.32
 1065.87        2977.00           1583          41.00       149.52
 1065.90        2977.25           1586          48.00       180.04
 1065.93        2977.50           1590          56.00       214.91
 1065.96        2977.75           1593          41.00       149.52
 1065.99        2978.00           1596          45.00       166.96
 1066.02        2978.25           1600          42.00       153.88
 1066.05        2978.50           1603          43.00       158.24
 1066.08        2978.75           1606          47.00       175.68
 1066.11        2979.00           1610          52.00       197.47
 1066.14        2979.25           1613          41.00       149.52
 1066.18        2979.50           1616          52.00       197.47
 1066.21        2979.75           1620          51.00       193.11
 1066.24        2980.00           1623          43.00       158.24
 1066.27        2980.25           1626          50.00       188.75
 1066.30        2980.50           1630          45.00       166.96
 1066.33        2980.75           1633          43.00       158.24
 1066.36        2981.00           1637          46.00       171.32
 1066.39        2981.25           1640          41.00       149.52
 1066.42        2981.50           1643          40.00       145.16
 1066.45        2981.75           1647          40.00       145.16
 1066.48        2982.00           1650          46.00       171.32
 1066.51        2982.25           1653          46.00       171.32
 1066.54        2982.50           1657          38.00       136.44
 1066.57        2982.75           1660          50.00       188.75
 1066.60        2983.00           1663          42.00       153.88
 1066.63        2983.25           1667          47.00       175.68
 1066.67        2983.50           1670          42.00       153.88
 1066.70        2983.75           1673          46.00       171.32
 1066.73        2984.00           1677          45.00       166.96
HS scan finished at 17:46:57
end
