************************************************************
  HS Scan of (1) Internal mercury lamp
************************************************************
Integration time is 0.2294 seconds per sample
dh301017Manchester 53.47 2.23 2.750537pr1000
************************************************************
Dead Time -------------------------  3E-08 
Number of Cycles Used -------------  4 
Starting Wavelength (Angstroms) ---  2950 
Final Wavelength (Angstoms) -------  2984 
Wavelength Increment (Angstroms) --  .25 
Filter Wheel #1 Position ---------- (1) Ground quartz diffuser (ND=2.32)
Filter Wheel #2 Position ---------- (1) Neutral Density 0.494



************************************************************
HS scan start time = 04:17:00
Dark Count =  4.5 


Time (GMT)  Wavelength (Ang)  Step Number  Raw Counts  Counts/Second

  257.38        2950.00           1222          76.00       311.69
  257.44        2950.25           1226          70.00       285.53
  257.48        2950.50           1229          62.00       250.66
  257.51        2950.75           1232          71.00       289.89
  257.54        2951.00           1236          69.00       281.17
  257.57        2951.25           1239          62.00       250.66
  257.60        2951.50           1242          74.00       302.97
  257.63        2951.75           1246          72.00       294.25
  257.66        2952.00           1249          71.00       289.89
  257.69        2952.25           1252          70.00       285.53
  257.72        2952.50           1256          65.00       263.73
  257.75        2952.75           1259          70.00       285.53
  257.79        2953.00           1262          63.00       255.02
  257.82        2953.25           1266          66.00       268.09
  257.85        2953.50           1269          69.00       281.17
  257.88        2953.75           1272          64.00       259.37
  257.91        2954.00           1276          65.00       263.73
  257.94        2954.25           1279          65.00       263.73
  257.97        2954.50           1282          62.00       250.66
  258.00        2954.75           1286          61.00       246.30
  258.03        2955.00           1289          76.00       311.69
  258.06        2955.25           1292          66.00       268.09
  258.09        2955.50           1296          77.00       316.04
  258.13        2955.75           1299          67.00       272.45
  258.16        2956.00           1302          66.00       268.09
  258.19        2956.25           1306          61.00       246.30
  258.22        2956.50           1309          66.00       268.09
  258.25        2956.75           1312          61.00       246.30
  258.28        2957.00           1316          75.00       307.33
  258.31        2957.25           1319          63.00       255.02
  258.34        2957.50           1322          66.00       268.09
  258.37        2957.75           1326          68.00       276.81
  258.40        2958.00           1329          71.00       289.89
  258.43        2958.25           1332          65.00       263.73
  258.47        2958.50           1336          63.00       255.02
  258.50        2958.75           1339          67.00       272.45
  258.53        2959.00           1342          60.00       241.94
  258.56        2959.25           1346          65.00       263.73
  258.59        2959.50           1349          82.00       337.84
  258.62        2959.75           1352          83.00       342.20
  258.65        2960.00           1356          97.00       403.23
  258.68        2960.25           1359         134.00       564.53
  258.71        2960.50           1362         160.00       677.87
  258.74        2960.75           1366         223.00       952.51
  258.77        2961.00           1369         265.00      1135.61
  258.80        2961.25           1372         314.00      1349.23
  258.83        2961.50           1376         388.00      1671.84
  258.87        2961.75           1379         563.00      2434.79
  258.90        2962.00           1382        1164.00      5055.26
  258.93        2962.25           1386        2890.00     12583.22
  258.96        2962.50           1389        4500.00     19608.31
  258.99        2962.75           1392        5948.00     25929.06
  259.02        2963.00           1396        7965.00     34737.58
  259.05        2963.25           1399        9543.00     41632.18
  259.08        2963.50           1402       11089.00     48389.73
  259.11        2963.75           1406       13212.00     57673.82
  259.14        2964.00           1409       15011.00     65545.06
  259.17        2964.25           1412       16420.00     71712.53
  259.20        2964.50           1416       18549.00     81035.91
  259.23        2964.75           1419       20031.00     87529.01
  259.27        2965.00           1422       21591.00     94366.60
  259.30        2965.25           1426       23723.00    103715.90
  259.33        2965.50           1429       25128.00    109879.90
  259.36        2965.75           1432       26669.00    116643.30
  259.39        2966.00           1436       28916.00    126510.20
  259.42        2966.25           1439       30451.00    133254.00
  259.45        2966.50           1442       31762.00    139015.80
  259.48        2966.75           1446       33167.00    145193.00
  259.51        2967.00           1449       33505.00    146679.30
  259.54        2967.25           1452       33630.00    147229.10
  259.57        2967.50           1456       33429.00    146345.10
  259.60        2967.75           1459       33420.00    146305.50
  259.64        2968.00           1462       33202.00    145346.90
  259.67        2968.25           1466       32143.00    140690.60
  259.70        2968.50           1469       30864.00    135068.90
  259.73        2968.75           1472       29124.00    127423.90
  259.76        2969.00           1476       27259.00    119233.50
  259.79        2969.25           1479       25568.00    111810.80
  259.82        2969.50           1482       24140.00    105545.10
  259.85        2969.75           1486       22033.00     96304.43
  259.88        2970.00           1489       20584.00     89952.53
  259.91        2970.25           1492       19138.00     83616.21
  259.95        2970.50           1496       17151.00     74913.16
  259.98        2970.75           1499       15545.00     67882.22
  260.01        2971.00           1502       13958.00     60937.37
  260.04        2971.25           1506       11990.00     52329.25
  260.07        2971.50           1509       10468.00     45675.01
  260.10        2971.75           1513        8302.00     36209.76
  260.13        2972.00           1516        6721.00     29304.31
  260.16        2972.25           1519        5191.00     22624.33
  260.19        2972.50           1523        3255.00     14175.60
  260.23        2972.75           1526        1861.00      8094.82
  260.26        2973.00           1529         819.00      3550.95
  260.29        2973.25           1533         429.00      1850.58
  260.32        2973.50           1536         348.00      1497.45
  260.35        2973.75           1539         303.00      1301.27
  260.38        2974.00           1543         256.00      1096.37
  260.41        2974.25           1546         188.00       799.93
  260.44        2974.50           1549         156.00       660.43
  260.47        2974.75           1553         114.00       477.34
  260.51        2975.00           1556          90.00       372.72
  260.54        2975.25           1559          84.00       346.56
  260.57        2975.50           1563          62.00       250.66
  260.60        2975.75           1566          62.00       250.66
  260.63        2976.00           1569          56.00       224.50
  260.66        2976.25           1573          57.00       228.86
  260.69        2976.50           1576          69.00       281.17
  260.72        2976.75           1579          61.00       246.30
  260.75        2977.00           1583          64.00       259.37
  260.78        2977.25           1586          59.00       237.58
  260.81        2977.50           1590          65.00       263.73
  260.85        2977.75           1593          63.00       255.02
  260.88        2978.00           1596          57.00       228.86
  260.91        2978.25           1600          66.00       268.09
  260.94        2978.50           1603          63.00       255.02
  260.97        2978.75           1606          64.00       259.37
  261.00        2979.00           1610          54.00       215.78
  261.03        2979.25           1613          60.00       241.94
  261.06        2979.50           1616          65.00       263.73
  261.09        2979.75           1620          64.00       259.37
  261.12        2980.00           1623          58.00       233.22
  261.15        2980.25           1626          64.00       259.37
  261.18        2980.50           1630          63.00       255.02
  261.22        2980.75           1633          60.00       241.94
  261.25        2981.00           1637          59.00       237.58
  261.28        2981.25           1640          58.00       233.22
  261.31        2981.50           1643          60.00       241.94
  261.34        2981.75           1647          51.00       202.70
  261.37        2982.00           1650          64.00       259.37
  261.40        2982.25           1653          60.00       241.94
  261.43        2982.50           1657          64.00       259.37
  261.46        2982.75           1660          63.00       255.02
  261.49        2983.00           1663          54.00       215.78
  261.52        2983.25           1667          62.00       250.66
  261.55        2983.50           1670          67.00       272.45
  261.58        2983.75           1673          60.00       241.94
  261.62        2984.00           1677          62.00       250.66
HS scan finished at 04:21:50
end
************************************************************
  HS Scan of (1) Internal mercury lamp
************************************************************
Integration time is 0.2294 seconds per sample
dh301017Manchester 53.47 2.23 2.804185pr1000
************************************************************
Dead Time -------------------------  3E-08 
Number of Cycles Used -------------  4 
Starting Wavelength (Angstroms) ---  2950 
Final Wavelength (Angstoms) -------  2984 
Wavelength Increment (Angstroms) --  .25 
Filter Wheel #1 Position ---------- (1) Ground quartz diffuser (ND=2.32)
Filter Wheel #2 Position ---------- (1) Neutral Density 0.494



************************************************************
HS scan start time = 17:42:07
Dark Count =  6.8 


Time (GMT)  Wavelength (Ang)  Step Number  Raw Counts  Counts/Second

 1062.48        2950.00           1222          75.00       297.30
 1062.55        2950.25           1226          71.00       279.86
 1062.58        2950.50           1229          66.00       258.07
 1062.61        2950.75           1232          64.00       249.35
 1062.64        2951.00           1236          78.00       310.38
 1062.67        2951.25           1239          66.00       258.07
 1062.70        2951.50           1242          72.00       284.22
 1062.74        2951.75           1246          73.00       288.58
 1062.77        2952.00           1249          68.00       266.79
 1062.80        2952.25           1252          72.00       284.22
 1062.83        2952.50           1256          70.00       275.50
 1062.86        2952.75           1259          73.00       288.58
 1062.89        2953.00           1262          65.00       253.71
 1062.92        2953.25           1266          64.00       249.35
 1062.95        2953.50           1269          64.00       249.35
 1062.98        2953.75           1272          68.00       266.79
 1063.01        2954.00           1276          67.00       262.43
 1063.04        2954.25           1279          70.00       275.50
 1063.07        2954.50           1282          78.00       310.38
 1063.10        2954.75           1286          70.00       275.50
 1063.13        2955.00           1289          62.00       240.63
 1063.17        2955.25           1292          67.00       262.43
 1063.20        2955.50           1296          71.00       279.86
 1063.23        2955.75           1299          69.00       271.14
 1063.26        2956.00           1302          56.00       214.47
 1063.29        2956.25           1306          73.00       288.58
 1063.32        2956.50           1309          66.00       258.07
 1063.35        2956.75           1312          70.00       275.50
 1063.38        2957.00           1316          60.00       231.91
 1063.41        2957.25           1319          68.00       266.79
 1063.44        2957.50           1322          60.00       231.91
 1063.47        2957.75           1326          70.00       275.50
 1063.50        2958.00           1329          63.00       244.99
 1063.53        2958.25           1332          69.00       271.14
 1063.56        2958.50           1336          64.00       249.35
 1063.60        2958.75           1339          72.00       284.22
 1063.63        2959.00           1342          70.00       275.50
 1063.66        2959.25           1346          68.00       266.79
 1063.69        2959.50           1349          76.00       301.66
 1063.72        2959.75           1352          93.00       375.77
 1063.75        2960.00           1356         129.00       532.70
 1063.78        2960.25           1359         158.00       659.12
 1063.81        2960.50           1362         188.00       789.91
 1063.84        2960.75           1366         236.00       999.16
 1063.87        2961.00           1369         271.00      1151.74
 1063.91        2961.25           1372         339.00      1448.19
 1063.94        2961.50           1376         405.00      1735.92
 1063.97        2961.75           1379         633.00      2729.95
 1064.00        2962.00           1382        1353.00      5869.39
 1064.03        2962.25           1386        3197.00     13912.52
 1064.06        2962.50           1389        4641.00     20213.65
 1064.09        2962.75           1392        6048.00     26355.62
 1064.12        2963.00           1396        8096.00     35299.79
 1064.15        2963.25           1399        9530.00     41565.31
 1064.19        2963.50           1402       11129.00     48554.55
 1064.22        2963.75           1406       13179.00     57519.40
 1064.25        2964.00           1409       14891.00     65009.84
 1064.28        2964.25           1412       16406.00     71641.16
 1064.31        2964.50           1416       18533.00     80955.75
 1064.34        2964.75           1419       19973.00     87264.78
 1064.37        2965.00           1422       21588.00     94343.36
 1064.40        2965.25           1426       23662.00    103438.20
 1064.43        2965.50           1429       25104.00    109764.50
 1064.47        2965.75           1432       26723.00    116870.20
 1064.50        2966.00           1436       28635.00    125265.90
 1064.53        2966.25           1439       30116.00    131771.90
 1064.56        2966.50           1442       31459.00    137673.80
 1064.59        2966.75           1446       33054.00    144686.00
 1064.62        2967.00           1449       33349.00    145983.20
 1064.65        2967.25           1452       33508.00    146682.40
 1064.68        2967.50           1456       33289.00    145719.40
 1064.71        2967.75           1459       33308.00    145802.90
 1064.74        2968.00           1462       33073.00    144769.50
 1064.78        2968.25           1466       31972.00    139928.80
 1064.81        2968.50           1469       30642.00    134083.20
 1064.84        2968.75           1472       29121.00    127400.60
 1064.87        2969.00           1476       27208.00    118999.50
 1064.90        2969.25           1479       25671.00    112252.70
 1064.93        2969.50           1482       24331.00    106372.90
 1064.96        2969.75           1486       21948.00     95921.66
 1064.99        2970.00           1489       20451.00     89359.55
 1065.02        2970.25           1492       18983.00     82927.06
 1065.06        2970.50           1496       16875.00     73694.56
 1065.09        2970.75           1499       15409.00     67276.90
 1065.12        2971.00           1502       13933.00     60817.92
 1065.15        2971.25           1506       11970.00     52231.74
 1065.18        2971.50           1509       10267.00     44786.38
 1065.21        2971.75           1513        8413.00     36684.65
 1065.24        2972.00           1516        6842.00     29822.66
 1065.27        2972.25           1519        5215.00     22719.06
 1065.30        2972.50           1523        3297.00     14348.81
 1065.33        2972.75           1526        1829.00      7945.22
 1065.36        2973.00           1529         788.00      3405.75
 1065.39        2973.25           1533         428.00      1836.20
 1065.43        2973.50           1536         343.00      1465.63
 1065.46        2973.75           1539         286.00      1217.13
 1065.49        2974.00           1543         241.00      1020.96
 1065.52        2974.25           1546         171.00       715.80
 1065.55        2974.50           1549         140.00       580.66
 1065.58        2974.75           1553         107.00       436.80
 1065.61        2975.00           1556          82.00       327.81
 1065.64        2975.25           1559          72.00       284.22
 1065.67        2975.50           1563          70.00       275.50
 1065.70        2975.75           1566          60.00       231.91
 1065.73        2976.00           1569          60.00       231.91
 1065.77        2976.25           1573          65.00       253.71
 1065.80        2976.50           1576          62.00       240.63
 1065.83        2976.75           1579          67.00       262.43
 1065.86        2977.00           1583          67.00       262.43
 1065.89        2977.25           1586          70.00       275.50
 1065.92        2977.50           1590          59.00       227.55
 1065.95        2977.75           1593          63.00       244.99
 1065.98        2978.00           1596          60.00       231.91
 1066.01        2978.25           1600          61.00       236.27
 1066.04        2978.50           1603          65.00       253.71
 1066.07        2978.75           1606          63.00       244.99
 1066.11        2979.00           1610          66.00       258.07
 1066.14        2979.25           1613          69.00       271.14
 1066.17        2979.50           1616          63.00       244.99
 1066.20        2979.75           1620          59.00       227.55
 1066.23        2980.00           1623          64.00       249.35
 1066.26        2980.25           1626          59.00       227.55
 1066.29        2980.50           1630          60.00       231.91
 1066.32        2980.75           1633          64.00       249.35
 1066.35        2981.00           1637          64.00       249.35
 1066.38        2981.25           1640          54.00       205.76
 1066.41        2981.50           1643          61.00       236.27
 1066.44        2981.75           1647          52.00       197.04
 1066.47        2982.00           1650          65.00       253.71
 1066.50        2982.25           1653          64.00       249.35
 1066.54        2982.50           1657          61.00       236.27
 1066.57        2982.75           1660          62.00       240.63
 1066.60        2983.00           1663          56.00       214.47
 1066.63        2983.25           1667          67.00       262.43
 1066.66        2983.50           1670          60.00       231.91
 1066.69        2983.75           1673          60.00       231.91
 1066.72        2984.00           1677          53.00       201.40
HS scan finished at 17:46:56
end
