************************************************************
  HS Scan of (1) Internal mercury lamp
************************************************************
Integration time is 0.2294 seconds per sample
dh291017Manchester 53.47 2.23 2.804185pr1000
************************************************************
Dead Time -------------------------  3E-08 
Number of Cycles Used -------------  4 
Starting Wavelength (Angstroms) ---  2950 
Final Wavelength (Angstoms) -------  2984 
Wavelength Increment (Angstroms) --  .25 
Filter Wheel #1 Position ---------- (1) Ground quartz diffuser (ND=2.32)
Filter Wheel #2 Position ---------- (1) Neutral Density 0.494



************************************************************
HS scan start time = 04:15:12
Dark Count =  7.2 


Time (GMT)  Wavelength (Ang)  Step Number  Raw Counts  Counts/Second

  255.58        2950.00           1222          61.00       234.53
  255.64        2950.25           1226          69.00       269.40
  255.67        2950.50           1229          69.00       269.40
  255.70        2950.75           1232          72.00       282.48
  255.73        2951.00           1236          66.00       256.32
  255.76        2951.25           1239          69.00       269.40
  255.80        2951.50           1242          61.00       234.53
  255.83        2951.75           1246          65.00       251.96
  255.86        2952.00           1249          70.00       273.76
  255.89        2952.25           1252          62.00       238.89
  255.92        2952.50           1256          68.00       265.04
  255.95        2952.75           1259          70.00       273.76
  255.98        2953.00           1262          71.00       278.12
  256.01        2953.25           1266          66.00       256.32
  256.04        2953.50           1269          67.00       260.68
  256.07        2953.75           1272          62.00       238.89
  256.10        2954.00           1276          62.00       238.89
  256.13        2954.25           1279          68.00       265.04
  256.17        2954.50           1282          72.00       282.48
  256.20        2954.75           1286          67.00       260.68
  256.23        2955.00           1289          70.00       273.76
  256.26        2955.25           1292          67.00       260.68
  256.29        2955.50           1296          66.00       256.32
  256.32        2955.75           1299          62.00       238.89
  256.35        2956.00           1302          63.00       243.25
  256.38        2956.25           1306          63.00       243.25
  256.41        2956.50           1309          63.00       243.25
  256.44        2956.75           1312          71.00       278.12
  256.47        2957.00           1316          72.00       282.48
  256.50        2957.25           1319          63.00       243.25
  256.54        2957.50           1322          69.00       269.40
  256.57        2957.75           1326          64.00       247.60
  256.60        2958.00           1329          62.00       238.89
  256.63        2958.25           1332          63.00       243.25
  256.66        2958.50           1336          67.00       260.68
  256.69        2958.75           1339          59.00       225.81
  256.72        2959.00           1342          68.00       265.04
  256.75        2959.25           1346          72.00       282.48
  256.78        2959.50           1349          69.00       269.40
  256.81        2959.75           1352          89.00       356.59
  256.84        2960.00           1356         113.00       461.21
  256.87        2960.25           1359         128.00       526.60
  256.90        2960.50           1362         171.00       714.05
  256.94        2960.75           1366         220.00       927.66
  256.97        2961.00           1369         244.00      1032.29
  257.00        2961.25           1372         300.00      1276.42
  257.03        2961.50           1376         375.00      1603.39
  257.06        2961.75           1379         574.00      2470.98
  257.09        2962.00           1382        1246.00      5401.05
  257.12        2962.25           1386        2942.00     12798.29
  257.15        2962.50           1389        4398.00     19151.37
  257.18        2962.75           1392        5852.00     25498.14
  257.21        2963.00           1396        7852.00     34232.17
  257.24        2963.25           1399        9430.00     41126.56
  257.27        2963.50           1402       11151.00     48648.98
  257.30        2963.75           1406       13416.00     58554.39
  257.34        2964.00           1409       14987.00     65428.22
  257.37        2964.25           1412       16591.00     72449.36
  257.40        2964.50           1416       18715.00     81751.27
  257.43        2964.75           1419       20201.00     88262.16
  257.46        2965.00           1422       21805.00     95292.97
  257.49        2965.25           1426       24081.00    105274.40
  257.52        2965.50           1429       25403.00    111074.90
  257.55        2965.75           1432       26960.00    117908.90
  257.58        2966.00           1436       29112.00    127359.30
  257.61        2966.25           1439       30487.00    133400.30
  257.64        2966.50           1442       32118.00    140568.90
  257.68        2966.75           1446       33370.00    146073.80
  257.71        2967.00           1449       33723.00    147626.20
  257.74        2967.25           1452       33679.00    147432.70
  257.77        2967.50           1456       33698.00    147516.30
  257.80        2967.75           1459       33758.00    147780.10
  257.83        2968.00           1462       33315.00    145831.90
  257.86        2968.25           1466       32490.00    142204.30
  257.89        2968.50           1469       31081.00    136010.70
  257.92        2968.75           1472       29800.00    130381.70
  257.96        2969.00           1476       27826.00    121711.30
  257.99        2969.25           1479       25985.00    113629.10
  258.02        2969.50           1482       24293.00    106204.50
  258.05        2969.75           1486       22380.00     97814.08
  258.08        2970.00           1489       20777.00     90786.59
  258.11        2970.25           1492       19411.00     84800.47
  258.14        2970.50           1496       17286.00     75492.50
  258.17        2970.75           1499       15733.00     68693.29
  258.20        2971.00           1502       14134.00     61695.61
  258.23        2971.25           1506       12124.00     52903.43
  258.26        2971.50           1509       10579.00     46148.42
  258.30        2971.75           1513        8549.00     37277.06
  258.33        2972.00           1516        7087.00     30890.87
  258.36        2972.25           1519        5604.00     24415.44
  258.39        2972.50           1523        3480.00     15145.50
  258.42        2972.75           1526        2010.00      8732.89
  258.45        2973.00           1529         906.00      3918.51
  258.48        2973.25           1533         450.00      1930.36
  258.51        2973.50           1536         350.00      1494.40
  258.54        2973.75           1539         311.00      1324.38
  258.57        2974.00           1543         231.00       975.62
  258.60        2974.25           1546         188.00       788.16
  258.63        2974.50           1549         155.00       644.30
  258.66        2974.75           1553         103.00       417.62
  258.70        2975.00           1556          88.00       352.23
  258.73        2975.25           1559          74.00       291.20
  258.76        2975.50           1563          65.00       251.96
  258.79        2975.75           1566          69.00       269.40
  258.82        2976.00           1569          56.00       212.73
  258.85        2976.25           1573          71.00       278.12
  258.88        2976.50           1576          61.00       234.53
  258.91        2976.75           1579          57.00       217.09
  258.94        2977.00           1583          67.00       260.68
  258.97        2977.25           1586          53.00       199.65
  259.00        2977.50           1590          63.00       243.25
  259.03        2977.75           1593          55.00       208.37
  259.07        2978.00           1596          67.00       260.68
  259.10        2978.25           1600          59.00       225.81
  259.13        2978.50           1603          69.00       269.40
  259.16        2978.75           1606          56.00       212.73
  259.19        2979.00           1610          68.00       265.04
  259.22        2979.25           1613          56.00       212.73
  259.25        2979.50           1616          58.00       221.45
  259.28        2979.75           1620          63.00       243.25
  259.31        2980.00           1623          58.00       221.45
  259.34        2980.25           1626          57.00       217.09
  259.37        2980.50           1630          64.00       247.60
  259.40        2980.75           1633          51.00       190.93
  259.43        2981.00           1637          66.00       256.32
  259.46        2981.25           1640          67.00       260.68
  259.49        2981.50           1643          57.00       217.09
  259.52        2981.75           1647          58.00       221.45
  259.55        2982.00           1650          54.00       204.01
  259.59        2982.25           1653          63.00       243.25
  259.62        2982.50           1657          55.00       208.37
  259.65        2982.75           1660          66.00       256.32
  259.68        2983.00           1663          64.00       247.60
  259.71        2983.25           1667          58.00       221.45
  259.74        2983.50           1670          59.00       225.81
  259.77        2983.75           1673          57.00       217.09
  259.80        2984.00           1677          69.00       269.40
HS scan finished at 04:20:01
end
************************************************************
  HS Scan of (1) Internal mercury lamp
************************************************************
Integration time is 0.2294 seconds per sample
dh291017Manchester 53.47 2.23 2.804185pr1000
************************************************************
Dead Time -------------------------  3E-08 
Number of Cycles Used -------------  4 
Starting Wavelength (Angstroms) ---  2950 
Final Wavelength (Angstoms) -------  2984 
Wavelength Increment (Angstroms) --  .25 
Filter Wheel #1 Position ---------- (1) Ground quartz diffuser (ND=2.32)
Filter Wheel #2 Position ---------- (1) Neutral Density 0.494



************************************************************
HS scan start time = 17:42:02
Dark Count =  7.7 


Time (GMT)  Wavelength (Ang)  Step Number  Raw Counts  Counts/Second

 1062.40        2950.00           1222          65.00       249.78
 1062.47        2950.25           1226          82.00       323.89
 1062.50        2950.50           1229          64.00       245.42
 1062.53        2950.75           1232          65.00       249.78
 1062.56        2951.00           1236          69.00       267.22
 1062.59        2951.25           1239          72.00       280.30
 1062.62        2951.50           1242          62.00       236.71
 1062.65        2951.75           1246          66.00       254.14
 1062.69        2952.00           1249          71.00       275.94
 1062.72        2952.25           1252          58.00       219.27
 1062.75        2952.50           1256          68.00       262.86
 1062.78        2952.75           1259          59.00       223.63
 1062.81        2953.00           1262          66.00       254.14
 1062.84        2953.25           1266          72.00       280.30
 1062.87        2953.50           1269          63.00       241.07
 1062.90        2953.75           1272          69.00       267.22
 1062.93        2954.00           1276          73.00       284.66
 1062.96        2954.25           1279          62.00       236.71
 1062.99        2954.50           1282          63.00       241.07
 1063.02        2954.75           1286          61.00       232.35
 1063.05        2955.00           1289          67.00       258.50
 1063.09        2955.25           1292          59.00       223.63
 1063.12        2955.50           1296          72.00       280.30
 1063.15        2955.75           1299          68.00       262.86
 1063.18        2956.00           1302          71.00       275.94
 1063.21        2956.25           1306          72.00       280.30
 1063.24        2956.50           1309          68.00       262.86
 1063.27        2956.75           1312          64.00       245.42
 1063.30        2957.00           1316          63.00       241.07
 1063.33        2957.25           1319          70.00       271.58
 1063.36        2957.50           1322          61.00       232.35
 1063.40        2957.75           1326          72.00       280.30
 1063.43        2958.00           1329          72.00       280.30
 1063.46        2958.25           1332          68.00       262.86
 1063.49        2958.50           1336          77.00       302.10
 1063.52        2958.75           1339          70.00       271.58
 1063.55        2959.00           1342          66.00       254.14
 1063.58        2959.25           1346          79.00       310.81
 1063.61        2959.50           1349          81.00       319.53
 1063.64        2959.75           1352         105.00       424.16
 1063.67        2960.00           1356         118.00       480.83
 1063.70        2960.25           1359         158.00       655.20
 1063.73        2960.50           1362         197.00       825.22
 1063.76        2960.75           1366         245.00      1034.47
 1063.79        2961.00           1369         304.00      1291.68
 1063.82        2961.25           1372         309.00      1313.48
 1063.85        2961.50           1376         420.00      1797.39
 1063.89        2961.75           1379         646.00      2782.71
 1063.92        2962.00           1382        1369.00      5935.23
 1063.95        2962.25           1386        3070.00     13354.52
 1063.98        2962.50           1389        4561.00     19860.57
 1064.01        2962.75           1392        6029.00     26268.73
 1064.04        2963.00           1396        7929.00     34566.34
 1064.07        2963.25           1399        9502.00     41439.02
 1064.10        2963.50           1402       11077.00     48323.28
 1064.13        2963.75           1406       13419.00     58565.32
 1064.16        2964.00           1409       15082.00     65841.78
 1064.19        2964.25           1412       16720.00     73011.97
 1064.22        2964.50           1416       18808.00     82156.48
 1064.25        2964.75           1419       20370.00     89000.62
 1064.29        2965.00           1422       21855.00     95509.98
 1064.32        2965.25           1426       23944.00    104671.30
 1064.35        2965.50           1429       25496.00    111480.80
 1064.38        2965.75           1432       26960.00    117906.70
 1064.41        2966.00           1436       29028.00    126988.10
 1064.44        2966.25           1439       30457.00    133266.30
 1064.47        2966.50           1442       31815.00    139234.70
 1064.50        2966.75           1446       33083.00    144809.50
 1064.53        2967.00           1449       33267.00    145618.60
 1064.56        2967.25           1452       33433.00    146348.60
 1064.60        2967.50           1456       33377.00    146102.40
 1064.63        2967.75           1459       33370.00    146071.60
 1064.66        2968.00           1462       33164.00    145165.70
 1064.69        2968.25           1466       32031.00    140184.20
 1064.72        2968.50           1469       30718.00    134413.20
 1064.75        2968.75           1472       29266.00    128033.60
 1064.78        2969.00           1476       27231.00    119096.50
 1064.81        2969.25           1479       25754.00    112613.00
 1064.84        2969.50           1482       24110.00    105399.50
 1064.88        2969.75           1486       22171.00     96895.47
 1064.91        2970.00           1489       20426.00     89246.05
 1064.94        2970.25           1492       18965.00     82844.26
 1064.97        2970.50           1496       16895.00     73778.20
 1065.00        2970.75           1499       15394.00     67207.30
 1065.03        2971.00           1502       13881.00     60586.49
 1065.06        2971.25           1506       11905.00     51943.57
 1065.09        2971.50           1509       10294.00     44900.46
 1065.12        2971.75           1513        8371.00     36497.22
 1065.16        2972.00           1516        6854.00     29871.14
 1065.19        2972.25           1519        5234.00     22798.06
 1065.22        2972.50           1523        3235.00     14074.38
 1065.25        2972.75           1526        1763.00      7653.46
 1065.28        2973.00           1529         736.00      3175.11
 1065.31        2973.25           1533         406.00      1736.36
 1065.34        2973.50           1536         303.00      1287.32
 1065.37        2973.75           1539         263.00      1112.94
 1065.40        2974.00           1543         232.00       977.80
 1065.43        2974.25           1546         166.00       690.08
 1065.46        2974.50           1549         125.00       511.34
 1065.49        2974.75           1553          94.00       376.20
 1065.52        2975.00           1556          76.00       297.74
 1065.55        2975.25           1559          60.00       227.99
 1065.59        2975.50           1563          60.00       227.99
 1065.62        2975.75           1566          64.00       245.42
 1065.65        2976.00           1569          63.00       241.07
 1065.68        2976.25           1573          70.00       271.58
 1065.71        2976.50           1576          67.00       258.50
 1065.74        2976.75           1579          65.00       249.78
 1065.77        2977.00           1583          68.00       262.86
 1065.80        2977.25           1586          63.00       241.07
 1065.83        2977.50           1590          61.00       232.35
 1065.86        2977.75           1593          67.00       258.50
 1065.90        2978.00           1596          65.00       249.78
 1065.93        2978.25           1600          65.00       249.78
 1065.96        2978.50           1603          63.00       241.07
 1065.99        2978.75           1606          73.00       284.66
 1066.02        2979.00           1610          69.00       267.22
 1066.05        2979.25           1613          58.00       219.27
 1066.08        2979.50           1616          63.00       241.07
 1066.11        2979.75           1620          61.00       232.35
 1066.14        2980.00           1623          60.00       227.99
 1066.17        2980.25           1626          63.00       241.07
 1066.20        2980.50           1630          56.00       210.55
 1066.23        2980.75           1633          58.00       219.27
 1066.26        2981.00           1637          52.00       193.11
 1066.29        2981.25           1640          58.00       219.27
 1066.33        2981.50           1643          55.00       206.19
 1066.36        2981.75           1647          58.00       219.27
 1066.39        2982.00           1650          58.00       219.27
 1066.42        2982.25           1653          73.00       284.66
 1066.45        2982.50           1657          56.00       210.55
 1066.48        2982.75           1660          58.00       219.27
 1066.51        2983.00           1663          74.00       289.02
 1066.54        2983.25           1667          59.00       223.63
 1066.57        2983.50           1670          62.00       236.71
 1066.61        2983.75           1673          58.00       219.27
 1066.64        2984.00           1677          71.00       275.94
HS scan finished at 17:46:51
end
