************************************************************
  HS Scan of (1) Internal mercury lamp
************************************************************
Integration time is 0.2294 seconds per sample
dh311017Manchester 53.47 2.23 2.804185pr1000
************************************************************
Dead Time -------------------------  3E-08 
Number of Cycles Used -------------  4 
Starting Wavelength (Angstroms) ---  2950 
Final Wavelength (Angstoms) -------  2984 
Wavelength Increment (Angstroms) --  .25 
Filter Wheel #1 Position ---------- (1) Ground quartz diffuser (ND=2.32)
Filter Wheel #2 Position ---------- (1) Neutral Density 0.494



************************************************************
HS scan start time = 04:18:49
Dark Count =  5.1 


Time (GMT)  Wavelength (Ang)  Step Number  Raw Counts  Counts/Second

  259.19        2950.00           1222          59.00       234.96
  259.26        2950.25           1226          62.00       248.04
  259.29        2950.50           1229          79.00       322.15
  259.32        2950.75           1232          74.00       300.35
  259.35        2951.00           1236          70.00       282.91
  259.38        2951.25           1239          62.00       248.04
  259.42        2951.50           1242          68.00       274.20
  259.45        2951.75           1246          62.00       248.04
  259.48        2952.00           1249          66.00       265.48
  259.51        2952.25           1252          65.00       261.12
  259.54        2952.50           1256          71.00       287.27
  259.57        2952.75           1259          60.00       239.32
  259.60        2953.00           1262          63.00       252.40
  259.63        2953.25           1266          73.00       295.99
  259.66        2953.50           1269          65.00       261.12
  259.69        2953.75           1272          73.00       295.99
  259.72        2954.00           1276          67.00       269.84
  259.75        2954.25           1279          66.00       265.48
  259.78        2954.50           1282          70.00       282.91
  259.81        2954.75           1286          71.00       287.27
  259.85        2955.00           1289          75.00       304.71
  259.88        2955.25           1292          63.00       252.40
  259.91        2955.50           1296          71.00       287.27
  259.94        2955.75           1299          58.00       230.60
  259.97        2956.00           1302          65.00       261.12
  260.00        2956.25           1306          58.00       230.60
  260.03        2956.50           1309          59.00       234.96
  260.06        2956.75           1312          69.00       278.56
  260.09        2957.00           1316          67.00       269.84
  260.12        2957.25           1319          66.00       265.48
  260.15        2957.50           1322          64.00       256.76
  260.18        2957.75           1326          66.00       265.48
  260.21        2958.00           1329          65.00       261.12
  260.24        2958.25           1332          68.00       274.20
  260.27        2958.50           1336          63.00       252.40
  260.30        2958.75           1339          70.00       282.91
  260.33        2959.00           1342          69.00       278.56
  260.36        2959.25           1346          67.00       269.84
  260.40        2959.50           1349          72.00       291.63
  260.43        2959.75           1352          74.00       300.35
  260.46        2960.00           1356         103.00       426.77
  260.49        2960.25           1359         136.00       570.63
  260.52        2960.50           1362         159.00       670.89
  260.55        2960.75           1366         198.00       840.91
  260.58        2961.00           1369         245.00      1045.80
  260.61        2961.25           1372         305.00      1307.37
  260.64        2961.50           1376         377.00      1621.26
  260.67        2961.75           1379         447.00      1926.44
  260.70        2962.00           1382         793.00      3434.97
  260.73        2962.25           1386        2166.00      9422.46
  260.76        2962.50           1389        3542.00     15425.18
  260.79        2962.75           1392        5034.00     21936.40
  260.83        2963.00           1396        6958.00     30336.67
  260.86        2963.25           1399        8443.00     36823.14
  260.89        2963.50           1402        9981.00     43543.77
  260.92        2963.75           1406       12145.00     53004.45
  260.95        2964.00           1409       13847.00     60449.11
  260.98        2964.25           1412       15512.00     67735.15
  261.01        2964.50           1416       17894.00     78164.34
  261.04        2964.75           1419       19272.00     84200.66
  261.07        2965.00           1422       20954.00     91571.62
  261.11        2965.25           1426       22806.00     99691.35
  261.14        2965.50           1429       24439.00    106854.20
  261.17        2965.75           1432       26019.00    113787.50
  261.20        2966.00           1436       28233.00    123507.80
  261.23        2966.25           1439       29558.00    129327.80
  261.26        2966.50           1442       31012.00    135716.70
  261.29        2966.75           1446       32701.00    143141.30
  261.32        2967.00           1449       33470.00    146522.80
  261.35        2967.25           1452       33815.00    148040.10
  261.39        2967.50           1456       33759.00    147793.80
  261.42        2967.75           1459       33745.00    147732.20
  261.45        2968.00           1462       33667.00    147389.10
  261.48        2968.25           1466       33041.00    144636.30
  261.51        2968.50           1469       31905.00    139641.80
  261.54        2968.75           1472       30761.00    134613.60
  261.57        2969.00           1476       28853.00    126230.80
  261.60        2969.25           1479       27290.00    119367.00
  261.63        2969.50           1482       25722.00    112484.00
  261.66        2969.75           1486       23684.00    103542.20
  261.69        2970.00           1489       22131.00     96731.49
  261.72        2970.25           1492       20430.00     89274.97
  261.76        2970.50           1496       18434.00     80529.54
  261.79        2970.75           1499       16975.00     74139.88
  261.82        2971.00           1502       15267.00     66662.83
  261.85        2971.25           1506       13212.00     57671.19
  261.88        2971.50           1509       11536.00     50341.45
  261.91        2971.75           1513        9535.00     41594.60
  261.94        2972.00           1516        8145.00     35521.27
  261.97        2972.25           1519        6574.00     28659.77
  262.00        2972.50           1523        4637.00     20203.61
  262.03        2972.75           1526        3234.00     14081.36
  262.07        2973.00           1529        1790.00      7782.55
  262.10        2973.25           1533         634.00      2741.73
  262.13        2973.50           1536         379.00      1629.98
  262.16        2973.75           1539         309.00      1324.81
  262.19        2974.00           1543         278.00      1189.67
  262.22        2974.25           1546         220.00       936.82
  262.25        2974.50           1549         171.00       723.21
  262.28        2974.75           1553         123.00       513.96
  262.31        2975.00           1556          93.00       383.18
  262.34        2975.25           1559          74.00       300.35
  262.37        2975.50           1563          62.00       248.04
  262.41        2975.75           1566          62.00       248.04
  262.44        2976.00           1569          66.00       265.48
  262.47        2976.25           1573          63.00       252.40
  262.50        2976.50           1576          66.00       265.48
  262.53        2976.75           1579          69.00       278.56
  262.56        2977.00           1583          67.00       269.84
  262.59        2977.25           1586          65.00       261.12
  262.62        2977.50           1590          57.00       226.24
  262.65        2977.75           1593          65.00       261.12
  262.68        2978.00           1596          62.00       248.04
  262.71        2978.25           1600          72.00       291.63
  262.74        2978.50           1603          58.00       230.60
  262.77        2978.75           1606          65.00       261.12
  262.80        2979.00           1610          70.00       282.91
  262.83        2979.25           1613          54.00       213.17
  262.87        2979.50           1616          58.00       230.60
  262.90        2979.75           1620          54.00       213.17
  262.93        2980.00           1623          65.00       261.12
  262.96        2980.25           1626          71.00       287.27
  262.99        2980.50           1630          58.00       230.60
  263.02        2980.75           1633          65.00       261.12
  263.05        2981.00           1637          64.00       256.76
  263.08        2981.25           1640          64.00       256.76
  263.11        2981.50           1643          64.00       256.76
  263.14        2981.75           1647          57.00       226.24
  263.18        2982.00           1650          57.00       226.24
  263.21        2982.25           1653          59.00       234.96
  263.24        2982.50           1657          70.00       282.91
  263.27        2982.75           1660          64.00       256.76
  263.30        2983.00           1663          64.00       256.76
  263.33        2983.25           1667          64.00       256.76
  263.36        2983.50           1670          60.00       239.32
  263.39        2983.75           1673          63.00       252.40
  263.42        2984.00           1677          63.00       252.40
HS scan finished at 04:23:38
end
************************************************************
  HS Scan of (1) Internal mercury lamp
************************************************************
Integration time is 0.2294 seconds per sample
dh311017Manchester 53.47 2.23 2.804185pr1000
************************************************************
Dead Time -------------------------  3E-08 
Number of Cycles Used -------------  4 
Starting Wavelength (Angstroms) ---  2950 
Final Wavelength (Angstoms) -------  2984 
Wavelength Increment (Angstroms) --  .25 
Filter Wheel #1 Position ---------- (1) Ground quartz diffuser (ND=2.32)
Filter Wheel #2 Position ---------- (1) Neutral Density 0.494



************************************************************
HS scan start time = 17:42:03
Dark Count =  6.7 


Time (GMT)  Wavelength (Ang)  Step Number  Raw Counts  Counts/Second

 1062.42        2950.00           1222          74.00       293.38
 1062.49        2950.25           1226          74.00       293.38
 1062.52        2950.50           1229          63.00       245.42
 1062.55        2950.75           1232          60.00       232.35
 1062.58        2951.00           1236          72.00       284.66
 1062.61        2951.25           1239          66.00       258.50
 1062.64        2951.50           1242          74.00       293.38
 1062.67        2951.75           1246          62.00       241.07
 1062.70        2952.00           1249          70.00       275.94
 1062.73        2952.25           1252          66.00       258.50
 1062.77        2952.50           1256          65.00       254.14
 1062.80        2952.75           1259          66.00       258.50
 1062.83        2953.00           1262          62.00       241.07
 1062.86        2953.25           1266          76.00       302.10
 1062.89        2953.50           1269          70.00       275.94
 1062.92        2953.75           1272          68.00       267.22
 1062.95        2954.00           1276          58.00       223.63
 1062.98        2954.25           1279          60.00       232.35
 1063.01        2954.50           1282          62.00       241.07
 1063.04        2954.75           1286          62.00       241.07
 1063.07        2955.00           1289          66.00       258.50
 1063.10        2955.25           1292          65.00       254.14
 1063.13        2955.50           1296          66.00       258.50
 1063.17        2955.75           1299          69.00       271.58
 1063.20        2956.00           1302          73.00       289.02
 1063.23        2956.25           1306          60.00       232.35
 1063.26        2956.50           1309          63.00       245.42
 1063.29        2956.75           1312          66.00       258.50
 1063.32        2957.00           1316          76.00       302.10
 1063.35        2957.25           1319          67.00       262.86
 1063.38        2957.50           1322          67.00       262.86
 1063.41        2957.75           1326          64.00       249.78
 1063.44        2958.00           1329          75.00       297.74
 1063.47        2958.25           1332          67.00       262.86
 1063.50        2958.50           1336          73.00       289.02
 1063.54        2958.75           1339          66.00       258.50
 1063.57        2959.00           1342          72.00       284.66
 1063.60        2959.25           1346          73.00       289.02
 1063.63        2959.50           1349          73.00       289.02
 1063.66        2959.75           1352          83.00       332.61
 1063.69        2960.00           1356         107.00       437.23
 1063.72        2960.25           1359         148.00       615.97
 1063.75        2960.50           1362         182.00       764.18
 1063.78        2960.75           1366         242.00      1025.75
 1063.81        2961.00           1369         270.00      1147.82
 1063.84        2961.25           1372         314.00      1339.64
 1063.87        2961.50           1376         429.00      1840.99
 1063.90        2961.75           1379         717.00      3096.63
 1063.94        2962.00           1382        1624.00      7051.62
 1063.97        2962.25           1386        3395.00     14776.82
 1064.00        2962.50           1389        4891.00     21305.24
 1064.03        2962.75           1392        6392.00     27858.06
 1064.06        2963.00           1396        8331.00     36326.84
 1064.09        2963.25           1399        9804.00     42763.20
 1064.12        2963.50           1402       11370.00     49608.65
 1064.15        2963.75           1406       13528.00     59046.53
 1064.18        2964.00           1409       15008.00     65522.30
 1064.22        2964.25           1412       16612.00     72543.50
 1064.25        2964.50           1416       18951.00     82787.32
 1064.28        2964.75           1419       20524.00     89679.92
 1064.31        2965.00           1422       22223.00     97127.87
 1064.34        2965.25           1426       24066.00    105210.80
 1064.37        2965.50           1429       25688.00    112327.80
 1064.40        2965.75           1432       27032.00    118227.20
 1064.43        2966.00           1436       29290.00    128143.40
 1064.46        2966.25           1439       30604.00    133916.60
 1064.50        2966.50           1442       31901.00    139617.10
 1064.53        2966.75           1446       33340.00    145944.10
 1064.56        2967.00           1449       33427.00    146326.60
 1064.59        2967.25           1452       33351.00    145992.40
 1064.62        2967.50           1456       33380.00    146120.00
 1064.65        2967.75           1459       33356.00    146014.40
 1064.68        2968.00           1462       32995.00    144427.00
 1064.71        2968.25           1466       31791.00    139133.60
 1064.74        2968.50           1469       30459.00    133279.50
 1064.78        2968.75           1472       29166.00    127598.70
 1064.81        2969.00           1476       27290.00    119360.00
 1064.84        2969.25           1479       25735.00    112534.00
 1064.87        2969.50           1482       24230.00    105930.30
 1064.90        2969.75           1486       22138.00     96755.16
 1064.93        2970.00           1489       20439.00     89307.40
 1064.96        2970.25           1492       19011.00     83050.16
 1064.99        2970.50           1496       16812.00     73419.16
 1065.02        2970.75           1499       15369.00     67102.25
 1065.05        2971.00           1502       13697.00     59785.86
 1065.09        2971.25           1506       11758.00     51305.15
 1065.12        2971.50           1509       10062.00     43890.80
 1065.15        2971.75           1513        7997.00     34867.76
 1065.18        2972.00           1516        6519.00     28412.61
 1065.21        2972.25           1519        5002.00     21789.74
 1065.24        2972.50           1523        3136.00     13646.82
 1065.27        2972.75           1526        1796.00      7801.74
 1065.30        2973.00           1529         763.00      3297.19
 1065.33        2973.25           1533         407.00      1745.08
 1065.37        2973.50           1536         328.00      1400.67
 1065.40        2973.75           1539         271.00      1152.18
 1065.43        2974.00           1543         228.00       964.72
 1065.46        2974.25           1546         171.00       716.23
 1065.49        2974.50           1549         135.00       559.29
 1065.52        2974.75           1553         105.00       428.51
 1065.55        2975.00           1556          77.00       306.45
 1065.58        2975.25           1559          65.00       254.14
 1065.61        2975.50           1563          64.00       249.78
 1065.64        2975.75           1566          63.00       245.42
 1065.67        2976.00           1569          63.00       245.42
 1065.70        2976.25           1573          62.00       241.07
 1065.73        2976.50           1576          63.00       245.42
 1065.77        2976.75           1579          62.00       241.07
 1065.80        2977.00           1583          68.00       267.22
 1065.83        2977.25           1586          67.00       262.86
 1065.86        2977.50           1590          64.00       249.78
 1065.89        2977.75           1593          66.00       258.50
 1065.92        2978.00           1596          61.00       236.71
 1065.95        2978.25           1600          58.00       223.63
 1065.98        2978.50           1603          61.00       236.71
 1066.01        2978.75           1606          61.00       236.71
 1066.04        2979.00           1610          62.00       241.07
 1066.07        2979.25           1613          71.00       280.30
 1066.10        2979.50           1616          61.00       236.71
 1066.14        2979.75           1620          66.00       258.50
 1066.17        2980.00           1623          66.00       258.50
 1066.20        2980.25           1626          60.00       232.35
 1066.23        2980.50           1630          56.00       214.91
 1066.26        2980.75           1633          60.00       232.35
 1066.29        2981.00           1637          58.00       223.63
 1066.32        2981.25           1640          52.00       197.47
 1066.35        2981.50           1643          61.00       236.71
 1066.38        2981.75           1647          73.00       289.02
 1066.41        2982.00           1650          55.00       210.55
 1066.44        2982.25           1653          60.00       232.35
 1066.47        2982.50           1657          55.00       210.55
 1066.50        2982.75           1660          67.00       262.86
 1066.53        2983.00           1663          59.00       227.99
 1066.56        2983.25           1667          61.00       236.71
 1066.59        2983.50           1670          58.00       223.63
 1066.63        2983.75           1673          60.00       232.35
 1066.66        2984.00           1677          60.00       232.35
HS scan finished at 17:46:52
end
