************************************************************
  HS Scan of (1) Internal mercury lamp
************************************************************
Integration time is 0.2294 seconds per sample
dh281017Manchester 53.47 2.23 2.804185pr1000
************************************************************
Dead Time -------------------------  3E-08 
Number of Cycles Used -------------  4 
Starting Wavelength (Angstroms) ---  2950 
Final Wavelength (Angstoms) -------  2984 
Wavelength Increment (Angstroms) --  .25 
Filter Wheel #1 Position ---------- (1) Ground quartz diffuser (ND=2.32)
Filter Wheel #2 Position ---------- (1) Neutral Density 0.494



************************************************************
HS scan start time = 04:13:20
Dark Count =  7.5 


Time (GMT)  Wavelength (Ang)  Step Number  Raw Counts  Counts/Second

  253.71        2950.00           1222          68.00       263.73
  253.77        2950.25           1226          67.00       259.37
  253.80        2950.50           1229          65.00       250.66
  253.83        2950.75           1232          70.00       272.45
  253.87        2951.00           1236          70.00       272.45
  253.90        2951.25           1239          73.00       285.53
  253.93        2951.50           1242          69.00       268.09
  253.96        2951.75           1246          67.00       259.37
  253.99        2952.00           1249          68.00       263.73
  254.02        2952.25           1252          83.00       329.12
  254.05        2952.50           1256          65.00       250.66
  254.08        2952.75           1259          73.00       285.53
  254.11        2953.00           1262          69.00       268.09
  254.14        2953.25           1266          75.00       294.25
  254.17        2953.50           1269          68.00       263.73
  254.20        2953.75           1272          73.00       285.53
  254.23        2954.00           1276          72.00       281.17
  254.27        2954.25           1279          70.00       272.45
  254.30        2954.50           1282          70.00       272.45
  254.33        2954.75           1286          70.00       272.45
  254.36        2955.00           1289          66.00       255.02
  254.39        2955.25           1292          70.00       272.45
  254.42        2955.50           1296          66.00       255.02
  254.45        2955.75           1299          61.00       233.22
  254.48        2956.00           1302          67.00       259.37
  254.51        2956.25           1306          69.00       268.09
  254.54        2956.50           1309          66.00       255.02
  254.57        2956.75           1312          62.00       237.58
  254.60        2957.00           1316          68.00       263.73
  254.63        2957.25           1319          66.00       255.02
  254.67        2957.50           1322          70.00       272.45
  254.70        2957.75           1326          72.00       281.17
  254.73        2958.00           1329          71.00       276.81
  254.76        2958.25           1332          76.00       298.61
  254.79        2958.50           1336          73.00       285.53
  254.82        2958.75           1339          71.00       276.81
  254.85        2959.00           1342          64.00       246.30
  254.88        2959.25           1346          75.00       294.25
  254.91        2959.50           1349          72.00       281.17
  254.94        2959.75           1352          90.00       359.64
  254.98        2960.00           1356         122.00       499.14
  255.01        2960.25           1359         153.00       634.28
  255.04        2960.50           1362         189.00       791.21
  255.07        2960.75           1366         238.00      1004.83
  255.10        2961.00           1369         279.00      1183.56
  255.13        2961.25           1372         324.00      1379.74
  255.16        2961.50           1376         395.00      1689.27
  255.19        2961.75           1379         477.00      2046.77
  255.22        2962.00           1382         808.00      3489.90
  255.25        2962.25           1386        2253.00      9791.45
  255.28        2962.50           1389        3626.00     15781.23
  255.32        2962.75           1392        5157.00     22462.82
  255.35        2963.00           1396        7273.00     31701.89
  255.38        2963.25           1399        8847.00     38577.76
  255.41        2963.50           1402       10330.00     45058.69
  255.44        2963.75           1406       12447.00     54314.67
  255.47        2964.00           1409       14112.00     61598.03
  255.50        2964.25           1412       15490.00     67628.35
  255.53        2964.50           1416       18001.00     78622.46
  255.56        2964.75           1419       19302.00     84321.58
  255.59        2965.00           1422       20631.00     90145.38
  255.63        2965.25           1426       22877.00     99992.19
  255.66        2965.50           1429       24463.00    106949.00
  255.69        2965.75           1432       26123.00    114233.40
  255.72        2966.00           1436       28255.00    123593.90
  255.75        2966.25           1439       29784.00    130310.10
  255.78        2966.50           1442       31272.00    136848.80
  255.81        2966.75           1446       32897.00    143992.50
  255.84        2967.00           1449       33474.00    146529.80
  255.87        2967.25           1452       33619.00    147167.50
  255.90        2967.50           1456       33578.00    146987.20
  255.93        2967.75           1459       33552.00    146872.90
  255.97        2968.00           1462       33417.00    146279.10
  256.00        2968.25           1466       32911.00    144054.10
  256.03        2968.50           1469       31711.00    138778.40
  256.06        2968.75           1472       30293.00    132546.50
  256.09        2969.00           1476       28000.00    122474.00
  256.12        2969.25           1479       26832.00    117345.70
  256.15        2969.50           1482       24973.00    109186.60
  256.18        2969.75           1486       22894.00    100066.70
  256.22        2970.00           1489       21332.00     93218.05
  256.25        2970.25           1492       19829.00     86630.71
  256.28        2970.50           1496       17852.00     77969.88
  256.31        2970.75           1499       16338.00     71340.41
  256.34        2971.00           1502       15007.00     65514.42
  256.37        2971.25           1506       12912.00     56348.45
  256.40        2971.50           1509       11241.00     49041.15
  256.43        2971.75           1513        9226.00     40233.80
  256.46        2972.00           1516        7682.00     33488.29
  256.49        2972.25           1519        5969.00     26007.65
  256.52        2972.50           1523        4013.00     17469.92
  256.55        2972.75           1526        2596.00     11287.61
  256.58        2973.00           1529        1271.00      5508.76
  256.62        2973.25           1533         508.00      2181.92
  256.65        2973.50           1536         333.00      1418.98
  256.68        2973.75           1539         274.00      1161.77
  256.71        2974.00           1543         236.00       996.11
  256.74        2974.25           1546         178.00       743.26
  256.77        2974.50           1549         132.00       542.73
  256.80        2974.75           1553         101.00       407.59
  256.83        2975.00           1556          79.00       311.69
  256.86        2975.25           1559          75.00       294.25
  256.90        2975.50           1563          59.00       224.50
  256.93        2975.75           1566          68.00       263.73
  256.96        2976.00           1569          64.00       246.30
  256.99        2976.25           1573          65.00       250.66
  257.02        2976.50           1576          64.00       246.30
  257.05        2976.75           1579          70.00       272.45
  257.08        2977.00           1583          64.00       246.30
  257.11        2977.25           1586          57.00       215.78
  257.14        2977.50           1590          65.00       250.66
  257.17        2977.75           1593          62.00       237.58
  257.20        2978.00           1596          65.00       250.66
  257.24        2978.25           1600          68.00       263.73
  257.27        2978.50           1603          64.00       246.30
  257.30        2978.75           1606          62.00       237.58
  257.33        2979.00           1610          66.00       255.02
  257.36        2979.25           1613          56.00       211.42
  257.39        2979.50           1616          61.00       233.22
  257.42        2979.75           1620          59.00       224.50
  257.45        2980.00           1623          61.00       233.22
  257.48        2980.25           1626          60.00       228.86
  257.51        2980.50           1630          57.00       215.78
  257.54        2980.75           1633          66.00       255.02
  257.57        2981.00           1637          63.00       241.94
  257.60        2981.25           1640          58.00       220.14
  257.64        2981.50           1643          56.00       211.42
  257.67        2981.75           1647          58.00       220.14
  257.70        2982.00           1650          63.00       241.94
  257.73        2982.25           1653          55.00       207.06
  257.76        2982.50           1657          63.00       241.94
  257.79        2982.75           1660          65.00       250.66
  257.82        2983.00           1663          63.00       241.94
  257.85        2983.25           1667          60.00       228.86
  257.88        2983.50           1670          65.00       250.66
  257.91        2983.75           1673          65.00       250.66
  257.94        2984.00           1677          58.00       220.14
HS scan finished at 04:18:10
end
************************************************************
  HS Scan of (1) Internal mercury lamp
************************************************************
Integration time is 0.2294 seconds per sample
dh281017Manchester 53.47 2.23 2.804185pr1000
************************************************************
Dead Time -------------------------  3E-08 
Number of Cycles Used -------------  4 
Starting Wavelength (Angstroms) ---  2950 
Final Wavelength (Angstoms) -------  2984 
Wavelength Increment (Angstroms) --  .25 
Filter Wheel #1 Position ---------- (1) Ground quartz diffuser (ND=2.32)
Filter Wheel #2 Position ---------- (1) Neutral Density 0.494



************************************************************
HS scan start time = 17:42:01
Dark Count =  5.2 


Time (GMT)  Wavelength (Ang)  Step Number  Raw Counts  Counts/Second

 1062.39        2950.00           1222          62.00       247.60
 1062.45        2950.25           1226          67.00       269.40
 1062.48        2950.50           1229          66.00       265.04
 1062.51        2950.75           1232          74.00       299.92
 1062.55        2951.00           1236          66.00       265.04
 1062.58        2951.25           1239          74.00       299.92
 1062.61        2951.50           1242          69.00       278.12
 1062.64        2951.75           1246          66.00       265.04
 1062.67        2952.00           1249          64.00       256.32
 1062.70        2952.25           1252          66.00       265.04
 1062.73        2952.50           1256          81.00       330.43
 1062.76        2952.75           1259          77.00       312.99
 1062.79        2953.00           1262          71.00       286.84
 1062.82        2953.25           1266          62.00       247.60
 1062.85        2953.50           1269          66.00       265.04
 1062.88        2953.75           1272          63.00       251.96
 1062.91        2954.00           1276          66.00       265.04
 1062.94        2954.25           1279          70.00       282.48
 1062.98        2954.50           1282          73.00       295.56
 1063.01        2954.75           1286          66.00       265.04
 1063.04        2955.00           1289          71.00       286.84
 1063.07        2955.25           1292          68.00       273.76
 1063.10        2955.50           1296          67.00       269.40
 1063.13        2955.75           1299          72.00       291.20
 1063.16        2956.00           1302          76.00       308.63
 1063.19        2956.25           1306          69.00       278.12
 1063.22        2956.50           1309          71.00       286.84
 1063.25        2956.75           1312          73.00       295.56
 1063.28        2957.00           1316          68.00       273.76
 1063.31        2957.25           1319          69.00       278.12
 1063.35        2957.50           1322          60.00       238.89
 1063.38        2957.75           1326          71.00       286.84
 1063.41        2958.00           1329          62.00       247.60
 1063.44        2958.25           1332          62.00       247.60
 1063.47        2958.50           1336          70.00       282.48
 1063.50        2958.75           1339          62.00       247.60
 1063.53        2959.00           1342          68.00       273.76
 1063.56        2959.25           1346          74.00       299.92
 1063.59        2959.50           1349          80.00       326.07
 1063.62        2959.75           1352          90.00       369.66
 1063.65        2960.00           1356         117.00       487.37
 1063.68        2960.25           1359         157.00       661.74
 1063.71        2960.50           1362         195.00       827.40
 1063.75        2960.75           1366         238.00      1014.85
 1063.78        2961.00           1369         300.00      1285.14
 1063.81        2961.25           1372         322.00      1381.05
 1063.84        2961.50           1376         386.00      1660.07
 1063.87        2961.75           1379         571.00      2466.62
 1063.90        2962.00           1382        1272.00      5523.15
 1063.93        2962.25           1386        2897.00     12610.70
 1063.96        2962.50           1389        4410.00     19212.47
 1063.99        2962.75           1392        5906.00     25742.63
 1064.03        2963.00           1396        7850.00     34232.17
 1064.06        2963.25           1399        9389.00     40956.13
 1064.09        2963.50           1402       11107.00     48465.37
 1064.12        2963.75           1406       13157.00     57430.16
 1064.15        2964.00           1409       14777.00     64517.96
 1064.18        2964.25           1412       16306.00     71210.38
 1064.21        2964.50           1416       18398.00     80371.41
 1064.24        2964.75           1419       20171.00     88139.46
 1064.27        2965.00           1422       21682.00     94762.49
 1064.30        2965.25           1426       23780.00    103962.80
 1064.33        2965.50           1429       25161.00    110021.70
 1064.36        2965.75           1432       26623.00    116438.30
 1064.40        2966.00           1436       28785.00    125931.70
 1064.43        2966.25           1439       30206.00    132174.30
 1064.46        2966.50           1442       31472.00    137738.00
 1064.49        2966.75           1446       33092.00    144860.10
 1064.52        2967.00           1449       33504.00    146671.90
 1064.55        2967.25           1452       33521.00    146746.60
 1064.58        2967.50           1456       33433.00    146359.60
 1064.61        2967.75           1459       33373.00    146095.80
 1064.64        2968.00           1462       33173.00    145216.30
 1064.68        2968.25           1466       32229.00    141065.70
 1064.71        2968.50           1469       30488.00    133413.50
 1064.74        2968.75           1472       29365.00    128479.40
 1064.77        2969.00           1476       27421.00    119941.70
 1064.80        2969.25           1479       25958.00    113519.40
 1064.83        2969.50           1482       24374.00    106568.60
 1064.86        2969.75           1486       22468.00     98208.71
 1064.89        2970.00           1489       20868.00     91194.22
 1064.92        2970.25           1492       19182.00     83805.91
 1064.95        2970.50           1496       17133.00     74831.28
 1064.99        2970.75           1499       15545.00     67879.15
 1065.02        2971.00           1502       13945.00     60877.43
 1065.05        2971.25           1506       11862.00     51766.47
 1065.08        2971.50           1509       10398.00     45365.97
 1065.11        2971.75           1513        8536.00     37229.00
 1065.14        2972.00           1516        7032.00     30659.40
 1065.17        2972.25           1519        5400.00     23533.61
 1065.20        2972.50           1523        3463.00     15080.06
 1065.23        2972.75           1526        1985.00      8632.58
 1065.26        2973.00           1529         875.00      3792.06
 1065.29        2973.25           1533         437.00      1882.41
 1065.32        2973.50           1536         310.00      1328.74
 1065.35        2973.75           1539         275.00      1176.15
 1065.39        2974.00           1543         219.00       932.02
 1065.42        2974.25           1546         184.00       779.44
 1065.45        2974.50           1549         148.00       622.51
 1065.48        2974.75           1553         105.00       435.05
 1065.51        2975.00           1556          87.00       356.59
 1065.54        2975.25           1559          69.00       278.12
 1065.57        2975.50           1563          65.00       260.68
 1065.60        2975.75           1566          62.00       247.60
 1065.63        2976.00           1569          64.00       256.32
 1065.66        2976.25           1573          61.00       243.25
 1065.69        2976.50           1576          59.00       234.53
 1065.72        2976.75           1579          65.00       260.68
 1065.75        2977.00           1583          53.00       208.37
 1065.78        2977.25           1586          68.00       273.76
 1065.81        2977.50           1590          73.00       295.56
 1065.84        2977.75           1593          60.00       238.89
 1065.88        2978.00           1596          61.00       243.25
 1065.91        2978.25           1600          63.00       251.96
 1065.94        2978.50           1603          62.00       247.60
 1065.97        2978.75           1606          68.00       273.76
 1066.00        2979.00           1610          58.00       230.17
 1066.03        2979.25           1613          60.00       238.89
 1066.06        2979.50           1616          59.00       234.53
 1066.09        2979.75           1620          62.00       247.60
 1066.12        2980.00           1623          62.00       247.60
 1066.15        2980.25           1626          61.00       243.25
 1066.18        2980.50           1630          60.00       238.89
 1066.22        2980.75           1633          61.00       243.25
 1066.26        2981.00           1637          68.00       273.76
 1066.29        2981.25           1640          63.00       251.96
 1066.32        2981.50           1643          72.00       291.20
 1066.35        2981.75           1647          60.00       238.89
 1066.38        2982.00           1650          61.00       243.25
 1066.41        2982.25           1653          70.00       282.48
 1066.44        2982.50           1657          70.00       282.48
 1066.47        2982.75           1660          70.00       282.48
 1066.51        2983.00           1663          63.00       251.96
 1066.54        2983.25           1667          59.00       234.53
 1066.57        2983.50           1670          57.00       225.81
 1066.60        2983.75           1673          65.00       260.68
 1066.63        2984.00           1677          61.00       243.25
HS scan finished at 17:46:51
end
