************************************************************
  HS Scan of (1) Internal mercury lamp
************************************************************
Integration time is 0.2294 seconds per sample
dh031118Manchester 53.47 2.23 2.804185pr1000
************************************************************
Dead Time -------------------------  3E-08 
Number of Cycles Used -------------  4 
Starting Wavelength (Angstroms) ---  2950 
Final Wavelength (Angstoms) -------  2984 
Wavelength Increment (Angstroms) --  .25 
Filter Wheel #1 Position ---------- (1) Ground quartz diffuser (ND=2.32)
Filter Wheel #2 Position ---------- (1) Neutral Density 0.494



************************************************************
HS scan start time = 04:23:48
Dark Count =  7.3 


Time (GMT)  Wavelength (Ang)  Step Number  Raw Counts  Counts/Second

  264.16        2950.00           1222          46.00       168.70
  264.23        2950.25           1226          47.00       173.06
  264.26        2950.50           1229          50.00       186.14
  264.29        2950.75           1232          44.00       159.98
  264.32        2951.00           1236          57.00       216.65
  264.35        2951.25           1239          50.00       186.14
  264.39        2951.50           1242          62.00       238.45
  264.42        2951.75           1246          51.00       190.50
  264.45        2952.00           1249          46.00       168.70
  264.48        2952.25           1252          49.00       181.78
  264.51        2952.50           1256          42.00       151.26
  264.54        2952.75           1259          52.00       194.86
  264.57        2953.00           1262          57.00       216.65
  264.60        2953.25           1266          56.00       212.29
  264.63        2953.50           1269          47.00       173.06
  264.66        2953.75           1272          48.00       177.42
  264.69        2954.00           1276          48.00       177.42
  264.73        2954.25           1279          46.00       168.70
  264.76        2954.50           1282          45.00       164.34
  264.79        2954.75           1286          52.00       194.86
  264.82        2955.00           1289          46.00       168.70
  264.85        2955.25           1292          48.00       177.42
  264.88        2955.50           1296          51.00       190.50
  264.91        2955.75           1299          42.00       151.26
  264.94        2956.00           1302          49.00       181.78
  264.97        2956.25           1306          49.00       181.78
  265.00        2956.50           1309          51.00       190.50
  265.03        2956.75           1312          47.00       173.06
  265.06        2957.00           1316          46.00       168.70
  265.10        2957.25           1319          57.00       216.65
  265.13        2957.50           1322          54.00       203.58
  265.16        2957.75           1326          47.00       173.06
  265.19        2958.00           1329          45.00       164.34
  265.22        2958.25           1332          54.00       203.58
  265.25        2958.50           1336          49.00       181.78
  265.28        2958.75           1339          47.00       173.06
  265.31        2959.00           1342          51.00       190.50
  265.34        2959.25           1346          41.00       146.91
  265.37        2959.50           1349          54.00       203.58
  265.40        2959.75           1352          63.00       242.81
  265.44        2960.00           1356          84.00       334.35
  265.47        2960.25           1359          95.00       382.31
  265.50        2960.50           1362         120.00       491.29
  265.53        2960.75           1366         158.00       656.94
  265.56        2961.00           1369         199.00       835.68
  265.59        2961.25           1372         200.00       840.04
  265.62        2961.50           1376         255.00      1079.81
  265.65        2961.75           1379         317.00      1350.10
  265.68        2962.00           1382         465.00      1995.32
  265.71        2962.25           1386        1415.00      6137.57
  265.74        2962.50           1389        2451.00     10655.98
  265.78        2962.75           1392        3464.00     15075.26
  265.81        2963.00           1396        4950.00     21560.15
  265.84        2963.25           1399        6121.00     26672.17
  265.87        2963.50           1402        7262.00     31654.72
  265.90        2963.75           1406        8789.00     38325.21
  265.93        2964.00           1409       10005.00     43639.05
  265.96        2964.25           1412       11151.00     48648.55
  265.99        2964.50           1416       12784.00     55789.47
  266.02        2964.75           1419       13798.00     60225.11
  266.05        2965.00           1422       14930.00     65178.33
  266.09        2965.25           1426       16563.00     72326.33
  266.12        2965.50           1429       17660.00     77129.88
  266.15        2965.75           1432       18787.00     82066.23
  266.18        2966.00           1436       20295.00     88673.68
  266.21        2966.25           1439       21430.00     93648.52
  266.24        2966.50           1442       22272.00     97340.07
  266.27        2966.75           1446       23734.00    103751.80
  266.30        2967.00           1449       24551.00    107335.90
  266.33        2967.25           1452       24637.00    107713.20
  266.36        2967.50           1456       24669.00    107853.60
  266.39        2967.75           1459       24721.00    108081.80
  266.42        2968.00           1462       24623.00    107651.80
  266.45        2968.25           1466       24245.00    105993.40
  266.49        2968.50           1469       23537.00    102887.70
  266.52        2968.75           1472       22647.00     98984.43
  266.55        2969.00           1476       21198.00     92631.52
  266.58        2969.25           1479       19970.00     87249.44
  266.61        2969.50           1482       18930.00     82692.69
  266.64        2969.75           1486       17441.00     76170.81
  266.67        2970.00           1489       16287.00     71118.02
  266.70        2970.25           1492       15227.00     66478.13
  266.73        2970.50           1496       13812.00     60286.36
  266.76        2970.75           1499       12516.00     54617.32
  266.80        2971.00           1502       11397.00     49724.08
  266.83        2971.25           1506        9790.00     42699.39
  266.86        2971.50           1509        8606.00     37525.66
  266.89        2971.75           1513        7037.00     30672.07
  266.92        2972.00           1516        6056.00     26388.36
  266.95        2972.25           1519        4921.00     21433.57
  266.98        2972.50           1523        3440.00     14970.54
  267.01        2972.75           1526        2407.00     10464.05
  267.04        2973.00           1529        1333.00      5779.99
  267.08        2973.25           1533         500.00      2147.92
  267.11        2973.50           1536         291.00      1236.75
  267.14        2973.75           1539         223.00       940.31
  267.17        2974.00           1543         199.00       835.68
  267.20        2974.25           1546         163.00       678.74
  267.23        2974.50           1549         128.00       526.16
  267.26        2974.75           1553          94.00       377.95
  267.29        2975.00           1556          68.00       264.61
  267.32        2975.25           1559          62.00       238.45
  267.35        2975.50           1563          51.00       190.50
  267.39        2975.75           1566          49.00       181.78
  267.42        2976.00           1569          46.00       168.70
  267.45        2976.25           1573          47.00       173.06
  267.48        2976.50           1576          48.00       177.42
  267.51        2976.75           1579          45.00       164.34
  267.54        2977.00           1583          48.00       177.42
  267.57        2977.25           1586          43.00       155.62
  267.60        2977.50           1590          44.00       159.98
  267.63        2977.75           1593          46.00       168.70
  267.66        2978.00           1596          43.00       155.62
  267.69        2978.25           1600          46.00       168.70
  267.72        2978.50           1603          44.00       159.98
  267.75        2978.75           1606          45.00       164.34
  267.79        2979.00           1610          41.00       146.91
  267.82        2979.25           1613          51.00       190.50
  267.85        2979.50           1616          50.00       186.14
  267.88        2979.75           1620          55.00       207.94
  267.91        2980.00           1623          43.00       155.62
  267.94        2980.25           1626          39.00       138.19
  267.97        2980.50           1630          48.00       177.42
  268.00        2980.75           1633          57.00       216.65
  268.03        2981.00           1637          43.00       155.62
  268.06        2981.25           1640          46.00       168.70
  268.09        2981.50           1643          42.00       151.26
  268.13        2981.75           1647          42.00       151.26
  268.16        2982.00           1650          43.00       155.62
  268.19        2982.25           1653          42.00       151.26
  268.22        2982.50           1657          52.00       194.86
  268.25        2982.75           1660          45.00       164.34
  268.28        2983.00           1663          47.00       173.06
  268.31        2983.25           1667          54.00       203.58
  268.34        2983.50           1670          49.00       181.78
  268.37        2983.75           1673          40.00       142.55
  268.40        2984.00           1677          46.00       168.70
HS scan finished at 04:28:37
end
************************************************************
  HS Scan of (1) Internal mercury lamp
************************************************************
Integration time is 0.2294 seconds per sample
dh031118Manchester 53.47 2.23 2.804185pr1000
************************************************************
Dead Time -------------------------  3E-08 
Number of Cycles Used -------------  4 
Starting Wavelength (Angstroms) ---  2950 
Final Wavelength (Angstoms) -------  2984 
Wavelength Increment (Angstroms) --  .25 
Filter Wheel #1 Position ---------- (1) Ground quartz diffuser (ND=2.32)
Filter Wheel #2 Position ---------- (1) Neutral Density 0.494



************************************************************
HS scan start time = 17:42:02
Dark Count =  5 


Time (GMT)  Wavelength (Ang)  Step Number  Raw Counts  Counts/Second

 1062.40        2950.00           1222          49.00       191.81
 1062.46        2950.25           1226          49.00       191.81
 1062.49        2950.50           1229          51.00       200.52
 1062.53        2950.75           1232          47.00       183.09
 1062.56        2951.00           1236          51.00       200.52
 1062.59        2951.25           1239          48.00       187.45
 1062.62        2951.50           1242          41.00       156.93
 1062.65        2951.75           1246          50.00       196.17
 1062.68        2952.00           1249          56.00       222.32
 1062.71        2952.25           1252          52.00       204.88
 1062.74        2952.50           1256          49.00       191.81
 1062.77        2952.75           1259          54.00       213.60
 1062.80        2953.00           1262          49.00       191.81
 1062.83        2953.25           1266          49.00       191.81
 1062.87        2953.50           1269          51.00       200.52
 1062.90        2953.75           1272          47.00       183.09
 1062.93        2954.00           1276          52.00       204.88
 1062.96        2954.25           1279          46.00       178.73
 1062.99        2954.50           1282          56.00       222.32
 1063.02        2954.75           1286          40.00       152.57
 1063.05        2955.00           1289          49.00       191.81
 1063.08        2955.25           1292          53.00       209.24
 1063.11        2955.50           1296          54.00       213.60
 1063.14        2955.75           1299          52.00       204.88
 1063.17        2956.00           1302          50.00       196.17
 1063.21        2956.25           1306          46.00       178.73
 1063.24        2956.50           1309          53.00       209.24
 1063.27        2956.75           1312          49.00       191.81
 1063.30        2957.00           1316          56.00       222.32
 1063.33        2957.25           1319          48.00       187.45
 1063.36        2957.50           1322          50.00       196.17
 1063.39        2957.75           1326          46.00       178.73
 1063.42        2958.00           1329          49.00       191.81
 1063.45        2958.25           1332          41.00       156.93
 1063.48        2958.50           1336          57.00       226.68
 1063.51        2958.75           1339          56.00       222.32
 1063.54        2959.00           1342          51.00       200.52
 1063.57        2959.25           1346          49.00       191.81
 1063.60        2959.50           1349          58.00       231.04
 1063.64        2959.75           1352          72.00       292.07
 1063.67        2960.00           1356          96.00       396.69
 1063.70        2960.25           1359         115.00       479.52
 1063.73        2960.50           1362         145.00       610.30
 1063.76        2960.75           1366         186.00       789.03
 1063.79        2961.00           1369         197.00       836.99
 1063.82        2961.25           1372         241.00      1028.80
 1063.85        2961.50           1376         335.00      1438.60
 1063.88        2961.75           1379         461.00      1987.91
 1063.91        2962.00           1382        1039.00      4508.02
 1063.94        2962.25           1386        2305.00     10029.17
 1063.97        2962.50           1389        3322.00     14465.74
 1064.00        2962.75           1392        4437.00     19331.17
 1064.03        2963.00           1396        5781.00     25197.77
 1064.07        2963.25           1399        6992.00     30485.59
 1064.10        2963.50           1402        8259.00     36019.72
 1064.13        2963.75           1406        9782.00     42674.48
 1064.16        2964.00           1409       10927.00     47679.31
 1064.19        2964.25           1412       12099.00     52803.73
 1064.22        2964.50           1416       13683.00     59732.06
 1064.25        2964.75           1419       14868.00     64917.07
 1064.28        2965.00           1422       15933.00     69578.38
 1064.31        2965.25           1426       17360.00     75826.18
 1064.34        2965.50           1429       18599.00     81252.75
 1064.37        2965.75           1432       19521.00     85292.07
 1064.40        2966.00           1436       21011.00     91821.91
 1064.44        2966.25           1439       22057.00     96407.46
 1064.47        2966.50           1442       23070.00    100849.60
 1064.50        2966.75           1446       24367.00    106538.80
 1064.53        2967.00           1449       24468.00    106981.90
 1064.56        2967.25           1452       24466.00    106973.10
 1064.59        2967.50           1456       24645.00    107758.40
 1064.62        2967.75           1459       24448.00    106894.10
 1064.65        2968.00           1462       24305.00    106266.80
 1064.68        2968.25           1466       23522.00    102832.00
 1064.72        2968.50           1469       22413.00     97968.42
 1064.75        2968.75           1472       21331.00     93224.62
 1064.78        2969.00           1476       19927.00     87071.09
 1064.81        2969.25           1479       18974.00     82895.52
 1064.84        2969.50           1482       17724.00     77420.25
 1064.87        2969.75           1486       16297.00     71171.85
 1064.90        2970.00           1489       15179.00     66278.13
 1064.93        2970.25           1492       14111.00     61604.60
 1064.96        2970.50           1496       12517.00     54631.75
 1064.99        2970.75           1499       11302.00     49318.78
 1065.02        2971.00           1502       10071.00     43937.57
 1065.06        2971.25           1506        8710.00     37990.10
 1065.09        2971.50           1509        7663.00     33416.22
 1065.12        2971.75           1513        6181.00     26944.18
 1065.15        2972.00           1516        5004.00     21805.89
 1065.18        2972.25           1519        4026.00     17537.56
 1065.21        2972.50           1523        2507.00     10910.28
 1065.24        2972.75           1526        1367.00      5938.29
 1065.27        2973.00           1529         644.00      2785.76
 1065.30        2973.25           1533         314.00      1347.05
 1065.33        2973.50           1536         249.00      1063.68
 1065.36        2973.75           1539         217.00       924.18
 1065.40        2974.00           1543         191.00       810.83
 1065.43        2974.25           1546         134.00       562.35
 1065.46        2974.50           1549         107.00       444.64
 1065.49        2974.75           1553          72.00       292.07
 1065.52        2975.00           1556          56.00       222.32
 1065.55        2975.25           1559          65.00       261.55
 1065.58        2975.50           1563          49.00       191.81
 1065.61        2975.75           1566          52.00       204.88
 1065.64        2976.00           1569          45.00       174.37
 1065.67        2976.25           1573          49.00       191.81
 1065.70        2976.50           1576          53.00       209.24
 1065.74        2976.75           1579          49.00       191.81
 1065.77        2977.00           1583          49.00       191.81
 1065.80        2977.25           1586          42.00       161.29
 1065.83        2977.50           1590          40.00       152.57
 1065.86        2977.75           1593          49.00       191.81
 1065.89        2978.00           1596          42.00       161.29
 1065.92        2978.25           1600          52.00       204.88
 1065.95        2978.50           1603          47.00       183.09
 1065.98        2978.75           1606          47.00       183.09
 1066.01        2979.00           1610          44.00       170.01
 1066.04        2979.25           1613          42.00       161.29
 1066.07        2979.50           1616          44.00       170.01
 1066.11        2979.75           1620          44.00       170.01
 1066.15        2980.00           1623          48.00       187.45
 1066.18        2980.25           1626          45.00       174.37
 1066.21        2980.50           1630          42.00       161.29
 1066.24        2980.75           1633          44.00       170.01
 1066.27        2981.00           1637          49.00       191.81
 1066.30        2981.25           1640          44.00       170.01
 1066.33        2981.50           1643          39.00       148.21
 1066.36        2981.75           1647          39.00       148.21
 1066.39        2982.00           1650          41.00       156.93
 1066.42        2982.25           1653          44.00       170.01
 1066.46        2982.50           1657          50.00       196.17
 1066.49        2982.75           1660          45.00       174.37
 1066.52        2983.00           1663          50.00       196.17
 1066.55        2983.25           1667          45.00       174.37
 1066.58        2983.50           1670          44.00       170.01
 1066.61        2983.75           1673          44.00       170.01
 1066.64        2984.00           1677          41.00       156.93
HS scan finished at 17:46:51
end
