************************************************************
  HS Scan of (1) Internal mercury lamp
************************************************************
Integration time is 0.2294 seconds per sample
dh311018Manchester 53.47 2.23 2.804185pr1000
************************************************************
Dead Time -------------------------  3E-08 
Number of Cycles Used -------------  4 
Starting Wavelength (Angstroms) ---  2950 
Final Wavelength (Angstoms) -------  2984 
Wavelength Increment (Angstroms) --  .25 
Filter Wheel #1 Position ---------- (1) Ground quartz diffuser (ND=2.32)
Filter Wheel #2 Position ---------- (1) Neutral Density 0.494



************************************************************
HS scan start time = 04:18:27
Dark Count =  5.3 


Time (GMT)  Wavelength (Ang)  Step Number  Raw Counts  Counts/Second

  258.82        2950.00           1222          47.00       181.78
  258.89        2950.25           1226          43.00       164.34
  258.92        2950.50           1229          49.00       190.50
  258.95        2950.75           1232          49.00       190.50
  258.98        2951.00           1236          48.00       186.14
  259.01        2951.25           1239          48.00       186.14
  259.04        2951.50           1242          50.00       194.86
  259.07        2951.75           1246          51.00       199.22
  259.11        2952.00           1249          44.00       168.70
  259.14        2952.25           1252          51.00       199.22
  259.17        2952.50           1256          50.00       194.86
  259.20        2952.75           1259          52.00       203.58
  259.23        2953.00           1262          46.00       177.42
  259.26        2953.25           1266          45.00       173.06
  259.29        2953.50           1269          47.00       181.78
  259.32        2953.75           1272          52.00       203.58
  259.35        2954.00           1276          50.00       194.86
  259.38        2954.25           1279          46.00       177.42
  259.41        2954.50           1282          53.00       207.94
  259.44        2954.75           1286          45.00       173.06
  259.48        2955.00           1289          54.00       212.29
  259.51        2955.25           1292          61.00       242.81
  259.54        2955.50           1296          50.00       194.86
  259.57        2955.75           1299          51.00       199.22
  259.60        2956.00           1302          45.00       173.06
  259.63        2956.25           1306          44.00       168.70
  259.66        2956.50           1309          44.00       168.70
  259.69        2956.75           1312          52.00       203.58
  259.72        2957.00           1316          53.00       207.94
  259.75        2957.25           1319          51.00       199.22
  259.78        2957.50           1322          52.00       203.58
  259.81        2957.75           1326          50.00       194.86
  259.84        2958.00           1329          52.00       203.58
  259.87        2958.25           1332          48.00       186.14
  259.91        2958.50           1336          56.00       221.01
  259.94        2958.75           1339          52.00       203.58
  259.97        2959.00           1342          49.00       190.50
  260.00        2959.25           1346          47.00       181.78
  260.03        2959.50           1349          48.00       186.14
  260.06        2959.75           1352          75.00       303.84
  260.09        2960.00           1356          68.00       273.32
  260.12        2960.25           1359          86.00       351.79
  260.15        2960.50           1362         133.00       556.68
  260.18        2960.75           1366         159.00       670.02
  260.21        2961.00           1369         196.00       831.32
  260.24        2961.25           1372         223.00       949.02
  260.27        2961.50           1376         272.00      1162.64
  260.30        2961.75           1379         374.00      1607.31
  260.33        2962.00           1382         738.00      3194.29
  260.37        2962.25           1386        1859.00      8082.60
  260.40        2962.50           1389        3031.00     13194.85
  260.43        2962.75           1392        4153.00     18090.46
  260.46        2963.00           1396        5770.00     25148.43
  260.49        2963.25           1399        6669.00     29073.74
  260.52        2963.50           1402        7813.00     34070.12
  260.55        2963.75           1406        9518.00     41519.43
  260.58        2964.00           1409       10573.00     46130.50
  260.61        2964.25           1412       11752.00     51285.04
  260.64        2964.50           1416       13455.00     58733.31
  260.68        2964.75           1419       14666.00     64031.78
  260.71        2965.00           1422       15964.00     69712.78
  260.74        2965.25           1426       17405.00     76021.91
  260.77        2965.50           1429       18398.00     80370.97
  260.80        2965.75           1432       19557.00     85448.49
  260.83        2966.00           1436       21211.00     92697.27
  260.86        2966.25           1439       22235.00     97186.60
  260.89        2966.50           1442       23247.00    101624.50
  260.92        2966.75           1446       24541.00    107300.80
  260.96        2967.00           1449       24939.00    109047.10
  260.99        2967.25           1452       25010.00    109358.60
  261.02        2967.50           1456       24928.00    108998.80
  261.05        2967.75           1459       24927.00    108994.40
  261.08        2968.00           1462       24885.00    108810.20
  261.11        2968.25           1466       24025.00    105037.10
  261.14        2968.50           1469       23182.00    101339.40
  261.17        2968.75           1472       22177.00     96932.29
  261.20        2969.00           1476       20682.00     90378.54
  261.23        2969.25           1479       19563.00     85474.78
  261.27        2969.50           1482       18272.00     79819.06
  261.30        2969.75           1486       16876.00     73705.52
  261.33        2970.00           1489       15686.00     68495.88
  261.36        2970.25           1492       14624.00     63847.99
  261.39        2970.50           1496       13089.00     57132.28
  261.42        2970.75           1499       11836.00     51652.34
  261.45        2971.00           1502       10554.00     46047.44
  261.48        2971.25           1506        9198.00     40121.06
  261.51        2971.50           1509        8001.00     34891.34
  261.55        2971.75           1513        6598.00     28763.70
  261.58        2972.00           1516        5405.00     23555.00
  261.61        2972.25           1519        4341.00     18910.90
  261.64        2972.50           1523        2868.00     12483.75
  261.67        2972.75           1526        1711.00      7437.14
  261.70        2973.00           1529         834.00      3612.86
  261.73        2973.25           1533         339.00      1454.73
  261.76        2973.50           1536         257.00      1097.25
  261.79        2973.75           1539         217.00       922.87
  261.82        2974.00           1543         185.00       783.37
  261.86        2974.25           1546         132.00       552.32
  261.89        2974.50           1549         102.00       421.54
  261.92        2974.75           1553          79.00       321.28
  261.95        2975.00           1556          59.00       234.09
  261.98        2975.25           1559          56.00       221.01
  262.01        2975.50           1563          49.00       190.50
  262.04        2975.75           1566          47.00       181.78
  262.07        2976.00           1569          47.00       181.78
  262.10        2976.25           1573          43.00       164.34
  262.13        2976.50           1576          49.00       190.50
  262.16        2976.75           1579          47.00       181.78
  262.20        2977.00           1583          45.00       173.06
  262.23        2977.25           1586          47.00       181.78
  262.26        2977.50           1590          48.00       186.14
  262.29        2977.75           1593          45.00       173.06
  262.32        2978.00           1596          45.00       173.06
  262.35        2978.25           1600          48.00       186.14
  262.38        2978.50           1603          52.00       203.58
  262.41        2978.75           1606          40.00       151.26
  262.44        2979.00           1610          47.00       181.78
  262.47        2979.25           1613          50.00       194.86
  262.50        2979.50           1616          47.00       181.78
  262.53        2979.75           1620          45.00       173.06
  262.57        2980.00           1623          41.00       155.62
  262.60        2980.25           1626          47.00       181.78
  262.63        2980.50           1630          43.00       164.34
  262.66        2980.75           1633          43.00       164.34
  262.69        2981.00           1637          48.00       186.14
  262.72        2981.25           1640          45.00       173.06
  262.75        2981.50           1643          50.00       194.86
  262.78        2981.75           1647          51.00       199.22
  262.81        2982.00           1650          46.00       177.42
  262.84        2982.25           1653          44.00       168.70
  262.87        2982.50           1657          46.00       177.42
  262.90        2982.75           1660          47.00       181.78
  262.93        2983.00           1663          46.00       177.42
  262.96        2983.25           1667          39.00       146.91
  262.99        2983.50           1670          49.00       190.50
  263.03        2983.75           1673          50.00       194.86
  263.06        2984.00           1677          43.00       164.34
HS scan finished at 04:23:16
end
************************************************************
  HS Scan of (1) Internal mercury lamp
************************************************************
Integration time is 0.2294 seconds per sample
dh311018Manchester 53.47 2.23 2.804185pr1000
************************************************************
Dead Time -------------------------  3E-08 
Number of Cycles Used -------------  4 
Starting Wavelength (Angstroms) ---  2950 
Final Wavelength (Angstoms) -------  2984 
Wavelength Increment (Angstroms) --  .25 
Filter Wheel #1 Position ---------- (1) Ground quartz diffuser (ND=2.32)
Filter Wheel #2 Position ---------- (1) Neutral Density 0.494



************************************************************
HS scan start time = 17:42:01
Dark Count =  5.3 


Time (GMT)  Wavelength (Ang)  Step Number  Raw Counts  Counts/Second

 1062.39        2950.00           1222          53.00       207.94
 1062.46        2950.25           1226          51.00       199.22
 1062.49        2950.50           1229          47.00       181.78
 1062.52        2950.75           1232          51.00       199.22
 1062.55        2951.00           1236          48.00       186.14
 1062.58        2951.25           1239          46.00       177.42
 1062.61        2951.50           1242          43.00       164.34
 1062.64        2951.75           1246          51.00       199.22
 1062.67        2952.00           1249          43.00       164.34
 1062.70        2952.25           1252          44.00       168.70
 1062.73        2952.50           1256          42.00       159.98
 1062.76        2952.75           1259          56.00       221.01
 1062.79        2953.00           1262          48.00       186.14
 1062.82        2953.25           1266          50.00       194.86
 1062.86        2953.50           1269          47.00       181.78
 1062.89        2953.75           1272          43.00       164.34
 1062.92        2954.00           1276          49.00       190.50
 1062.95        2954.25           1279          48.00       186.14
 1062.98        2954.50           1282          53.00       207.94
 1063.01        2954.75           1286          55.00       216.65
 1063.04        2955.00           1289          44.00       168.70
 1063.07        2955.25           1292          51.00       199.22
 1063.10        2955.50           1296          57.00       225.37
 1063.13        2955.75           1299          52.00       203.58
 1063.16        2956.00           1302          51.00       199.22
 1063.19        2956.25           1306          51.00       199.22
 1063.22        2956.50           1309          48.00       186.14
 1063.25        2956.75           1312          56.00       221.01
 1063.29        2957.00           1316          44.00       168.70
 1063.32        2957.25           1319          46.00       177.42
 1063.35        2957.50           1322          53.00       207.94
 1063.38        2957.75           1326          54.00       212.29
 1063.41        2958.00           1329          51.00       199.22
 1063.44        2958.25           1332          49.00       190.50
 1063.47        2958.50           1336          51.00       199.22
 1063.50        2958.75           1339          49.00       190.50
 1063.53        2959.00           1342          49.00       190.50
 1063.56        2959.25           1346          56.00       221.01
 1063.59        2959.50           1349          53.00       207.94
 1063.62        2959.75           1352          69.00       277.68
 1063.65        2960.00           1356          83.00       338.71
 1063.68        2960.25           1359         107.00       443.34
 1063.71        2960.50           1362         132.00       552.32
 1063.74        2960.75           1366         181.00       765.93
 1063.78        2961.00           1369         197.00       835.68
 1063.81        2961.25           1372         226.00       962.10
 1063.84        2961.50           1376         297.00      1271.63
 1063.87        2961.75           1379         421.00      1812.22
 1063.90        2962.00           1382         843.00      3652.10
 1063.93        2962.25           1386        2169.00      9434.67
 1063.96        2962.50           1389        3272.00     14246.28
 1063.99        2962.75           1392        4423.00     19268.77
 1064.02        2963.00           1396        5904.00     25733.46
 1064.05        2963.25           1399        6959.00     30340.16
 1064.08        2963.50           1402        8191.00     35721.35
 1064.11        2963.75           1406        9683.00     42240.51
 1064.14        2964.00           1409       10788.00     47070.35
 1064.17        2964.25           1412       12125.00     52916.11
 1064.21        2964.50           1416       13489.00     58882.04
 1064.24        2964.75           1419       14801.00     64622.55
 1064.27        2965.00           1422       15860.00     69257.53
 1064.30        2965.25           1426       17256.00     75369.44
 1064.33        2965.50           1429       18449.00     80594.37
 1064.36        2965.75           1432       19538.00     85365.24
 1064.39        2966.00           1436       21168.00     92508.78
 1064.42        2966.25           1439       22057.00     96406.16
 1064.45        2966.50           1442       23363.00    102133.30
 1064.48        2966.75           1446       24417.00    106756.80
 1064.51        2967.00           1449       24697.00    107985.30
 1064.55        2967.25           1452       24776.00    108331.90
 1064.58        2967.50           1456       24793.00    108406.50
 1064.61        2967.75           1459       24873.00    108757.50
 1064.64        2968.00           1462       24697.00    107985.30
 1064.67        2968.25           1466       23916.00    104558.90
 1064.70        2968.50           1469       22947.00    100308.80
 1064.73        2968.75           1472       21800.00     95279.36
 1064.76        2969.00           1476       20316.00     88774.48
 1064.79        2969.25           1479       19304.00     84339.99
 1064.82        2969.50           1482       18053.00     78859.84
 1064.86        2969.75           1486       16772.00     73250.15
 1064.89        2970.00           1489       15414.00     67305.35
 1064.92        2970.25           1492       14312.00     62482.75
 1064.95        2970.50           1496       13021.00     56834.84
 1064.98        2970.75           1499       11715.00     51123.25
 1065.01        2971.00           1502       10719.00     46768.72
 1065.04        2971.25           1506        9056.00     39500.58
 1065.07        2971.50           1509        7949.00     34664.19
 1065.10        2971.75           1513        6383.00     27824.88
 1065.13        2972.00           1516        5274.00     22983.15
 1065.16        2972.25           1519        4113.00     17915.91
 1065.19        2972.50           1523        2593.00     11284.12
 1065.23        2972.75           1526        1505.00      6538.77
 1065.26        2973.00           1529         689.00      2980.65
 1065.29        2973.25           1533         311.00      1332.66
 1065.32        2973.50           1536         243.00      1036.21
 1065.35        2973.75           1539         216.00       918.51
 1065.38        2974.00           1543         172.00       726.69
 1065.41        2974.25           1546         120.00       500.01
 1065.44        2974.50           1549         110.00       456.41
 1065.47        2974.75           1553          74.00       299.48
 1065.50        2975.00           1556          68.00       273.32
 1065.53        2975.25           1559          55.00       216.65
 1065.56        2975.50           1563          52.00       203.58
 1065.59        2975.75           1566          45.00       173.06
 1065.63        2976.00           1569          52.00       203.58
 1065.66        2976.25           1573          41.00       155.62
 1065.69        2976.50           1576          54.00       212.29
 1065.72        2976.75           1579          48.00       186.14
 1065.75        2977.00           1583          48.00       186.14
 1065.78        2977.25           1586          45.00       173.06
 1065.81        2977.50           1590          46.00       177.42
 1065.84        2977.75           1593          50.00       194.86
 1065.87        2978.00           1596          45.00       173.06
 1065.90        2978.25           1600          46.00       177.42
 1065.93        2978.50           1603          45.00       173.06
 1065.96        2978.75           1606          51.00       199.22
 1065.99        2979.00           1610          43.00       164.34
 1066.02        2979.25           1613          46.00       177.42
 1066.05        2979.50           1616          44.00       168.70
 1066.09        2979.75           1620          43.00       164.34
 1066.12        2980.00           1623          46.00       177.42
 1066.15        2980.25           1626          49.00       190.50
 1066.18        2980.50           1630          44.00       168.70
 1066.21        2980.75           1633          48.00       186.14
 1066.24        2981.00           1637          45.00       173.06
 1066.27        2981.25           1640          50.00       194.86
 1066.31        2981.50           1643          48.00       186.14
 1066.35        2981.75           1647          41.00       155.62
 1066.38        2982.00           1650          44.00       168.70
 1066.41        2982.25           1653          47.00       181.78
 1066.44        2982.50           1657          48.00       186.14
 1066.47        2982.75           1660          47.00       181.78
 1066.50        2983.00           1663          46.00       177.42
 1066.53        2983.25           1667          43.00       164.34
 1066.56        2983.50           1670          46.00       177.42
 1066.59        2983.75           1673          47.00       181.78
 1066.62        2984.00           1677          41.00       155.62
HS scan finished at 17:46:50
end
