************************************************************
  HS Scan of (1) Internal mercury lamp
************************************************************
Integration time is 0.2294 seconds per sample
dh281018Manchester 53.47 2.23 2.750537pr1000
************************************************************
Dead Time -------------------------  3E-08 
Number of Cycles Used -------------  4 
Starting Wavelength (Angstroms) ---  2950 
Final Wavelength (Angstoms) -------  2984 
Wavelength Increment (Angstroms) --  .25 
Filter Wheel #1 Position ---------- (1) Ground quartz diffuser (ND=2.32)
Filter Wheel #2 Position ---------- (1) Neutral Density 0.494



************************************************************
HS scan start time = 04:12:52
Dark Count =  6.5 


Time (GMT)  Wavelength (Ang)  Step Number  Raw Counts  Counts/Second

  253.23        2950.00           1222          47.00       176.55
  253.30        2950.25           1226          55.00       211.42
  253.33        2950.50           1229          50.00       189.63
  253.36        2950.75           1232          47.00       176.55
  253.39        2951.00           1236          52.00       198.34
  253.42        2951.25           1239          49.00       185.27
  253.45        2951.50           1242          56.00       215.78
  253.48        2951.75           1246          47.00       176.55
  253.51        2952.00           1249          47.00       176.55
  253.55        2952.25           1252          50.00       189.63
  253.58        2952.50           1256          56.00       215.78
  253.61        2952.75           1259          59.00       228.86
  253.64        2953.00           1262          51.00       193.99
  253.67        2953.25           1266          59.00       228.86
  253.70        2953.50           1269          49.00       185.27
  253.73        2953.75           1272          48.00       180.91
  253.76        2954.00           1276          50.00       189.63
  253.79        2954.25           1279          50.00       189.63
  253.82        2954.50           1282          56.00       215.78
  253.85        2954.75           1286          58.00       224.50
  253.88        2955.00           1289          54.00       207.06
  253.91        2955.25           1292          55.00       211.42
  253.94        2955.50           1296          48.00       180.91
  253.97        2955.75           1299          46.00       172.19
  254.01        2956.00           1302          45.00       167.83
  254.04        2956.25           1306          51.00       193.99
  254.07        2956.50           1309          53.00       202.70
  254.10        2956.75           1312          47.00       176.55
  254.13        2957.00           1316          47.00       176.55
  254.16        2957.25           1319          45.00       167.83
  254.19        2957.50           1322          42.00       154.75
  254.22        2957.75           1326          42.00       154.75
  254.25        2958.00           1329          47.00       176.55
  254.28        2958.25           1332          58.00       224.50
  254.31        2958.50           1336          49.00       185.27
  254.34        2958.75           1339          53.00       202.70
  254.37        2959.00           1342          47.00       176.55
  254.40        2959.25           1346          53.00       202.70
  254.44        2959.50           1349          46.00       172.19
  254.47        2959.75           1352          59.00       228.86
  254.50        2960.00           1356          65.00       255.02
  254.53        2960.25           1359          95.00       385.79
  254.56        2960.50           1362         122.00       503.50
  254.59        2960.75           1366         166.00       695.31
  254.62        2961.00           1369         193.00       813.01
  254.65        2961.25           1372         216.00       913.28
  254.68        2961.50           1376         268.00      1139.97
  254.71        2961.75           1379         324.00      1384.10
  254.74        2962.00           1382         515.00      2216.80
  254.77        2962.25           1386        1610.00      6991.44
  254.81        2962.50           1389        2783.00     12107.71
  254.84        2962.75           1392        3881.00     16898.28
  254.87        2963.00           1396        5346.00     23292.21
  254.90        2963.25           1399        6524.00     28435.32
  254.93        2963.50           1402        7557.00     32946.67
  254.96        2963.75           1406        9210.00     40168.26
  254.99        2964.00           1409       10377.00     45268.50
  255.02        2964.25           1412       11546.00     50379.05
  255.05        2964.50           1416       13084.00     57105.16
  255.08        2964.75           1419       14243.00     62175.59
  255.12        2965.00           1422       15388.00     67186.29
  255.15        2965.25           1426       17050.00     74462.15
  255.18        2965.50           1429       18145.00     79257.55
  255.21        2965.75           1432       19360.00     84580.08
  255.24        2966.00           1436       21051.00     91990.66
  255.27        2966.25           1439       21935.00     95865.99
  255.30        2966.50           1442       23099.00    100970.20
  255.33        2966.75           1446       24256.00    106045.20
  255.36        2967.00           1449       24869.00    108734.70
  255.39        2967.25           1452       24995.00    109287.60
  255.43        2967.50           1456       25121.00    109840.40
  255.46        2967.75           1459       25115.00    109814.10
  255.49        2968.00           1462       24927.00    108989.20
  255.52        2968.25           1466       24483.00    107041.10
  255.55        2968.50           1469       23694.00    103579.90
  255.58        2968.75           1472       22567.00     98637.14
  255.61        2969.00           1476       20962.00     91600.55
  255.64        2969.25           1479       19992.00     87349.34
  255.67        2969.50           1482       18786.00     82065.36
  255.71        2969.75           1486       17378.00     75898.43
  255.74        2970.00           1489       16236.00     70898.24
  255.77        2970.25           1492       15117.00     66000.22
  255.80        2970.50           1496       13617.00     59436.75
  255.83        2970.75           1499       12533.00     54695.17
  255.86        2971.00           1502       11401.00     49745.07
  255.89        2971.25           1506        9833.00     42890.82
  255.92        2971.50           1509        8452.00     36856.33
  255.95        2971.75           1513        6964.00     30356.76
  255.99        2972.00           1516        5954.00     25946.52
  256.02        2972.25           1519        4741.00     20651.41
  256.05        2972.50           1523        3330.00     14494.10
  256.08        2972.75           1526        2283.00      9926.67
  256.11        2973.00           1529        1261.00      5469.51
  256.14        2973.25           1533         453.00      1946.50
  256.17        2973.50           1536         258.00      1096.37
  256.20        2973.75           1539         225.00       952.51
  256.23        2974.00           1543         177.00       743.26
  256.26        2974.25           1546         145.00       603.76
  256.29        2974.50           1549         117.00       481.70
  256.32        2974.75           1553          87.00       350.92
  256.35        2975.00           1556          66.00       259.37
  256.38        2975.25           1559          48.00       180.91
  256.42        2975.50           1563          47.00       176.55
  256.45        2975.75           1566          53.00       202.70
  256.48        2976.00           1569          49.00       185.27
  256.51        2976.25           1573          49.00       185.27
  256.54        2976.50           1576          50.00       189.63
  256.57        2976.75           1579          42.00       154.75
  256.60        2977.00           1583          51.00       193.99
  256.63        2977.25           1586          42.00       154.75
  256.66        2977.50           1590          51.00       193.99
  256.69        2977.75           1593          45.00       167.83
  256.72        2978.00           1596          50.00       189.63
  256.76        2978.25           1600          52.00       198.34
  256.79        2978.50           1603          41.00       150.39
  256.82        2978.75           1606          44.00       163.47
  256.85        2979.00           1610          49.00       185.27
  256.88        2979.25           1613          43.00       159.11
  256.91        2979.50           1616          50.00       189.63
  256.94        2979.75           1620          51.00       193.99
  256.97        2980.00           1623          46.00       172.19
  257.00        2980.25           1626          45.00       167.83
  257.03        2980.50           1630          39.00       141.67
  257.07        2980.75           1633          47.00       176.55
  257.10        2981.00           1637          52.00       198.34
  257.13        2981.25           1640          44.00       163.47
  257.16        2981.50           1643          45.00       167.83
  257.19        2981.75           1647          47.00       176.55
  257.22        2982.00           1650          47.00       176.55
  257.25        2982.25           1653          49.00       185.27
  257.28        2982.50           1657          50.00       189.63
  257.31        2982.75           1660          50.00       189.63
  257.34        2983.00           1663          51.00       193.99
  257.37        2983.25           1667          42.00       154.75
  257.41        2983.50           1670          49.00       185.27
  257.44        2983.75           1673          45.00       167.83
  257.47        2984.00           1677          41.00       150.39
HS scan finished at 04:17:41
end
************************************************************
  HS Scan of (1) Internal mercury lamp
************************************************************
Integration time is 0.2294 seconds per sample
dh281018Manchester 53.47 2.23 2.804185pr1000
************************************************************
Dead Time -------------------------  3E-08 
Number of Cycles Used -------------  4 
Starting Wavelength (Angstroms) ---  2950 
Final Wavelength (Angstoms) -------  2984 
Wavelength Increment (Angstroms) --  .25 
Filter Wheel #1 Position ---------- (1) Ground quartz diffuser (ND=2.32)
Filter Wheel #2 Position ---------- (1) Neutral Density 0.494



************************************************************
HS scan start time = 17:42:00
Dark Count =  8.600001 


Time (GMT)  Wavelength (Ang)  Step Number  Raw Counts  Counts/Second

 1062.37        2950.00           1222          47.00       167.39
 1062.43        2950.25           1226          59.00       219.71
 1062.46        2950.50           1229          55.00       202.27
 1062.49        2950.75           1232          49.00       176.11
 1062.52        2951.00           1236          51.00       184.83
 1062.56        2951.25           1239          57.00       210.99
 1062.59        2951.50           1242          53.00       193.55
 1062.62        2951.75           1246          54.00       197.91
 1062.65        2952.00           1249          44.00       154.32
 1062.68        2952.25           1252          51.00       184.83
 1062.71        2952.50           1256          55.00       202.27
 1062.74        2952.75           1259          50.00       180.47
 1062.77        2953.00           1262          47.00       167.39
 1062.80        2953.25           1266          52.00       189.19
 1062.84        2953.50           1269          49.00       176.11
 1062.87        2953.75           1272          52.00       189.19
 1062.90        2954.00           1276          54.00       197.91
 1062.93        2954.25           1279          52.00       189.19
 1062.96        2954.50           1282          49.00       176.11
 1062.99        2954.75           1286          57.00       210.99
 1063.02        2955.00           1289          45.00       158.68
 1063.05        2955.25           1292          52.00       189.19
 1063.08        2955.50           1296          47.00       167.39
 1063.11        2955.75           1299          54.00       197.91
 1063.14        2956.00           1302          49.00       176.11
 1063.17        2956.25           1306          50.00       180.47
 1063.20        2956.50           1309          40.00       136.88
 1063.24        2956.75           1312          47.00       167.39
 1063.27        2957.00           1316          47.00       167.39
 1063.30        2957.25           1319          48.00       171.75
 1063.33        2957.50           1322          47.00       167.39
 1063.36        2957.75           1326          52.00       189.19
 1063.39        2958.00           1329          49.00       176.11
 1063.42        2958.25           1332          66.00       250.22
 1063.45        2958.50           1336          47.00       167.39
 1063.48        2958.75           1339          51.00       184.83
 1063.51        2959.00           1342          46.00       163.03
 1063.54        2959.25           1346          53.00       193.55
 1063.57        2959.50           1349          51.00       184.83
 1063.60        2959.75           1352          53.00       193.55
 1063.63        2960.00           1356          67.00       254.58
 1063.66        2960.25           1359          93.00       367.92
 1063.70        2960.50           1362         117.00       472.54
 1063.73        2960.75           1366         160.00       660.00
 1063.76        2961.00           1369         188.00       782.06
 1063.79        2961.25           1372         222.00       930.28
 1063.82        2961.50           1376         269.00      1135.17
 1063.85        2961.75           1379         339.00      1440.34
 1063.88        2962.00           1382         686.00      2953.18
 1063.91        2962.25           1386        1778.00      7714.95
 1063.94        2962.50           1389        2911.00     12656.94
 1063.98        2962.75           1392        4051.00     17630.94
 1064.01        2963.00           1396        5608.00     24426.79
 1064.04        2963.25           1399        6749.00     29408.67
 1064.07        2963.50           1402        7831.00     34134.33
 1064.10        2963.75           1406        9412.00     41041.79
 1064.13        2964.00           1409       10638.00     46400.21
 1064.16        2964.25           1412       11777.00     51379.92
 1064.19        2964.50           1416       13320.00     58128.31
 1064.22        2964.75           1419       14359.00     62673.97
 1064.26        2965.00           1422       15621.00     68196.93
 1064.29        2965.25           1426       17092.00     74636.85
 1064.32        2965.50           1429       18221.00     79581.23
 1064.35        2965.75           1432       19530.00     85315.74
 1064.38        2966.00           1436       21081.00     92112.96
 1064.41        2966.25           1439       22096.00     96562.68
 1064.44        2966.50           1442       23208.00    101439.00
 1064.47        2966.75           1446       24392.00    106632.60
 1064.50        2967.00           1449       24776.00    108317.40
 1064.54        2967.25           1452       24869.00    108725.50
 1064.57        2967.50           1456       24836.00    108580.70
 1064.60        2967.75           1459       24715.00    108049.80
 1064.63        2968.00           1462       24728.00    108106.80
 1064.66        2968.25           1466       24231.00    105926.30
 1064.69        2968.50           1469       23454.00    102518.00
 1064.72        2968.75           1472       22233.00     97163.38
 1064.75        2969.00           1476       20708.00     90478.04
 1064.79        2969.25           1479       19478.00     85087.88
 1064.82        2969.50           1482       18412.00     80417.85
 1064.85        2969.75           1486       16799.00     73353.93
 1064.88        2970.00           1489       15837.00     69142.40
 1064.91        2970.25           1492       14693.00     64135.50
 1064.94        2970.50           1496       13204.00     57620.88
 1064.97        2970.75           1499       12062.00     52626.18
 1065.00        2971.00           1502       11047.00     48188.19
 1065.03        2971.25           1506        9573.00     41745.36
 1065.06        2971.50           1509        8310.00     36226.80
 1065.10        2971.75           1513        6853.00     29862.84
 1065.13        2972.00           1516        5765.00     25112.20
 1065.16        2972.25           1519        4576.00     19922.10
 1065.19        2972.50           1523        3049.00     13258.98
 1065.22        2972.75           1526        1995.00      8661.36
 1065.25        2973.00           1529        1004.00      4339.71
 1065.28        2973.25           1533         397.00      1693.20
 1065.31        2973.50           1536         264.00      1113.38
 1065.34        2973.75           1539         231.00       969.51
 1065.38        2974.00           1543         178.00       738.46
 1065.41        2974.25           1546         146.00       598.96
 1065.44        2974.50           1549         127.00       516.14
 1065.47        2974.75           1553          76.00       293.81
 1065.50        2975.00           1556          67.00       254.58
 1065.53        2975.25           1559          60.00       224.06
 1065.56        2975.50           1563          53.00       193.55
 1065.59        2975.75           1566          56.00       206.63
 1065.62        2976.00           1569          55.00       202.27
 1065.65        2976.25           1573          43.00       149.96
 1065.68        2976.50           1576          55.00       202.27
 1065.71        2976.75           1579          46.00       163.03
 1065.75        2977.00           1583          46.00       163.03
 1065.78        2977.25           1586          46.00       163.03
 1065.81        2977.50           1590          51.00       184.83
 1065.84        2977.75           1593          48.00       171.75
 1065.87        2978.00           1596          49.00       176.11
 1065.90        2978.25           1600          48.00       171.75
 1065.93        2978.50           1603          51.00       184.83
 1065.96        2978.75           1606          44.00       154.32
 1065.99        2979.00           1610          47.00       167.39
 1066.02        2979.25           1613          48.00       171.75
 1066.05        2979.50           1616          48.00       171.75
 1066.08        2979.75           1620          44.00       154.32
 1066.11        2980.00           1623          45.00       158.68
 1066.14        2980.25           1626          49.00       176.11
 1066.18        2980.50           1630          43.00       149.96
 1066.21        2980.75           1633          45.00       158.68
 1066.24        2981.00           1637          44.00       154.32
 1066.27        2981.25           1640          49.00       176.11
 1066.30        2981.50           1643          45.00       158.68
 1066.33        2981.75           1647          46.00       163.03
 1066.36        2982.00           1650          41.00       141.24
 1066.39        2982.25           1653          45.00       158.68
 1066.42        2982.50           1657          41.00       141.24
 1066.45        2982.75           1660          42.00       145.60
 1066.48        2983.00           1663          49.00       176.11
 1066.51        2983.25           1667          47.00       167.39
 1066.54        2983.50           1670          42.00       145.60
 1066.57        2983.75           1673          43.00       149.96
 1066.60        2984.00           1677          43.00       149.96
HS scan finished at 17:46:49
end
