************************************************************
  HS Scan of (1) Internal mercury lamp
************************************************************
Integration time is 0.2294 seconds per sample
dh051117Manchester 53.47 2.23 2.750537pr1000
************************************************************
Dead Time -------------------------  3E-08 
Number of Cycles Used -------------  4 
Starting Wavelength (Angstroms) ---  2950 
Final Wavelength (Angstoms) -------  2984 
Wavelength Increment (Angstroms) --  .25 
Filter Wheel #1 Position ---------- (1) Ground quartz diffuser (ND=2.32)
Filter Wheel #2 Position ---------- (1) Neutral Density 0.494



************************************************************
HS scan start time = 04:28:58
Dark Count =  4.8 


Time (GMT)  Wavelength (Ang)  Step Number  Raw Counts  Counts/Second

  269.34        2950.00           1222          69.00       279.86
  269.40        2950.25           1226          71.00       288.58
  269.44        2950.50           1229          78.00       319.10
  269.47        2950.75           1232          71.00       288.58
  269.50        2951.00           1236          66.00       266.79
  269.53        2951.25           1239          62.00       249.35
  269.56        2951.50           1242          69.00       279.86
  269.59        2951.75           1246          74.00       301.66
  269.62        2952.00           1249          66.00       266.79
  269.65        2952.25           1252          63.00       253.71
  269.68        2952.50           1256          78.00       319.10
  269.71        2952.75           1259          66.00       266.79
  269.74        2953.00           1262          68.00       275.50
  269.78        2953.25           1266          61.00       244.99
  269.81        2953.50           1269          69.00       279.86
  269.84        2953.75           1272          60.00       240.63
  269.87        2954.00           1276          64.00       258.07
  269.90        2954.25           1279          71.00       288.58
  269.93        2954.50           1282          71.00       288.58
  269.96        2954.75           1286          71.00       288.58
  269.99        2955.00           1289          61.00       244.99
  270.02        2955.25           1292          56.00       223.19
  270.05        2955.50           1296          61.00       244.99
  270.08        2955.75           1299          63.00       253.71
  270.12        2956.00           1302          61.00       244.99
  270.15        2956.25           1306          69.00       279.86
  270.18        2956.50           1309          66.00       266.79
  270.21        2956.75           1312          66.00       266.79
  270.24        2957.00           1316          58.00       231.91
  270.27        2957.25           1319          67.00       271.14
  270.30        2957.50           1322          63.00       253.71
  270.33        2957.75           1326          64.00       258.07
  270.36        2958.00           1329          65.00       262.43
  270.39        2958.25           1332          69.00       279.86
  270.42        2958.50           1336          68.00       275.50
  270.45        2958.75           1339          70.00       284.22
  270.48        2959.00           1342          76.00       310.38
  270.52        2959.25           1346          69.00       279.86
  270.55        2959.50           1349          68.00       275.50
  270.58        2959.75           1352          84.00       345.25
  270.61        2960.00           1356          96.00       397.56
  270.64        2960.25           1359         130.00       545.78
  270.67        2960.50           1362         143.00       602.45
  270.70        2960.75           1366         197.00       837.86
  270.73        2961.00           1369         248.00      1060.19
  270.76        2961.25           1372         273.00      1169.18
  270.79        2961.50           1376         369.00      1587.70
  270.82        2961.75           1379         535.00      2311.41
  270.85        2962.00           1382        1094.00      4748.71
  270.88        2962.25           1386        2733.00     11897.01
  270.92        2962.50           1389        4165.00     18145.01
  270.95        2962.75           1392        5632.00     24548.15
  270.98        2963.00           1396        7762.00     33849.53
  271.01        2963.25           1399        9360.00     40831.16
  271.04        2963.50           1402       11020.00     48086.76
  271.07        2963.75           1406       13023.00     56845.78
  271.10        2964.00           1409       14609.00     63784.54
  271.13        2964.25           1412       16237.00     70910.06
  271.16        2964.50           1416       18396.00     80364.41
  271.20        2964.75           1419       20071.00     87702.99
  271.23        2965.00           1422       21402.00     93536.72
  271.26        2965.25           1426       23566.00    103025.90
  271.29        2965.50           1429       24987.00    109259.90
  271.32        2965.75           1432       26440.00    115636.70
  271.35        2966.00           1436       28770.00    125867.60
  271.38        2966.25           1439       30086.00    131648.80
  271.41        2966.50           1442       31611.00    138350.70
  271.44        2966.75           1446       32903.00    144030.80
  271.48        2967.00           1449       33372.00    146093.10
  271.51        2967.25           1452       33416.00    146286.60
  271.54        2967.50           1456       33471.00    146528.50
  271.57        2967.75           1459       33384.00    146145.90
  271.60        2968.00           1462       33329.00    145904.00
  271.63        2968.25           1466       32650.00    142918.40
  271.66        2968.50           1469       31006.00    135691.60
  271.69        2968.75           1472       29510.00    129118.20
  271.72        2969.00           1476       27736.00    121326.60
  271.75        2969.25           1479       25953.00    113499.10
  271.79        2969.50           1482       24650.00    107781.30
  271.82        2969.75           1486       22448.00     98122.78
  271.85        2970.00           1489       20990.00     91730.74
  271.88        2970.25           1492       19230.00     84017.96
  271.91        2970.50           1496       17590.00     76834.27
  271.94        2970.75           1499       16161.00     70577.35
  271.97        2971.00           1502       14568.00     63605.13
  272.00        2971.25           1506       12548.00     54768.21
  272.03        2971.50           1509       11009.00     48038.67
  272.06        2971.75           1513        8885.00     38755.59
  272.09        2972.00           1516        7311.00     31879.65
  272.13        2972.25           1519        5716.00     24914.87
  272.16        2972.50           1523        3803.00     16565.34
  272.19        2972.75           1526        2349.00     10221.97
  272.22        2973.00           1529        1173.00      5093.19
  272.25        2973.25           1533         487.00      2102.14
  272.28        2973.50           1536         369.00      1587.70
  272.31        2973.75           1539         301.00      1291.24
  272.34        2974.00           1543         274.00      1173.54
  272.37        2974.25           1546         206.00       877.09
  272.40        2974.50           1549         165.00       698.36
  272.43        2974.75           1553         111.00       462.95
  272.46        2975.00           1556          95.00       393.20
  272.50        2975.25           1559          77.00       314.74
  272.53        2975.50           1563          68.00       275.50
  272.56        2975.75           1566          58.00       231.91
  272.59        2976.00           1569          68.00       275.50
  272.62        2976.25           1573          62.00       249.35
  272.65        2976.50           1576          56.00       223.19
  272.68        2976.75           1579          63.00       253.71
  272.71        2977.00           1583          73.00       297.30
  272.74        2977.25           1586          64.00       258.07
  272.77        2977.50           1590          62.00       249.35
  272.80        2977.75           1593          69.00       279.86
  272.84        2978.00           1596          60.00       240.63
  272.87        2978.25           1600          57.00       227.55
  272.90        2978.50           1603          65.00       262.43
  272.93        2978.75           1606          61.00       244.99
  272.96        2979.00           1610          63.00       253.71
  272.99        2979.25           1613          65.00       262.43
  273.02        2979.50           1616          61.00       244.99
  273.05        2979.75           1620          66.00       266.79
  273.08        2980.00           1623          55.00       218.83
  273.11        2980.25           1626          64.00       258.07
  273.14        2980.50           1630          55.00       218.83
  273.18        2980.75           1633          65.00       262.43
  273.21        2981.00           1637          59.00       236.27
  273.24        2981.25           1640          61.00       244.99
  273.27        2981.50           1643          57.00       227.55
  273.30        2981.75           1647          58.00       231.91
  273.33        2982.00           1650          51.00       201.40
  273.36        2982.25           1653          60.00       240.63
  273.39        2982.50           1657          54.00       214.47
  273.42        2982.75           1660          57.00       227.55
  273.45        2983.00           1663          62.00       249.35
  273.48        2983.25           1667          55.00       218.83
  273.51        2983.50           1670          55.00       218.83
  273.54        2983.75           1673          61.00       244.99
  273.57        2984.00           1677          61.00       244.99
HS scan finished at 04:33:47
end
************************************************************
  HS Scan of (1) Internal mercury lamp
************************************************************
Integration time is 0.2294 seconds per sample
dh051117Manchester 53.47 2.23 2.804185pr1000
************************************************************
Dead Time -------------------------  3E-08 
Number of Cycles Used -------------  4 
Starting Wavelength (Angstroms) ---  2950 
Final Wavelength (Angstoms) -------  2984 
Wavelength Increment (Angstroms) --  .25 
Filter Wheel #1 Position ---------- (1) Ground quartz diffuser (ND=2.32)
Filter Wheel #2 Position ---------- (1) Neutral Density 0.494



************************************************************
HS scan start time = 17:44:20
Dark Count =  5.9 


Time (GMT)  Wavelength (Ang)  Step Number  Raw Counts  Counts/Second

 1064.70        2950.00           1222          62.00       244.55
 1064.77        2950.25           1226          65.00       257.63
 1064.80        2950.50           1229          67.00       266.35
 1064.83        2950.75           1232          66.00       261.99
 1064.86        2951.00           1236          66.00       261.99
 1064.89        2951.25           1239          76.00       305.58
 1064.93        2951.50           1242          71.00       283.79
 1064.96        2951.75           1246          63.00       248.91
 1064.99        2952.00           1249          72.00       288.15
 1065.02        2952.25           1252          62.00       244.55
 1065.05        2952.50           1256          66.00       261.99
 1065.08        2952.75           1259          73.00       292.50
 1065.11        2953.00           1262          68.00       270.71
 1065.14        2953.25           1266          59.00       231.48
 1065.17        2953.50           1269          82.00       331.74
 1065.20        2953.75           1272          68.00       270.71
 1065.23        2954.00           1276          70.00       279.43
 1065.26        2954.25           1279          63.00       248.91
 1065.29        2954.50           1282          68.00       270.71
 1065.32        2954.75           1286          63.00       248.91
 1065.35        2955.00           1289          63.00       248.91
 1065.39        2955.25           1292          65.00       257.63
 1065.42        2955.50           1296          71.00       283.79
 1065.45        2955.75           1299          68.00       270.71
 1065.48        2956.00           1302          58.00       227.12
 1065.51        2956.25           1306          76.00       305.58
 1065.54        2956.50           1309          62.00       244.55
 1065.57        2956.75           1312          60.00       235.83
 1065.60        2957.00           1316          65.00       257.63
 1065.63        2957.25           1319          66.00       261.99
 1065.66        2957.50           1322          73.00       292.50
 1065.69        2957.75           1326          69.00       275.07
 1065.72        2958.00           1329          65.00       257.63
 1065.75        2958.25           1332          62.00       244.55
 1065.79        2958.50           1336          66.00       261.99
 1065.82        2958.75           1339          66.00       261.99
 1065.85        2959.00           1342          88.00       357.89
 1065.88        2959.25           1346          72.00       288.15
 1065.91        2959.50           1349          80.00       323.02
 1065.94        2959.75           1352          93.00       379.69
 1065.97        2960.00           1356         123.00       510.47
 1066.00        2960.25           1359         155.00       649.97
 1066.03        2960.50           1362         192.00       811.27
 1066.06        2960.75           1366         236.00      1003.08
 1066.09        2961.00           1369         278.00      1186.18
 1066.12        2961.25           1372         331.00      1417.24
 1066.15        2961.50           1376         394.00      1691.89
 1066.18        2961.75           1379         535.00      2306.61
 1066.22        2962.00           1382        1096.00      4752.64
 1066.25        2962.25           1386        2785.00     12119.05
 1066.28        2962.50           1389        4208.00     18327.86
 1066.31        2962.75           1392        5630.00     24534.62
 1066.34        2963.00           1396        7574.00     33023.55
 1066.37        2963.25           1399        9156.00     39934.92
 1066.40        2963.50           1402       10595.00     46224.04
 1066.43        2963.75           1406       12578.00     54894.60
 1066.47        2964.00           1409       14208.00     62025.08
 1066.50        2964.25           1412       16010.00     69911.52
 1066.53        2964.50           1416       17959.00     78445.52
 1066.56        2964.75           1419       19518.00     85274.99
 1066.59        2965.00           1422       20991.00     91730.28
 1066.62        2965.25           1426       23210.00    101459.60
 1066.65        2965.50           1429       24621.00    107649.20
 1066.68        2965.75           1432       25953.00    113494.30
 1066.71        2966.00           1436       27994.00    122454.70
 1066.74        2966.25           1439       29263.00    128028.30
 1066.77        2966.50           1442       30921.00    135313.20
 1066.81        2966.75           1446       32343.00    141563.80
 1066.84        2967.00           1449       33095.00    144870.20
 1066.87        2967.25           1452       33014.00    144514.00
 1066.90        2967.50           1456       32921.00    144105.10
 1066.93        2967.75           1459       33168.00    145191.20
 1066.96        2968.00           1462       33046.00    144654.70
 1066.99        2968.25           1466       32115.00    140561.40
 1067.02        2968.50           1469       30870.00    135089.10
 1067.05        2968.75           1472       29646.00    129710.80
 1067.08        2969.00           1476       27336.00    119565.40
 1067.11        2969.25           1479       26002.00    113709.40
 1067.15        2969.50           1482       24597.00    107543.90
 1067.18        2969.75           1486       22649.00     98999.34
 1067.21        2970.00           1489       21029.00     91896.86
 1067.24        2970.25           1492       19461.00     85025.24
 1067.27        2970.50           1496       17384.00     75927.34
 1067.30        2970.75           1499       15854.00     69228.63
 1067.33        2971.00           1502       14326.00     62541.39
 1067.36        2971.25           1506       12252.00     53468.87
 1067.40        2971.50           1509       10802.00     47128.92
 1067.43        2971.75           1513        8804.00     38396.86
 1067.46        2972.00           1516        7283.00     31752.56
 1067.49        2972.25           1519        5719.00     24923.16
 1067.52        2972.50           1523        3928.00     17105.99
 1067.55        2972.75           1526        2495.00     10854.01
 1067.58        2973.00           1529        1064.00      4613.11
 1067.61        2973.25           1533         444.00      1909.87
 1067.64        2973.50           1536         335.00      1434.67
 1067.67        2973.75           1539         265.00      1129.51
 1067.70        2974.00           1543         237.00      1007.44
 1067.74        2974.25           1546         170.00       715.36
 1067.77        2974.50           1549         136.00       567.14
 1067.80        2974.75           1553          93.00       379.69
 1067.83        2975.00           1556          70.00       279.43
 1067.86        2975.25           1559          71.00       283.79
 1067.89        2975.50           1563          61.00       240.19
 1067.92        2975.75           1566          60.00       235.83
 1067.95        2976.00           1569          61.00       240.19
 1067.98        2976.25           1573          68.00       270.71
 1068.01        2976.50           1576          73.00       292.50
 1068.04        2976.75           1579          70.00       279.43
 1068.07        2977.00           1583          63.00       248.91
 1068.10        2977.25           1586          63.00       248.91
 1068.13        2977.50           1590          66.00       261.99
 1068.17        2977.75           1593          62.00       244.55
 1068.20        2978.00           1596          61.00       240.19
 1068.23        2978.25           1600          68.00       270.71
 1068.26        2978.50           1603          73.00       292.50
 1068.29        2978.75           1606          62.00       244.55
 1068.32        2979.00           1610          74.00       296.86
 1068.35        2979.25           1613          67.00       266.35
 1068.38        2979.50           1616          64.00       253.27
 1068.41        2979.75           1620          57.00       222.76
 1068.44        2980.00           1623          62.00       244.55
 1068.47        2980.25           1626          63.00       248.91
 1068.50        2980.50           1630          56.00       218.40
 1068.53        2980.75           1633          62.00       244.55
 1068.56        2981.00           1637          61.00       240.19
 1068.60        2981.25           1640          63.00       248.91
 1068.63        2981.50           1643          54.00       209.68
 1068.66        2981.75           1647          59.00       231.48
 1068.69        2982.00           1650          60.00       235.83
 1068.72        2982.25           1653          60.00       235.83
 1068.75        2982.50           1657          55.00       214.04
 1068.78        2982.75           1660          57.00       222.76
 1068.81        2983.00           1663          65.00       257.63
 1068.84        2983.25           1667          60.00       235.83
 1068.87        2983.50           1670          62.00       244.55
 1068.90        2983.75           1673          61.00       240.19
 1068.93        2984.00           1677          51.00       196.60
HS scan finished at 17:49:09
end
