************************************************************
  HS Scan of (1) Internal mercury lamp
************************************************************
Integration time is 0.2294 seconds per sample
dh121118Manchester 53.47 2.23 2.804185pr1000
************************************************************
Dead Time -------------------------  3E-08 
Number of Cycles Used -------------  4 
Starting Wavelength (Angstroms) ---  2950 
Final Wavelength (Angstoms) -------  2984 
Wavelength Increment (Angstroms) --  .25 
Filter Wheel #1 Position ---------- (1) Ground quartz diffuser (ND=2.32)
Filter Wheel #2 Position ---------- (1) Neutral Density 0.494



************************************************************
HS scan start time = 17:12:01
Dark Count =  7.6 


Time (GMT)  Wavelength (Ang)  Step Number  Raw Counts  Counts/Second

 1032.38        2950.00           1222          45.00       163.03
 1032.44        2950.25           1226          48.00       176.11
 1032.48        2950.50           1229          42.00       149.96
 1032.51        2950.75           1232          52.00       193.55
 1032.54        2951.00           1236          45.00       163.03
 1032.57        2951.25           1239          52.00       193.55
 1032.60        2951.50           1242          45.00       163.03
 1032.63        2951.75           1246          49.00       180.47
 1032.66        2952.00           1249          48.00       176.11
 1032.69        2952.25           1252          49.00       180.47
 1032.72        2952.50           1256          47.00       171.75
 1032.75        2952.75           1259          46.00       167.39
 1032.78        2953.00           1262          48.00       176.11
 1032.81        2953.25           1266          56.00       210.99
 1032.85        2953.50           1269          50.00       184.83
 1032.88        2953.75           1272          54.00       202.27
 1032.91        2954.00           1276          45.00       163.03
 1032.94        2954.25           1279          52.00       193.55
 1032.97        2954.50           1282          60.00       228.42
 1033.00        2954.75           1286          47.00       171.75
 1033.03        2955.00           1289          51.00       189.19
 1033.06        2955.25           1292          46.00       167.39
 1033.09        2955.50           1296          49.00       180.47
 1033.12        2955.75           1299          43.00       154.32
 1033.16        2956.00           1302          58.00       219.71
 1033.19        2956.25           1306          56.00       210.99
 1033.22        2956.50           1309          51.00       189.19
 1033.25        2956.75           1312          51.00       189.19
 1033.28        2957.00           1316          50.00       184.83
 1033.31        2957.25           1319          52.00       193.55
 1033.34        2957.50           1322          51.00       189.19
 1033.37        2957.75           1326          53.00       197.91
 1033.40        2958.00           1329          58.00       219.71
 1033.43        2958.25           1332          54.00       202.27
 1033.46        2958.50           1336          51.00       189.19
 1033.49        2958.75           1339          42.00       149.96
 1033.52        2959.00           1342          49.00       180.47
 1033.56        2959.25           1346          47.00       171.75
 1033.59        2959.50           1349          54.00       202.27
 1033.62        2959.75           1352          63.00       241.50
 1033.65        2960.00           1356          80.00       315.61
 1033.68        2960.25           1359         106.00       428.95
 1033.71        2960.50           1362         133.00       546.65
 1033.74        2960.75           1366         178.00       742.82
 1033.77        2961.00           1369         216.00       908.48
 1033.80        2961.25           1372         234.00       986.95
 1033.83        2961.50           1376         286.00      1213.64
 1033.86        2961.75           1379         410.00      1754.23
 1033.90        2962.00           1382         887.00      3833.92
 1033.93        2962.25           1386        2149.00      9337.40
 1033.96        2962.50           1389        3257.00     14170.80
 1033.99        2962.75           1392        4293.00     18691.38
 1034.02        2963.00           1396        5807.00     25299.93
 1034.05        2963.25           1399        6843.00     29823.53
 1034.08        2963.50           1402        8061.00     35143.40
 1034.11        2963.75           1406        9578.00     41771.58
 1034.14        2964.00           1409       10737.00     46837.35
 1034.17        2964.25           1412       11960.00     52184.51
 1034.20        2964.50           1416       13480.00     58832.61
 1034.23        2964.75           1419       14538.00     63461.60
 1034.27        2965.00           1422       15688.00     68494.57
 1034.30        2965.25           1426       17150.00     74895.21
 1034.33        2965.50           1429       18215.00     79559.33
 1034.36        2965.75           1432       19342.00     84496.39
 1034.39        2966.00           1436       21014.00     91823.66
 1034.42        2966.25           1439       21997.00     96133.00
 1034.45        2966.50           1442       23119.00    101053.10
 1034.48        2966.75           1446       24080.00    105268.30
 1034.51        2967.00           1449       24400.00    106672.10
 1034.55        2967.25           1452       24501.00    107115.30
 1034.58        2967.50           1456       24518.00    107189.80
 1034.61        2967.75           1459       24409.00    106711.60
 1034.64        2968.00           1462       24271.00    106106.20
 1034.67        2968.25           1466       23722.00    103697.90
 1034.70        2968.50           1469       22677.00     99114.68
 1034.73        2968.75           1472       21496.00     93936.54
 1034.76        2969.00           1476       20087.00     87760.84
 1034.79        2969.25           1479       18947.00     82765.85
 1034.83        2969.50           1482       17852.00     77969.44
 1034.86        2969.75           1486       16312.00     71226.15
 1034.89        2970.00           1489       15165.00     66205.48
 1034.92        2970.25           1492       14049.00     61321.95
 1034.95        2970.50           1496       12634.00     55132.10
 1034.98        2970.75           1499       11494.00     50146.88
 1035.01        2971.00           1502       10451.00     45587.15
 1035.04        2971.25           1506        8914.00     38870.06
 1035.07        2971.50           1509        7851.00     34226.06
 1035.10        2971.75           1513        6258.00     27269.03
 1035.13        2972.00           1516        5195.00     22628.26
 1035.17        2972.25           1519        4053.00     17644.04
 1035.20        2972.50           1523        2639.00     11474.74
 1035.23        2972.75           1526        1489.00      6458.97
 1035.26        2973.00           1529         600.00      2582.59
 1035.29        2973.25           1533         305.00      1296.48
 1035.32        2973.50           1536         220.00       925.92
 1035.35        2973.75           1539         193.00       808.21
 1035.38        2974.00           1543         172.00       716.67
 1035.41        2974.25           1546         134.00       551.01
 1035.44        2974.50           1549         107.00       433.31
 1035.47        2974.75           1553          75.00       293.81
 1035.50        2975.00           1556          64.00       245.86
 1035.53        2975.25           1559          50.00       184.83
 1035.56        2975.50           1563          43.00       154.32
 1035.59        2975.75           1566          45.00       163.03
 1035.63        2976.00           1569          49.00       180.47
 1035.66        2976.25           1573          46.00       167.39
 1035.69        2976.50           1576          46.00       167.39
 1035.72        2976.75           1579          48.00       176.11
 1035.75        2977.00           1583          42.00       149.96
 1035.78        2977.25           1586          42.00       149.96
 1035.81        2977.50           1590          44.00       158.68
 1035.84        2977.75           1593          48.00       176.11
 1035.87        2978.00           1596          50.00       184.83
 1035.90        2978.25           1600          43.00       154.32
 1035.93        2978.50           1603          49.00       180.47
 1035.96        2978.75           1606          47.00       171.75
 1035.99        2979.00           1610          46.00       167.39
 1036.02        2979.25           1613          48.00       176.11
 1036.06        2979.50           1616          45.00       163.03
 1036.09        2979.75           1620          46.00       167.39
 1036.12        2980.00           1623          44.00       158.68
 1036.15        2980.25           1626          49.00       180.47
 1036.18        2980.50           1630          44.00       158.68
 1036.21        2980.75           1633          42.00       149.96
 1036.24        2981.00           1637          44.00       158.68
 1036.27        2981.25           1640          38.00       132.52
 1036.30        2981.50           1643          54.00       202.27
 1036.33        2981.75           1647          49.00       180.47
 1036.36        2982.00           1650          43.00       154.32
 1036.39        2982.25           1653          42.00       149.96
 1036.42        2982.50           1657          48.00       176.11
 1036.45        2982.75           1660          46.00       167.39
 1036.49        2983.00           1663          51.00       189.19
 1036.52        2983.25           1667          41.00       145.60
 1036.55        2983.50           1670          42.00       149.96
 1036.58        2983.75           1673          39.00       136.88
 1036.61        2984.00           1677          46.00       167.39
HS scan finished at 17:16:50
end
