************************************************************
  HS Scan of (1) Internal mercury lamp
************************************************************
Integration time is 0.2294 seconds per sample
dh061118Manchester 53.47 2.23 2.804185pr1000
************************************************************
Dead Time -------------------------  3E-08 
Number of Cycles Used -------------  4 
Starting Wavelength (Angstroms) ---  2950 
Final Wavelength (Angstoms) -------  2984 
Wavelength Increment (Angstroms) --  .25 
Filter Wheel #1 Position ---------- (1) Ground quartz diffuser (ND=2.32)
Filter Wheel #2 Position ---------- (1) Neutral Density 0.494



************************************************************
HS scan start time = 04:29:00
Dark Count =  7.9 


Time (GMT)  Wavelength (Ang)  Step Number  Raw Counts  Counts/Second

  269.36        2950.00           1222          48.00       174.80
  269.43        2950.25           1226          53.00       196.60
  269.46        2950.50           1229          45.00       161.73
  269.49        2950.75           1232          56.00       209.68
  269.52        2951.00           1236          52.00       192.24
  269.55        2951.25           1239          47.00       170.45
  269.58        2951.50           1242          45.00       161.73
  269.62        2951.75           1246          42.00       148.65
  269.65        2952.00           1249          42.00       148.65
  269.68        2952.25           1252          58.00       218.40
  269.71        2952.50           1256          49.00       179.16
  269.74        2952.75           1259          51.00       187.88
  269.77        2953.00           1262          46.00       166.09
  269.80        2953.25           1266          48.00       174.80
  269.83        2953.50           1269          44.00       157.37
  269.86        2953.75           1272          53.00       196.60
  269.89        2954.00           1276          53.00       196.60
  269.92        2954.25           1279          54.00       200.96
  269.95        2954.50           1282          47.00       170.45
  269.98        2954.75           1286          48.00       174.80
  270.02        2955.00           1289          48.00       174.80
  270.05        2955.25           1292          47.00       170.45
  270.08        2955.50           1296          45.00       161.73
  270.11        2955.75           1299          54.00       200.96
  270.14        2956.00           1302          56.00       209.68
  270.17        2956.25           1306          43.00       153.01
  270.20        2956.50           1309          48.00       174.80
  270.23        2956.75           1312          45.00       161.73
  270.26        2957.00           1316          43.00       153.01
  270.29        2957.25           1319          53.00       196.60
  270.32        2957.50           1322          48.00       174.80
  270.35        2957.75           1326          55.00       205.32
  270.38        2958.00           1329          44.00       157.37
  270.41        2958.25           1332          50.00       183.52
  270.44        2958.50           1336          45.00       161.73
  270.48        2958.75           1339          54.00       200.96
  270.51        2959.00           1342          50.00       183.52
  270.54        2959.25           1346          46.00       166.09
  270.57        2959.50           1349          48.00       174.80
  270.60        2959.75           1352          57.00       214.04
  270.63        2960.00           1356          66.00       253.27
  270.66        2960.25           1359          84.00       331.74
  270.69        2960.50           1362          97.00       388.41
  270.72        2960.75           1366         147.00       606.38
  270.75        2961.00           1369         178.00       741.52
  270.78        2961.25           1372         227.00       955.13
  270.81        2961.50           1376         267.00      1129.51
  270.84        2961.75           1379         405.00      1731.13
  270.88        2962.00           1382         886.00      3828.25
  270.91        2962.25           1386        2201.00      9562.90
  270.94        2962.50           1389        3241.00     14099.69
  270.97        2962.75           1392        4347.00     18925.74
  271.00        2963.00           1396        5812.00     25320.45
  271.03        2963.25           1399        7035.00     30660.71
  271.06        2963.50           1402        8176.00     35644.46
  271.09        2963.75           1406        9772.00     42618.10
  271.12        2964.00           1409       10873.00     47430.57
  271.16        2964.25           1412       11998.00     52349.37
  271.19        2964.50           1416       13640.00     59531.25
  271.22        2964.75           1419       14865.00     64891.24
  271.25        2965.00           1422       16113.00     70353.66
  271.28        2965.25           1426       17565.00     76711.21
  271.31        2965.50           1429       18690.00     81638.68
  271.34        2965.75           1432       19823.00     86602.66
  271.37        2966.00           1436       21222.00     92734.09
  271.40        2966.25           1439       22474.00     98223.19
  271.44        2966.50           1442       23438.00    102450.80
  271.47        2966.75           1446       24344.00    106425.10
  271.50        2967.00           1449       24793.00    108395.10
  271.53        2967.25           1452       24732.00    108127.40
  271.56        2967.50           1456       24881.00    108781.20
  271.59        2967.75           1459       24686.00    107925.60
  271.62        2968.00           1462       24444.00    106863.90
  271.65        2968.25           1466       23783.00    103964.10
  271.68        2968.50           1469       22805.00     99674.68
  271.71        2968.75           1472       21705.00     94851.47
  271.75        2969.00           1476       20210.00     88298.55
  271.78        2969.25           1479       19059.00     83255.20
  271.81        2969.50           1482       18015.00     78682.02
  271.84        2969.75           1486       16571.00     72358.73
  271.87        2970.00           1489       15418.00     67311.46
  271.90        2970.25           1492       14225.00     62090.70
  271.93        2970.50           1496       12541.00     54724.03
  271.96        2970.75           1499       11557.00     50421.02
  271.99        2971.00           1502       10472.00     45677.64
  272.03        2971.25           1506        8900.00     38807.58
  272.06        2971.50           1509        7844.00     34194.17
  272.09        2971.75           1513        6274.00     27337.59
  272.12        2972.00           1516        5228.00     22771.00
  272.15        2972.25           1519        4058.00     17664.55
  272.18        2972.50           1523        2664.00     11582.49
  272.21        2972.75           1526        1585.00      6876.31
  272.24        2973.00           1529         765.00      3300.68
  272.27        2973.25           1533         358.00      1526.23
  272.30        2973.50           1536         292.00      1238.49
  272.33        2973.75           1539         239.00      1007.44
  272.37        2974.00           1543         204.00       854.86
  272.40        2974.25           1546         173.00       719.72
  272.43        2974.50           1549         142.00       584.58
  272.46        2974.75           1553          99.00       397.13
  272.49        2975.00           1556          74.00       288.15
  272.52        2975.25           1559          53.00       196.60
  272.55        2975.50           1563          47.00       170.45
  272.58        2975.75           1566          49.00       179.16
  272.61        2976.00           1569          58.00       218.40
  272.64        2976.25           1573          45.00       161.73
  272.67        2976.50           1576          43.00       153.01
  272.70        2976.75           1579          46.00       166.09
  272.73        2977.00           1583          49.00       179.16
  272.76        2977.25           1586          43.00       153.01
  272.79        2977.50           1590          51.00       187.88
  272.82        2977.75           1593          42.00       148.65
  272.86        2978.00           1596          45.00       161.73
  272.89        2978.25           1600          53.00       196.60
  272.92        2978.50           1603          46.00       166.09
  272.95        2978.75           1606          45.00       161.73
  272.98        2979.00           1610          44.00       157.37
  273.01        2979.25           1613          46.00       166.09
  273.04        2979.50           1616          43.00       153.01
  273.07        2979.75           1620          43.00       153.01
  273.10        2980.00           1623          52.00       192.24
  273.13        2980.25           1626          42.00       148.65
  273.17        2980.50           1630          47.00       170.45
  273.20        2980.75           1633          41.00       144.29
  273.23        2981.00           1637          44.00       157.37
  273.26        2981.25           1640          37.00       126.85
  273.29        2981.50           1643          42.00       148.65
  273.32        2981.75           1647          49.00       179.16
  273.35        2982.00           1650          48.00       174.80
  273.38        2982.25           1653          41.00       144.29
  273.41        2982.50           1657          47.00       170.45
  273.44        2982.75           1660          50.00       183.52
  273.47        2983.00           1663          41.00       144.29
  273.50        2983.25           1667          44.00       157.37
  273.53        2983.50           1670          48.00       174.80
  273.57        2983.75           1673          41.00       144.29
  273.60        2984.00           1677          57.00       214.04
HS scan finished at 04:33:49
end
************************************************************
  HS Scan of (1) Internal mercury lamp
************************************************************
Integration time is 0.2294 seconds per sample
dh061118Manchester 53.47 2.23 2.804185pr1000
************************************************************
Dead Time -------------------------  3E-08 
Number of Cycles Used -------------  4 
Starting Wavelength (Angstroms) ---  2950 
Final Wavelength (Angstoms) -------  2984 
Wavelength Increment (Angstroms) --  .25 
Filter Wheel #1 Position ---------- (1) Ground quartz diffuser (ND=2.32)
Filter Wheel #2 Position ---------- (1) Neutral Density 0.494



************************************************************
HS scan start time = 17:42:04
Dark Count =  7.6 


Time (GMT)  Wavelength (Ang)  Step Number  Raw Counts  Counts/Second

 1062.43        2950.00           1222          50.00       184.83
 1062.50        2950.25           1226          56.00       210.99
 1062.53        2950.50           1229          49.00       180.47
 1062.56        2950.75           1232          41.00       145.60
 1062.59        2951.00           1236          61.00       232.78
 1062.62        2951.25           1239          43.00       154.32
 1062.66        2951.50           1242          55.00       206.63
 1062.69        2951.75           1246          50.00       184.83
 1062.72        2952.00           1249          55.00       206.63
 1062.75        2952.25           1252          46.00       167.39
 1062.78        2952.50           1256          42.00       149.96
 1062.81        2952.75           1259          54.00       202.27
 1062.84        2953.00           1262          49.00       180.47
 1062.87        2953.25           1266          61.00       232.78
 1062.90        2953.50           1269          47.00       171.75
 1062.93        2953.75           1272          41.00       145.60
 1062.97        2954.00           1276          56.00       210.99
 1063.00        2954.25           1279          50.00       184.83
 1063.03        2954.50           1282          51.00       189.19
 1063.06        2954.75           1286          51.00       189.19
 1063.09        2955.00           1289          47.00       171.75
 1063.12        2955.25           1292          45.00       163.03
 1063.15        2955.50           1296          49.00       180.47
 1063.18        2955.75           1299          45.00       163.03
 1063.21        2956.00           1302          53.00       197.91
 1063.24        2956.25           1306          54.00       202.27
 1063.27        2956.50           1309          48.00       176.11
 1063.30        2956.75           1312          43.00       154.32
 1063.33        2957.00           1316          55.00       206.63
 1063.36        2957.25           1319          50.00       184.83
 1063.39        2957.50           1322          47.00       171.75
 1063.42        2957.75           1326          47.00       171.75
 1063.45        2958.00           1329          57.00       215.35
 1063.48        2958.25           1332          50.00       184.83
 1063.51        2958.50           1336          46.00       167.39
 1063.54        2958.75           1339          47.00       171.75
 1063.58        2959.00           1342          49.00       180.47
 1063.61        2959.25           1346          44.00       158.68
 1063.64        2959.50           1349          53.00       197.91
 1063.67        2959.75           1352          67.00       258.94
 1063.70        2960.00           1356          76.00       298.17
 1063.73        2960.25           1359          91.00       363.56
 1063.76        2960.50           1362         132.00       542.29
 1063.79        2960.75           1366         170.00       707.95
 1063.82        2961.00           1369         200.00       838.73
 1063.85        2961.25           1372         224.00       943.36
 1063.88        2961.50           1376         286.00      1213.64
 1063.91        2961.75           1379         409.00      1749.87
 1063.94        2962.00           1382         929.00      4017.05
 1063.97        2962.25           1386        2228.00      9681.97
 1064.01        2962.50           1389        3195.00     13900.30
 1064.04        2962.75           1392        4354.00     18957.60
 1064.07        2963.00           1396        5944.00     25898.06
 1064.10        2963.25           1399        6962.00     30343.22
 1064.13        2963.50           1402        8112.00     35366.19
 1064.16        2963.75           1406        9649.00     42081.87
 1064.19        2964.00           1409       10916.00     47619.86
 1064.22        2964.25           1412       12045.00     52556.21
 1064.25        2964.50           1416       13783.00     60158.17
 1064.29        2964.75           1419       14721.00     64262.40
 1064.32        2965.00           1422       15923.00     69523.24
 1064.35        2965.25           1426       17376.00     75884.86
 1064.38        2965.50           1429       18449.00     80584.30
 1064.41        2965.75           1432       19649.00     85841.53
 1064.44        2966.00           1436       21186.00     92577.60
 1064.47        2966.25           1439       22210.00     97066.90
 1064.50        2966.50           1442       23274.00    101732.90
 1064.53        2966.75           1446       24292.00    106198.30
 1064.57        2967.00           1449       24440.00    106847.60
 1064.60        2967.25           1452       24515.00    107176.70
 1064.63        2967.50           1456       24536.00    107268.80
 1064.66        2967.75           1459       24393.00    106641.40
 1064.69        2968.00           1462       24335.00    106387.00
 1064.72        2968.25           1466       23676.00    103496.10
 1064.75        2968.50           1469       22691.00     99176.08
 1064.78        2968.75           1472       21428.00     93638.44
 1064.81        2969.00           1476       20119.00     87901.07
 1064.85        2969.25           1479       18905.00     82581.85
 1064.88        2969.50           1482       17828.00     77864.33
 1064.91        2969.75           1486       16411.00     71659.56
 1064.94        2970.00           1489       15129.00     66047.93
 1064.97        2970.25           1492       14083.00     61470.71
 1065.00        2970.50           1496       12587.00     54926.53
 1065.03        2970.75           1499       11568.00     50470.44
 1065.06        2971.00           1502       10315.00     44992.69
 1065.09        2971.25           1506        8945.00     39005.52
 1065.12        2971.50           1509        7789.00     33955.24
 1065.15        2971.75           1513        6296.00     27434.95
 1065.19        2972.00           1516        5103.00     22226.67
 1065.22        2972.25           1519        3958.00     17229.48
 1065.25        2972.50           1523        2600.00     11304.62
 1065.28        2972.75           1526        1501.00      6511.30
 1065.31        2973.00           1529         742.00      3201.70
 1065.34        2973.25           1533         327.00      1392.39
 1065.37        2973.50           1536         257.00      1087.22
 1065.40        2973.75           1539         230.00       969.51
 1065.43        2974.00           1543         186.00       777.70
 1065.46        2974.25           1546         148.00       612.04
 1065.49        2974.50           1549         112.00       455.11
 1065.52        2974.75           1553          80.00       315.61
 1065.56        2975.00           1556          60.00       228.42
 1065.59        2975.25           1559          52.00       193.55
 1065.62        2975.50           1563          56.00       210.99
 1065.65        2975.75           1566          45.00       163.03
 1065.68        2976.00           1569          41.00       145.60
 1065.71        2976.25           1573          46.00       167.39
 1065.74        2976.50           1576          47.00       171.75
 1065.77        2976.75           1579          49.00       180.47
 1065.80        2977.00           1583          51.00       189.19
 1065.83        2977.25           1586          49.00       180.47
 1065.86        2977.50           1590          49.00       180.47
 1065.89        2977.75           1593          44.00       158.68
 1065.93        2978.00           1596          44.00       158.68
 1065.96        2978.25           1600          45.00       163.03
 1065.99        2978.50           1603          46.00       167.39
 1066.02        2978.75           1606          49.00       180.47
 1066.05        2979.00           1610          52.00       193.55
 1066.08        2979.25           1613          45.00       163.03
 1066.11        2979.50           1616          53.00       197.91
 1066.14        2979.75           1620          44.00       158.68
 1066.17        2980.00           1623          47.00       171.75
 1066.20        2980.25           1626          43.00       154.32
 1066.23        2980.50           1630          37.00       128.16
 1066.27        2980.75           1633          51.00       189.19
 1066.30        2981.00           1637          48.00       176.11
 1066.33        2981.25           1640          43.00       154.32
 1066.36        2981.50           1643          40.00       141.24
 1066.39        2981.75           1647          45.00       163.03
 1066.42        2982.00           1650          42.00       149.96
 1066.45        2982.25           1653          50.00       184.83
 1066.48        2982.50           1657          58.00       219.71
 1066.51        2982.75           1660          39.00       136.88
 1066.54        2983.00           1663          44.00       158.68
 1066.58        2983.25           1667          45.00       163.03
 1066.61        2983.50           1670          40.00       141.24
 1066.64        2983.75           1673          47.00       171.75
 1066.67        2984.00           1677          46.00       167.39
HS scan finished at 17:46:53
end
