************************************************************
  HS Scan of (1) Internal mercury lamp
************************************************************
Integration time is 0.2294 seconds per sample
dh131118Manchester 53.47 2.23 2.804185pr1000
************************************************************
Dead Time -------------------------  3E-08 
Number of Cycles Used -------------  4 
Starting Wavelength (Angstroms) ---  2950 
Final Wavelength (Angstoms) -------  2984 
Wavelength Increment (Angstroms) --  .25 
Filter Wheel #1 Position ---------- (1) Ground quartz diffuser (ND=2.32)
Filter Wheel #2 Position ---------- (1) Neutral Density 0.494



************************************************************
HS scan start time = 04:41:43
Dark Count =  7.3 


Time (GMT)  Wavelength (Ang)  Step Number  Raw Counts  Counts/Second

  282.09        2950.00           1222          45.00       164.34
  282.16        2950.25           1226          50.00       186.14
  282.19        2950.50           1229          51.00       190.50
  282.22        2950.75           1232          47.00       173.06
  282.25        2951.00           1236          51.00       190.50
  282.28        2951.25           1239          52.00       194.86
  282.31        2951.50           1242          56.00       212.29
  282.34        2951.75           1246          43.00       155.62
  282.37        2952.00           1249          46.00       168.70
  282.40        2952.25           1252          55.00       207.94
  282.43        2952.50           1256          46.00       168.70
  282.46        2952.75           1259          52.00       194.86
  282.49        2953.00           1262          50.00       186.14
  282.53        2953.25           1266          50.00       186.14
  282.56        2953.50           1269          48.00       177.42
  282.59        2953.75           1272          54.00       203.58
  282.62        2954.00           1276          50.00       186.14
  282.65        2954.25           1279          51.00       190.50
  282.68        2954.50           1282          51.00       190.50
  282.71        2954.75           1286          48.00       177.42
  282.74        2955.00           1289          55.00       207.94
  282.77        2955.25           1292          46.00       168.70
  282.80        2955.50           1296          49.00       181.78
  282.83        2955.75           1299          50.00       186.14
  282.86        2956.00           1302          47.00       173.06
  282.89        2956.25           1306          54.00       203.58
  282.92        2956.50           1309          55.00       207.94
  282.95        2956.75           1312          47.00       173.06
  282.98        2957.00           1316          49.00       181.78
  283.02        2957.25           1319          38.00       133.83
  283.05        2957.50           1322          47.00       173.06
  283.08        2957.75           1326          55.00       207.94
  283.11        2958.00           1329          43.00       155.62
  283.14        2958.25           1332          46.00       168.70
  283.17        2958.50           1336          50.00       186.14
  283.20        2958.75           1339          46.00       168.70
  283.23        2959.00           1342          47.00       173.06
  283.26        2959.25           1346          51.00       190.50
  283.29        2959.50           1349          58.00       221.01
  283.32        2959.75           1352          62.00       238.45
  283.35        2960.00           1356          74.00       290.76
  283.38        2960.25           1359          99.00       399.74
  283.42        2960.50           1362         126.00       517.44
  283.45        2960.75           1366         159.00       661.30
  283.48        2961.00           1369         182.00       761.57
  283.51        2961.25           1372         231.00       975.18
  283.54        2961.50           1376         295.00      1254.19
  283.57        2961.75           1379         440.00      1886.33
  283.60        2962.00           1382         990.00      4284.33
  283.63        2962.25           1386        2353.00     10228.51
  283.66        2962.50           1389        3407.00     14826.56
  283.69        2962.75           1392        4627.00     20150.37
  283.72        2963.00           1396        5924.00     25812.05
  283.75        2963.25           1399        7060.00     30772.51
  283.78        2963.50           1402        8339.00     36359.17
  283.82        2963.75           1406        9891.00     43140.81
  283.85        2964.00           1409       10916.00     47621.17
  283.88        2964.25           1412       12184.00     53165.38
  283.91        2964.50           1416       13669.00     59660.74
  283.94        2964.75           1419       14689.00     64123.68
  283.97        2965.00           1422       15906.00     69450.13
  284.00        2965.25           1426       17485.00     76363.50
  284.03        2965.50           1429       18693.00     81654.44
  284.06        2965.75           1432       19779.00     86412.48
  284.09        2966.00           1436       21272.00     92955.90
  284.13        2966.25           1439       22215.00     97090.14
  284.16        2966.50           1442       23352.00    102076.30
  284.19        2966.75           1446       24338.00    106401.40
  284.22        2967.00           1449       24529.00    107239.40
  284.25        2967.25           1452       24601.00    107555.30
  284.28        2967.50           1456       24580.00    107463.20
  284.31        2967.75           1459       24635.00    107704.50
  284.34        2968.00           1462       24397.00    106660.30
  284.37        2968.25           1466       23501.00    102729.80
  284.40        2968.50           1469       22553.00     98572.22
  284.43        2968.75           1472       21531.00     94091.29
  284.47        2969.00           1476       20039.00     87551.80
  284.50        2969.25           1479       18884.00     82491.16
  284.53        2969.50           1482       17755.00     77545.93
  284.56        2969.75           1486       16349.00     71389.44
  284.59        2970.00           1489       15212.00     66412.49
  284.62        2970.25           1492       14163.00     61822.05
  284.65        2970.50           1496       12683.00     55347.71
  284.68        2970.75           1499       11566.00     50463.00
  284.71        2971.00           1502       10411.00     45413.62
  284.74        2971.25           1506        8871.00     38683.49
  284.78        2971.50           1509        7758.00     33821.14
  284.81        2971.75           1513        6121.00     26672.17
  284.84        2972.00           1516        5112.00     22267.27
  284.87        2972.25           1519        4053.00     17645.35
  284.90        2972.50           1523        2624.00     11410.62
  284.93        2972.75           1526        1490.00      6464.64
  284.96        2973.00           1529         708.00      3054.77
  284.99        2973.25           1533         336.00      1432.93
  285.02        2973.50           1536         251.00      1062.37
  285.05        2973.75           1539         215.00       905.43
  285.08        2974.00           1543         168.00       700.54
  285.11        2974.25           1546         141.00       582.83
  285.14        2974.50           1549         106.00       430.26
  285.17        2974.75           1553          79.00       312.56
  285.20        2975.00           1556          59.00       225.37
  285.24        2975.25           1559          55.00       207.94
  285.27        2975.50           1563          50.00       186.14
  285.30        2975.75           1566          47.00       173.06
  285.33        2976.00           1569          45.00       164.34
  285.36        2976.25           1573          55.00       207.94
  285.39        2976.50           1576          49.00       181.78
  285.42        2976.75           1579          50.00       186.14
  285.45        2977.00           1583          49.00       181.78
  285.48        2977.25           1586          44.00       159.98
  285.52        2977.50           1590          39.00       138.19
  285.55        2977.75           1593          48.00       177.42
  285.58        2978.00           1596          46.00       168.70
  285.61        2978.25           1600          44.00       159.98
  285.64        2978.50           1603          48.00       177.42
  285.67        2978.75           1606          47.00       173.06
  285.70        2979.00           1610          41.00       146.91
  285.73        2979.25           1613          42.00       151.26
  285.76        2979.50           1616          40.00       142.55
  285.79        2979.75           1620          53.00       199.22
  285.83        2980.00           1623          45.00       164.34
  285.86        2980.25           1626          45.00       164.34
  285.89        2980.50           1630          49.00       181.78
  285.92        2980.75           1633          43.00       155.62
  285.95        2981.00           1637          46.00       168.70
  285.98        2981.25           1640          42.00       151.26
  286.01        2981.50           1643          42.00       151.26
  286.04        2981.75           1647          42.00       151.26
  286.07        2982.00           1650          43.00       155.62
  286.10        2982.25           1653          44.00       159.98
  286.13        2982.50           1657          40.00       142.55
  286.16        2982.75           1660          46.00       168.70
  286.20        2983.00           1663          44.00       159.98
  286.23        2983.25           1667          52.00       194.86
  286.26        2983.50           1670          46.00       168.70
  286.29        2983.75           1673          45.00       164.34
  286.32        2984.00           1677          45.00       164.34
HS scan finished at 04:46:32
end
************************************************************
  HS Scan of (1) Internal mercury lamp
************************************************************
Integration time is 0.2294 seconds per sample
dh131118Manchester 53.47 2.23 2.804185pr1000
************************************************************
Dead Time -------------------------  3E-08 
Number of Cycles Used -------------  4 
Starting Wavelength (Angstroms) ---  2950 
Final Wavelength (Angstoms) -------  2984 
Wavelength Increment (Angstroms) --  .25 
Filter Wheel #1 Position ---------- (1) Ground quartz diffuser (ND=2.32)
Filter Wheel #2 Position ---------- (1) Neutral Density 0.494



************************************************************
HS scan start time = 17:12:03
Dark Count =  6 


Time (GMT)  Wavelength (Ang)  Step Number  Raw Counts  Counts/Second

 1032.43        2950.00           1222          43.00       161.29
 1032.49        2950.25           1226          48.00       183.09
 1032.53        2950.50           1229          47.00       178.73
 1032.56        2950.75           1232          45.00       170.01
 1032.59        2951.00           1236          42.00       156.93
 1032.62        2951.25           1239          61.00       239.76
 1032.65        2951.50           1242          50.00       191.81
 1032.68        2951.75           1246          48.00       183.09
 1032.71        2952.00           1249          49.00       187.45
 1032.74        2952.25           1252          42.00       156.93
 1032.77        2952.50           1256          45.00       170.01
 1032.80        2952.75           1259          49.00       187.45
 1032.83        2953.00           1262          44.00       165.65
 1032.86        2953.25           1266          55.00       213.60
 1032.89        2953.50           1269          42.00       156.93
 1032.93        2953.75           1272          52.00       200.52
 1032.96        2954.00           1276          57.00       222.32
 1032.99        2954.25           1279          45.00       170.01
 1033.02        2954.50           1282          53.00       204.88
 1033.05        2954.75           1286          49.00       187.45
 1033.08        2955.00           1289          50.00       191.81
 1033.11        2955.25           1292          48.00       183.09
 1033.14        2955.50           1296          51.00       196.17
 1033.17        2955.75           1299          46.00       174.37
 1033.20        2956.00           1302          50.00       191.81
 1033.24        2956.25           1306          50.00       191.81
 1033.27        2956.50           1309          48.00       183.09
 1033.30        2956.75           1312          50.00       191.81
 1033.33        2957.00           1316          60.00       235.40
 1033.36        2957.25           1319          47.00       178.73
 1033.39        2957.50           1322          60.00       235.40
 1033.42        2957.75           1326          57.00       222.32
 1033.45        2958.00           1329          51.00       196.17
 1033.48        2958.25           1332          44.00       165.65
 1033.52        2958.50           1336          48.00       183.09
 1033.55        2958.75           1339          45.00       170.01
 1033.58        2959.00           1342          49.00       187.45
 1033.61        2959.25           1346          52.00       200.52
 1033.64        2959.50           1349          62.00       244.12
 1033.67        2959.75           1352          61.00       239.76
 1033.70        2960.00           1356          81.00       326.94
 1033.73        2960.25           1359          90.00       366.18
 1033.76        2960.50           1362         113.00       466.44
 1033.79        2960.75           1366         151.00       632.10
 1033.82        2961.00           1369         193.00       815.19
 1033.86        2961.25           1372         212.00       898.02
 1033.89        2961.50           1376         275.00      1172.67
 1033.92        2961.75           1379         444.00      1909.44
 1033.95        2962.00           1382        1055.00      4573.43
 1033.98        2962.25           1386        2357.00     10251.63
 1034.01        2962.50           1389        3512.00     15290.36
 1034.04        2962.75           1392        4528.00     19723.96
 1034.07        2963.00           1396        5989.00     26101.51
 1034.10        2963.25           1399        7083.00     30878.64
 1034.13        2963.50           1402        8134.00     35469.29
 1034.17        2963.75           1406        9811.00     42796.85
 1034.20        2964.00           1409       10828.00     47242.15
 1034.23        2964.25           1412       12024.00     52471.38
 1034.26        2964.50           1416       13560.00     59189.58
 1034.29        2964.75           1419       14707.00     64208.14
 1034.32        2965.00           1422       15803.00     69004.96
 1034.35        2965.25           1426       17413.00     76053.88
 1034.38        2965.50           1429       18649.00     81467.40
 1034.41        2965.75           1432       19558.00     85449.81
 1034.45        2966.00           1436       21090.00     92163.81
 1034.48        2966.25           1439       22098.00     96582.84
 1034.51        2966.50           1442       23130.00    101108.30
 1034.54        2966.75           1446       24110.00    105406.90
 1034.57        2967.00           1449       24386.00    106617.70
 1034.60        2967.25           1452       24374.00    106565.10
 1034.63        2967.50           1456       24358.00    106494.90
 1034.66        2967.75           1459       24186.00    105740.30
 1034.69        2968.00           1462       24062.00    105196.30
 1034.73        2968.25           1466       23102.00    100985.50
 1034.76        2968.50           1469       22269.00     97332.62
 1034.79        2968.75           1472       21290.00     93040.50
 1034.82        2969.00           1476       19736.00     86229.76
 1034.85        2969.25           1479       18727.00     81809.08
 1034.88        2969.50           1482       17664.00     77153.10
 1034.91        2969.75           1486       16200.00     70742.83
 1034.94        2970.00           1489       15086.00     65866.73
 1034.97        2970.25           1492       14055.00     61355.21
 1035.00        2970.50           1496       12382.00     54036.96
 1035.04        2970.75           1499       11382.00     49664.18
 1035.07        2971.00           1502       10115.00     44125.51
 1035.10        2971.25           1506        8669.00     37806.59
 1035.13        2971.50           1509        7534.00     32848.40
 1035.16        2971.75           1513        5972.00     26027.29
 1035.19        2972.00           1516        4910.00     21391.23
 1035.22        2972.25           1519        3793.00     16516.47
 1035.25        2972.50           1523        2361.00     10269.07
 1035.28        2972.75           1526        1346.00      5842.35
 1035.31        2973.00           1529         636.00      2746.52
 1035.35        2973.25           1533         317.00      1355.77
 1035.38        2973.50           1536         250.00      1063.68
 1035.41        2973.75           1539         197.00       832.63
 1035.44        2974.00           1543         175.00       736.72
 1035.47        2974.25           1546         142.00       592.86
 1035.50        2974.50           1549         109.00       449.00
 1035.53        2974.75           1553          74.00       296.43
 1035.56        2975.00           1556          62.00       244.12
 1035.59        2975.25           1559          61.00       239.76
 1035.62        2975.50           1563          41.00       152.57
 1035.65        2975.75           1566          60.00       235.40
 1035.68        2976.00           1569          45.00       170.01
 1035.71        2976.25           1573          44.00       165.65
 1035.74        2976.50           1576          50.00       191.81
 1035.77        2976.75           1579          48.00       183.09
 1035.80        2977.00           1583          43.00       161.29
 1035.83        2977.25           1586          46.00       174.37
 1035.87        2977.50           1590          46.00       174.37
 1035.90        2977.75           1593          48.00       183.09
 1035.93        2978.00           1596          40.00       148.21
 1035.96        2978.25           1600          46.00       174.37
 1035.99        2978.50           1603          52.00       200.52
 1036.02        2978.75           1606          54.00       209.24
 1036.05        2979.00           1610          47.00       178.73
 1036.08        2979.25           1613          48.00       183.09
 1036.11        2979.50           1616          39.00       143.85
 1036.14        2979.75           1620          49.00       187.45
 1036.17        2980.00           1623          46.00       174.37
 1036.20        2980.25           1626          42.00       156.93
 1036.23        2980.50           1630          41.00       152.57
 1036.26        2980.75           1633          41.00       152.57
 1036.30        2981.00           1637          49.00       187.45
 1036.33        2981.25           1640          47.00       178.73
 1036.36        2981.50           1643          47.00       178.73
 1036.39        2981.75           1647          45.00       170.01
 1036.42        2982.00           1650          47.00       178.73
 1036.45        2982.25           1653          38.00       139.49
 1036.48        2982.50           1657          44.00       165.65
 1036.51        2982.75           1660          47.00       178.73
 1036.54        2983.00           1663          44.00       165.65
 1036.57        2983.25           1667          46.00       174.37
 1036.60        2983.50           1670          45.00       170.01
 1036.63        2983.75           1673          44.00       165.65
 1036.66        2984.00           1677          45.00       170.01
HS scan finished at 17:16:53
end
