************************************************************
  HS Scan of (1) Internal mercury lamp
************************************************************
Integration time is 0.2294 seconds per sample
dh141117Manchester 53.47 2.23 2.804185pr1000
************************************************************
Dead Time -------------------------  3E-08 
Number of Cycles Used -------------  4 
Starting Wavelength (Angstroms) ---  2950 
Final Wavelength (Angstoms) -------  2984 
Wavelength Increment (Angstroms) --  .25 
Filter Wheel #1 Position ---------- (1) Ground quartz diffuser (ND=2.32)
Filter Wheel #2 Position ---------- (1) Neutral Density 0.494



************************************************************
HS scan start time = 04:43:43
Dark Count =  5.5 


Time (GMT)  Wavelength (Ang)  Step Number  Raw Counts  Counts/Second

  284.08        2950.00           1222          67.00       268.09
  284.15        2950.25           1226          64.00       255.02
  284.18        2950.50           1229          75.00       302.97
  284.21        2950.75           1232          52.00       202.70
  284.24        2951.00           1236          66.00       263.73
  284.27        2951.25           1239          67.00       268.09
  284.30        2951.50           1242          72.00       289.89
  284.33        2951.75           1246          66.00       263.73
  284.36        2952.00           1249          68.00       272.45
  284.39        2952.25           1252          67.00       268.09
  284.43        2952.50           1256          76.00       307.33
  284.46        2952.75           1259          66.00       263.73
  284.49        2953.00           1262          65.00       259.37
  284.52        2953.25           1266          61.00       241.94
  284.55        2953.50           1269          64.00       255.02
  284.58        2953.75           1272          74.00       298.61
  284.61        2954.00           1276          59.00       233.22
  284.64        2954.25           1279          67.00       268.09
  284.67        2954.50           1282          67.00       268.09
  284.70        2954.75           1286          54.00       211.42
  284.73        2955.00           1289          68.00       272.45
  284.76        2955.25           1292          61.00       241.94
  284.80        2955.50           1296          69.00       276.81
  284.83        2955.75           1299          61.00       241.94
  284.86        2956.00           1302          71.00       285.53
  284.89        2956.25           1306          67.00       268.09
  284.92        2956.50           1309          80.00       324.76
  284.95        2956.75           1312          64.00       255.02
  284.98        2957.00           1316          60.00       237.58
  285.01        2957.25           1319          71.00       285.53
  285.04        2957.50           1322          63.00       250.66
  285.07        2957.75           1326          65.00       259.37
  285.11        2958.00           1329          67.00       268.09
  285.14        2958.25           1332          62.00       246.30
  285.17        2958.50           1336          59.00       233.22
  285.20        2958.75           1339          62.00       246.30
  285.23        2959.00           1342          68.00       272.45
  285.26        2959.25           1346          65.00       259.37
  285.29        2959.50           1349          69.00       276.81
  285.32        2959.75           1352          86.00       350.92
  285.35        2960.00           1356         110.00       455.54
  285.38        2960.25           1359         129.00       538.37
  285.42        2960.50           1362         186.00       786.85
  285.45        2960.75           1366         220.00       935.07
  285.48        2961.00           1369         275.00      1174.85
  285.51        2961.25           1372         293.00      1253.32
  285.54        2961.50           1376         380.00      1632.60
  285.57        2961.75           1379         478.00      2059.85
  285.60        2962.00           1382         801.00      3468.10
  285.63        2962.25           1386        2168.00      9429.43
  285.66        2962.50           1389        3602.00     15685.24
  285.69        2962.75           1392        5086.00     22161.64
  285.72        2963.00           1396        7151.00     31177.80
  285.75        2963.25           1399        8738.00     38110.24
  285.78        2963.50           1402       10390.00     45329.70
  285.82        2963.75           1406       12402.00     54126.62
  285.85        2964.00           1409       13657.00     59616.12
  285.88        2964.25           1412       15537.00     67842.83
  285.91        2964.50           1416       17602.00     76883.76
  285.94        2964.75           1419       19132.00     83585.53
  285.97        2965.00           1422       20816.00     90964.99
  286.00        2965.25           1426       22932.00    100242.20
  286.03        2965.50           1429       24573.00    107440.40
  286.06        2965.75           1432       26053.00    113935.00
  286.09        2966.00           1436       28128.00    123044.90
  286.13        2966.25           1439       29517.00    129145.90
  286.16        2966.50           1442       31164.00    136382.90
  286.19        2966.75           1446       32942.00    144199.20
  286.22        2967.00           1449       33427.00    146331.90
  286.25        2967.25           1452       33604.00    147110.30
  286.28        2967.50           1456       33717.00    147607.30
  286.31        2967.75           1459       33609.00    147132.30
  286.34        2968.00           1462       33608.00    147127.90
  286.37        2968.25           1466       33063.00    144731.20
  286.40        2968.50           1469       31962.00    139890.60
  286.44        2968.75           1472       30496.00    133447.30
  286.47        2969.00           1476       28198.00    123352.30
  286.50        2969.25           1479       26910.00    117696.90
  286.53        2969.50           1482       25485.00    111442.10
  286.56        2969.75           1486       23175.00    101307.90
  286.59        2970.00           1489       21731.00     94975.99
  286.62        2970.25           1492       20303.00     88716.62
  286.65        2970.50           1496       18434.00     80527.79
  286.68        2970.75           1499       16713.00     72990.96
  286.72        2971.00           1502       15372.00     67120.63
  286.75        2971.25           1506       13353.00     58286.23
  286.78        2971.50           1509       11771.00     51367.24
  286.81        2971.75           1513        9732.00     42453.78
  286.84        2972.00           1516        8097.00     35309.84
  286.87        2972.25           1519        6502.00     28343.62
  286.90        2972.50           1523        4437.00     19328.99
  286.93        2972.75           1526        3021.00     13150.35
  286.96        2973.00           1529        1734.00      7536.58
  286.99        2973.25           1533         601.00      2596.10
  287.02        2973.50           1536         380.00      1632.60
  287.06        2973.75           1539         302.00      1292.55
  287.09        2974.00           1543         258.00      1100.73
  287.12        2974.25           1546         197.00       834.81
  287.15        2974.50           1549         152.00       638.63
  287.18        2974.75           1553         111.00       459.90
  287.21        2975.00           1556          94.00       385.79
  287.24        2975.25           1559          72.00       289.89
  287.27        2975.50           1563          60.00       237.58
  287.30        2975.75           1566          81.00       329.12
  287.33        2976.00           1569          61.00       241.94
  287.36        2976.25           1573          66.00       263.73
  287.39        2976.50           1576          65.00       259.37
  287.43        2976.75           1579          65.00       259.37
  287.46        2977.00           1583          72.00       289.89
  287.49        2977.25           1586          60.00       237.58
  287.52        2977.50           1590          52.00       202.70
  287.55        2977.75           1593          62.00       246.30
  287.58        2978.00           1596          55.00       215.78
  287.61        2978.25           1600          63.00       250.66
  287.64        2978.50           1603          60.00       237.58
  287.67        2978.75           1606          61.00       241.94
  287.70        2979.00           1610          62.00       246.30
  287.73        2979.25           1613          62.00       246.30
  287.77        2979.50           1616          61.00       241.94
  287.80        2979.75           1620          60.00       237.58
  287.83        2980.00           1623          67.00       268.09
  287.86        2980.25           1626          62.00       246.30
  287.89        2980.50           1630          60.00       237.58
  287.92        2980.75           1633          65.00       259.37
  287.95        2981.00           1637          61.00       241.94
  287.98        2981.25           1640          64.00       255.02
  288.01        2981.50           1643          54.00       211.42
  288.04        2981.75           1647          65.00       259.37
  288.08        2982.00           1650          58.00       228.86
  288.11        2982.25           1653          57.00       224.50
  288.14        2982.50           1657          60.00       237.58
  288.17        2982.75           1660          52.00       202.70
  288.20        2983.00           1663          60.00       237.58
  288.23        2983.25           1667          60.00       237.58
  288.26        2983.50           1670          59.00       233.22
  288.29        2983.75           1673          53.00       207.06
  288.32        2984.00           1677          56.00       220.14
HS scan finished at 04:48:32
end
************************************************************
  HS Scan of (1) Internal mercury lamp
************************************************************
Integration time is 0.2294 seconds per sample
dh141117Manchester 53.47 2.23 2.804185pr1000
************************************************************
Dead Time -------------------------  3E-08 
Number of Cycles Used -------------  4 
Starting Wavelength (Angstroms) ---  2950 
Final Wavelength (Angstoms) -------  2984 
Wavelength Increment (Angstroms) --  .25 
Filter Wheel #1 Position ---------- (1) Ground quartz diffuser (ND=2.32)
Filter Wheel #2 Position ---------- (1) Neutral Density 0.494



************************************************************
HS scan start time = 17:12:00
Dark Count =  4.4 


Time (GMT)  Wavelength (Ang)  Step Number  Raw Counts  Counts/Second

 1032.37        2950.00           1222          69.00       281.61
 1032.44        2950.25           1226          71.00       290.33
 1032.47        2950.50           1229          58.00       233.65
 1032.50        2950.75           1232          71.00       290.33
 1032.53        2951.00           1236          69.00       281.61
 1032.56        2951.25           1239          66.00       268.53
 1032.60        2951.50           1242          63.00       255.45
 1032.63        2951.75           1246          60.00       242.37
 1032.66        2952.00           1249          73.00       299.04
 1032.69        2952.25           1252          68.00       277.25
 1032.72        2952.50           1256          71.00       290.33
 1032.75        2952.75           1259          71.00       290.33
 1032.78        2953.00           1262          70.00       285.97
 1032.81        2953.25           1266          68.00       277.25
 1032.84        2953.50           1269          62.00       251.09
 1032.87        2953.75           1272          62.00       251.09
 1032.90        2954.00           1276          84.00       347.00
 1032.93        2954.25           1279          63.00       255.45
 1032.96        2954.50           1282          57.00       229.30
 1032.99        2954.75           1286          64.00       259.81
 1033.03        2955.00           1289          81.00       333.92
 1033.06        2955.25           1292          63.00       255.45
 1033.09        2955.50           1296          67.00       272.89
 1033.12        2955.75           1299          58.00       233.65
 1033.15        2956.00           1302          57.00       229.30
 1033.18        2956.25           1306          67.00       272.89
 1033.21        2956.50           1309          62.00       251.09
 1033.24        2956.75           1312          67.00       272.89
 1033.27        2957.00           1316          63.00       255.45
 1033.30        2957.25           1319          69.00       281.61
 1033.33        2957.50           1322          62.00       251.09
 1033.36        2957.75           1326          66.00       268.53
 1033.39        2958.00           1329          67.00       272.89
 1033.43        2958.25           1332          64.00       259.81
 1033.46        2958.50           1336          73.00       299.04
 1033.49        2958.75           1339          72.00       294.68
 1033.52        2959.00           1342          66.00       268.53
 1033.55        2959.25           1346          70.00       285.97
 1033.58        2959.50           1349          91.00       377.51
 1033.61        2959.75           1352          85.00       351.36
 1033.64        2960.00           1356         123.00       517.01
 1033.67        2960.25           1359         148.00       625.99
 1033.70        2960.50           1362         186.00       791.65
 1033.73        2960.75           1366         243.00      1040.14
 1033.76        2961.00           1369         290.00      1245.03
 1033.79        2961.25           1372         334.00      1436.85
 1033.82        2961.50           1376         411.00      1772.54
 1033.86        2961.75           1379         643.00      2784.02
 1033.89        2962.00           1382        1490.00      6477.28
 1033.92        2962.25           1386        3285.00     14306.92
 1033.95        2962.50           1389        4744.00     20673.67
 1033.98        2962.75           1392        6282.00     27387.80
 1034.01        2963.00           1396        8186.00     35703.44
 1034.04        2963.25           1399        9751.00     42541.62
 1034.07        2963.50           1402       11131.00     48573.78
 1034.10        2963.75           1406       13151.00     57407.42
 1034.13        2964.00           1409       14723.00     64285.15
 1034.16        2964.25           1412       16473.00     71945.00
 1034.19        2964.50           1416       18472.00     80699.06
 1034.22        2964.75           1419       20036.00     87551.37
 1034.26        2965.00           1422       21632.00     94546.78
 1034.29        2965.25           1426       23900.00    104492.70
 1034.32        2965.50           1429       25517.00    111587.40
 1034.35        2965.75           1432       26704.00    116797.40
 1034.38        2966.00           1436       28903.00    126453.50
 1034.41        2966.25           1439       30249.00    132366.80
 1034.44        2966.50           1442       31808.00    139218.40
 1034.47        2966.75           1446       33045.00    144656.90
 1034.50        2967.00           1449       33267.00    145633.20
 1034.53        2967.25           1452       33215.00    145404.50
 1034.56        2967.50           1456       33164.00    145180.20
 1034.59        2967.75           1459       33290.00    145734.30
 1034.63        2968.00           1462       32846.00    143781.90
 1034.66        2968.25           1466       31492.00    137829.40
 1034.69        2968.50           1469       30023.00    131373.80
 1034.72        2968.75           1472       28768.00    125860.60
 1034.75        2969.00           1476       26988.00    118044.10
 1034.78        2969.25           1479       25466.00    111363.60
 1034.81        2969.50           1482       23814.00    104115.40
 1034.84        2969.75           1486       21991.00     96120.72
 1034.87        2970.00           1489       20178.00     88173.65
 1034.91        2970.25           1492       19001.00     83016.44
 1034.94        2970.50           1496       16901.00     73818.93
 1034.97        2970.75           1499       15418.00     67326.78
 1035.00        2971.00           1502       13790.00     60202.80
 1035.03        2971.25           1506       11834.00     51647.53
 1035.06        2971.50           1509       10260.00     44766.27
 1035.09        2971.75           1513        8096.00     35310.27
 1035.12        2972.00           1516        6499.00     28335.33
 1035.15        2972.25           1519        4949.00     21568.44
 1035.18        2972.50           1523        3141.00     13678.67
 1035.22        2972.75           1526        1746.00      7593.71
 1035.25        2973.00           1529         751.00      3254.90
 1035.28        2973.25           1533         403.00      1737.67
 1035.31        2973.50           1536         313.00      1345.30
 1035.34        2973.75           1539         285.00      1223.24
 1035.37        2974.00           1543         233.00       996.54
 1035.40        2974.25           1546         179.00       761.13
 1035.43        2974.50           1549         140.00       591.12
 1035.46        2974.75           1553         104.00       434.18
 1035.49        2975.00           1556          89.00       368.79
 1035.52        2975.25           1559          73.00       299.04
 1035.55        2975.50           1563          63.00       255.45
 1035.58        2975.75           1566          65.00       264.17
 1035.62        2976.00           1569          74.00       303.40
 1035.65        2976.25           1573          66.00       268.53
 1035.68        2976.50           1576          69.00       281.61
 1035.71        2976.75           1579          63.00       255.45
 1035.74        2977.00           1583          74.00       303.40
 1035.77        2977.25           1586          63.00       255.45
 1035.80        2977.50           1590          73.00       299.04
 1035.83        2977.75           1593          64.00       259.81
 1035.86        2978.00           1596          69.00       281.61
 1035.89        2978.25           1600          56.00       224.94
 1035.92        2978.50           1603          61.00       246.73
 1035.96        2978.75           1606          59.00       238.01
 1035.99        2979.00           1610          68.00       277.25
 1036.02        2979.25           1613          56.00       224.94
 1036.05        2979.50           1616          65.00       264.17
 1036.08        2979.75           1620          60.00       242.37
 1036.11        2980.00           1623          52.00       207.50
 1036.14        2980.25           1626          70.00       285.97
 1036.17        2980.50           1630          63.00       255.45
 1036.20        2980.75           1633          64.00       259.81
 1036.23        2981.00           1637          58.00       233.65
 1036.26        2981.25           1640          63.00       255.45
 1036.29        2981.50           1643          65.00       264.17
 1036.32        2981.75           1647          60.00       242.37
 1036.36        2982.00           1650          63.00       255.45
 1036.39        2982.25           1653          63.00       255.45
 1036.42        2982.50           1657          58.00       233.65
 1036.45        2982.75           1660          64.00       259.81
 1036.48        2983.00           1663          60.00       242.37
 1036.51        2983.25           1667          66.00       268.53
 1036.54        2983.50           1670          57.00       229.30
 1036.57        2983.75           1673          58.00       233.65
 1036.60        2984.00           1677          66.00       268.53
HS scan finished at 17:16:49
end
