************************************************************
  HS Scan of (1) Internal mercury lamp
************************************************************
Integration time is 0.2294 seconds per sample
dh141118Manchester 53.47 2.23 2.804185pr1000
************************************************************
Dead Time -------------------------  3E-08 
Number of Cycles Used -------------  4 
Starting Wavelength (Angstroms) ---  2950 
Final Wavelength (Angstoms) -------  2984 
Wavelength Increment (Angstroms) --  .25 
Filter Wheel #1 Position ---------- (1) Ground quartz diffuser (ND=2.32)
Filter Wheel #2 Position ---------- (1) Neutral Density 0.494



************************************************************
HS scan start time = 04:42:06
Dark Count =  6.6 


Time (GMT)  Wavelength (Ang)  Step Number  Raw Counts  Counts/Second

  282.47        2950.00           1222          44.00       163.03
  282.54        2950.25           1226          55.00       210.99
  282.57        2950.50           1229          49.00       184.83
  282.60        2950.75           1232          58.00       224.06
  282.63        2951.00           1236          43.00       158.68
  282.66        2951.25           1239          47.00       176.11
  282.69        2951.50           1242          53.00       202.27
  282.72        2951.75           1246          51.00       193.55
  282.75        2952.00           1249          53.00       202.27
  282.78        2952.25           1252          52.00       197.91
  282.81        2952.50           1256          50.00       189.19
  282.85        2952.75           1259          49.00       184.83
  282.88        2953.00           1262          49.00       184.83
  282.91        2953.25           1266          42.00       154.32
  282.94        2953.50           1269          61.00       237.14
  282.97        2953.75           1272          49.00       184.83
  283.00        2954.00           1276          47.00       176.11
  283.03        2954.25           1279          50.00       189.19
  283.06        2954.50           1282          50.00       189.19
  283.09        2954.75           1286          49.00       184.83
  283.12        2955.00           1289          56.00       215.35
  283.15        2955.25           1292          45.00       167.39
  283.18        2955.50           1296          44.00       163.03
  283.21        2955.75           1299          50.00       189.19
  283.24        2956.00           1302          50.00       189.19
  283.28        2956.25           1306          50.00       189.19
  283.31        2956.50           1309          52.00       197.91
  283.34        2956.75           1312          51.00       193.55
  283.37        2957.00           1316          48.00       180.47
  283.40        2957.25           1319          56.00       215.35
  283.43        2957.50           1322          46.00       171.75
  283.46        2957.75           1326          52.00       197.91
  283.49        2958.00           1329          58.00       224.06
  283.52        2958.25           1332          48.00       180.47
  283.55        2958.50           1336          51.00       193.55
  283.58        2958.75           1339          48.00       180.47
  283.61        2959.00           1342          44.00       163.03
  283.64        2959.25           1346          48.00       180.47
  283.68        2959.50           1349          60.00       232.78
  283.71        2959.75           1352          66.00       258.94
  283.74        2960.00           1356          94.00       381.00
  283.77        2960.25           1359         116.00       476.90
  283.80        2960.50           1362         147.00       612.04
  283.83        2960.75           1366         183.00       768.98
  283.86        2961.00           1369         201.00       847.45
  283.89        2961.25           1372         224.00       947.72
  283.92        2961.50           1376         284.00      1209.29
  283.95        2961.75           1379         344.00      1470.86
  283.98        2962.00           1382         599.00      2582.59
  284.02        2962.25           1386        1757.00      7632.09
  284.05        2962.50           1389        2846.00     12382.11
  284.08        2962.75           1392        3958.00     17233.84
  284.11        2963.00           1396        5595.00     24378.76
  284.14        2963.25           1399        6492.00     28295.15
  284.17        2963.50           1402        7611.00     33182.10
  284.20        2963.75           1406        9143.00     39875.05
  284.23        2964.00           1409       10334.00     45080.11
  284.26        2964.25           1412       11503.00     50190.60
  284.29        2964.50           1416       13070.00     57043.49
  284.33        2964.75           1419       14097.00     61536.34
  284.36        2965.00           1422       15468.00     67536.00
  284.39        2965.25           1426       16945.00     74001.96
  284.42        2965.50           1429       18052.00     78849.78
  284.45        2965.75           1432       19448.00     84965.21
  284.48        2966.00           1436       20772.00     90767.31
  284.51        2966.25           1439       21852.00     95501.66
  284.54        2966.50           1442       22942.00    100281.20
  284.57        2966.75           1446       24146.00    105562.20
  284.60        2967.00           1449       24361.00    106505.40
  284.64        2967.25           1452       24487.00    107058.20
  284.67        2967.50           1456       24512.00    107167.90
  284.70        2967.75           1459       24682.00    107913.70
  284.73        2968.00           1462       24515.00    107181.10
  284.76        2968.25           1466       23859.00    104303.20
  284.79        2968.50           1469       22863.00     99934.74
  284.82        2968.75           1472       21840.00     95449.04
  284.85        2969.00           1476       20425.00     89246.49
  284.88        2969.25           1479       19245.00     84075.80
  284.92        2969.50           1482       18233.00     79642.56
  284.95        2969.75           1486       16558.00     72307.52
  284.98        2970.00           1489       15504.00     67693.57
  285.01        2970.25           1492       14630.00     63868.55
  285.04        2970.50           1496       12946.00     56501.10
  285.07        2970.75           1499       11805.00     51511.10
  285.10        2971.00           1502       10687.00     46623.15
  285.13        2971.25           1506        9211.00     40172.19
  285.16        2971.50           1509        7977.00     34780.82
  285.19        2971.75           1513        6510.00     28373.75
  285.22        2972.00           1516        5325.00     23200.10
  285.26        2972.25           1519        4313.00     18783.03
  285.29        2972.50           1523        2934.00     12766.00
  285.32        2972.75           1526        1872.00      8133.63
  285.35        2973.00           1529         914.00      3956.01
  285.38        2973.25           1533         337.00      1440.34
  285.41        2973.50           1536         241.00      1021.83
  285.44        2973.75           1539         206.00       869.25
  285.47        2974.00           1543         167.00       699.23
  285.50        2974.25           1546         133.00       551.01
  285.53        2974.50           1549          99.00       402.79
  285.56        2974.75           1553          67.00       263.30
  285.59        2975.00           1556          57.00       219.71
  285.62        2975.25           1559          41.00       149.96
  285.66        2975.50           1563          46.00       171.75
  285.69        2975.75           1566          46.00       171.75
  285.72        2976.00           1569          55.00       210.99
  285.75        2976.25           1573          50.00       189.19
  285.78        2976.50           1576          52.00       197.91
  285.81        2976.75           1579          51.00       193.55
  285.84        2977.00           1583          45.00       167.39
  285.87        2977.25           1586          46.00       171.75
  285.90        2977.50           1590          45.00       167.39
  285.93        2977.75           1593          43.00       158.68
  285.96        2978.00           1596          44.00       163.03
  286.00        2978.25           1600          48.00       180.47
  286.03        2978.50           1603          46.00       171.75
  286.06        2978.75           1606          46.00       171.75
  286.09        2979.00           1610          43.00       158.68
  286.12        2979.25           1613          41.00       149.96
  286.15        2979.50           1616          49.00       184.83
  286.18        2979.75           1620          41.00       149.96
  286.21        2980.00           1623          48.00       180.47
  286.24        2980.25           1626          45.00       167.39
  286.27        2980.50           1630          46.00       171.75
  286.30        2980.75           1633          54.00       206.63
  286.33        2981.00           1637          44.00       163.03
  286.37        2981.25           1640          48.00       180.47
  286.40        2981.50           1643          43.00       158.68
  286.43        2981.75           1647          42.00       154.32
  286.46        2982.00           1650          46.00       171.75
  286.49        2982.25           1653          40.00       145.60
  286.52        2982.50           1657          42.00       154.32
  286.55        2982.75           1660          43.00       158.68
  286.58        2983.00           1663          42.00       154.32
  286.61        2983.25           1667          43.00       158.68
  286.64        2983.50           1670          46.00       171.75
  286.67        2983.75           1673          42.00       154.32
  286.70        2984.00           1677          39.00       141.24
HS scan finished at 04:46:55
end
************************************************************
  HS Scan of (1) Internal mercury lamp
************************************************************
Integration time is 0.2294 seconds per sample
dh141118Manchester 53.47 2.23 2.804185pr1000
************************************************************
Dead Time -------------------------  3E-08 
Number of Cycles Used -------------  4 
Starting Wavelength (Angstroms) ---  2950 
Final Wavelength (Angstoms) -------  2984 
Wavelength Increment (Angstroms) --  .25 
Filter Wheel #1 Position ---------- (1) Ground quartz diffuser (ND=2.32)
Filter Wheel #2 Position ---------- (1) Neutral Density 0.494



************************************************************
HS scan start time = 17:12:05
Dark Count =  6.3 


Time (GMT)  Wavelength (Ang)  Step Number  Raw Counts  Counts/Second

 1032.45        2950.00           1222          47.00       177.42
 1032.51        2950.25           1226          47.00       177.42
 1032.54        2950.50           1229          43.00       159.98
 1032.57        2950.75           1232          47.00       177.42
 1032.61        2951.00           1236          48.00       181.78
 1032.64        2951.25           1239          60.00       234.09
 1032.67        2951.50           1242          51.00       194.86
 1032.70        2951.75           1246          52.00       199.22
 1032.73        2952.00           1249          50.00       190.50
 1032.76        2952.25           1252          42.00       155.62
 1032.79        2952.50           1256          56.00       216.65
 1032.82        2952.75           1259          52.00       199.22
 1032.85        2953.00           1262          45.00       168.70
 1032.88        2953.25           1266          51.00       194.86
 1032.91        2953.50           1269          41.00       151.26
 1032.95        2953.75           1272          48.00       181.78
 1032.98        2954.00           1276          52.00       199.22
 1033.01        2954.25           1279          50.00       190.50
 1033.04        2954.50           1282          54.00       207.94
 1033.07        2954.75           1286          43.00       159.98
 1033.10        2955.00           1289          47.00       177.42
 1033.13        2955.25           1292          41.00       151.26
 1033.16        2955.50           1296          49.00       186.14
 1033.19        2955.75           1299          50.00       190.50
 1033.22        2956.00           1302          47.00       177.42
 1033.25        2956.25           1306          49.00       186.14
 1033.28        2956.50           1309          41.00       151.26
 1033.31        2956.75           1312          49.00       186.14
 1033.34        2957.00           1316          50.00       190.50
 1033.38        2957.25           1319          50.00       190.50
 1033.41        2957.50           1322          50.00       190.50
 1033.44        2957.75           1326          45.00       168.70
 1033.47        2958.00           1329          45.00       168.70
 1033.50        2958.25           1332          51.00       194.86
 1033.53        2958.50           1336          42.00       155.62
 1033.56        2958.75           1339          46.00       173.06
 1033.59        2959.00           1342          55.00       212.29
 1033.62        2959.25           1346          53.00       203.58
 1033.65        2959.50           1349          50.00       190.50
 1033.68        2959.75           1352          56.00       216.65
 1033.71        2960.00           1356          70.00       277.68
 1033.74        2960.25           1359          93.00       377.95
 1033.78        2960.50           1362         128.00       530.52
 1033.81        2960.75           1366         169.00       709.26
 1033.84        2961.00           1369         193.00       813.88
 1033.87        2961.25           1372         207.00       874.91
 1033.90        2961.50           1376         268.00      1140.84
 1033.93        2961.75           1379         408.00      1751.18
 1033.96        2962.00           1382         871.00      3769.83
 1033.99        2962.25           1386        2094.00      9103.18
 1034.02        2962.50           1389        3233.00     14071.76
 1034.05        2962.75           1392        4335.00     18880.35
 1034.09        2963.00           1396        5685.00     24772.98
 1034.12        2963.25           1399        6765.00     29488.59
 1034.15        2963.50           1402        7941.00     34624.88
 1034.18        2963.75           1406        9450.00     41217.90
 1034.21        2964.00           1409       10631.00     46379.66
 1034.24        2964.25           1412       11902.00     51936.57
 1034.27        2964.50           1416       13284.00     57980.89
 1034.30        2964.75           1419       14585.00     63672.96
 1034.33        2965.00           1422       15567.00     67970.63
 1034.36        2965.25           1426       17123.00     74782.66
 1034.40        2965.50           1429       18205.00     79521.22
 1034.43        2965.75           1432       19376.00     84651.05
 1034.46        2966.00           1436       20708.00     90488.12
 1034.49        2966.25           1439       21749.00     95051.40
 1034.52        2966.50           1442       22773.00     99541.36
 1034.55        2966.75           1446       23943.00    104673.00
 1034.58        2967.00           1449       24367.00    106533.10
 1034.61        2967.25           1452       24495.00    107094.60
 1034.64        2967.50           1456       24336.00    106397.00
 1034.67        2967.75           1459       24400.00    106677.80
 1034.71        2968.00           1462       24276.00    106133.80
 1034.74        2968.25           1466       23661.00    103436.00
 1034.77        2968.50           1469       22472.00     98221.43
 1034.80        2968.75           1472       21581.00     94314.87
 1034.83        2969.00           1476       20278.00     88603.55
 1034.86        2969.25           1479       18904.00     82583.16
 1034.89        2969.50           1482       18009.00     78662.75
 1034.92        2969.75           1486       16507.00     72085.54
 1034.96        2970.00           1489       15366.00     67090.88
 1034.99        2970.25           1492       14229.00     62115.21
 1035.02        2970.50           1496       12705.00     55448.31
 1035.05        2970.75           1499       11529.00     50305.59
 1035.08        2971.00           1502       10382.00     45291.23
 1035.11        2971.25           1506        8918.00     38893.22
 1035.14        2971.50           1509        7714.00     33633.31
 1035.17        2971.75           1513        6352.00     27685.15
 1035.20        2972.00           1516        5181.00     22572.83
 1035.23        2972.25           1519        4122.00     17950.82
 1035.27        2972.50           1523        2823.00     12283.08
 1035.30        2972.75           1526        1683.00      7310.67
 1035.33        2973.00           1529         787.00      3403.57
 1035.36        2973.25           1533         350.00      1498.32
 1035.39        2973.50           1536         244.00      1036.21
 1035.42        2973.75           1539         238.00      1010.06
 1035.45        2974.00           1543         199.00       840.04
 1035.48        2974.25           1546         158.00       661.30
 1035.51        2974.50           1549         138.00       574.12
 1035.54        2974.75           1553          83.00       334.35
 1035.57        2975.00           1556          67.00       264.61
 1035.60        2975.25           1559          56.00       216.65
 1035.64        2975.50           1563          55.00       212.29
 1035.67        2975.75           1566          48.00       181.78
 1035.70        2976.00           1569          44.00       164.34
 1035.73        2976.25           1573          45.00       168.70
 1035.76        2976.50           1576          46.00       173.06
 1035.79        2976.75           1579          46.00       173.06
 1035.82        2977.00           1583          44.00       164.34
 1035.85        2977.25           1586          50.00       190.50
 1035.88        2977.50           1590          50.00       190.50
 1035.91        2977.75           1593          50.00       190.50
 1035.94        2978.00           1596          47.00       177.42
 1035.97        2978.25           1600          44.00       164.34
 1036.01        2978.50           1603          42.00       155.62
 1036.04        2978.75           1606          45.00       168.70
 1036.07        2979.00           1610          41.00       151.26
 1036.10        2979.25           1613          45.00       168.70
 1036.13        2979.50           1616          41.00       151.26
 1036.16        2979.75           1620          40.00       146.91
 1036.19        2980.00           1623          53.00       203.58
 1036.22        2980.25           1626          37.00       133.83
 1036.25        2980.50           1630          49.00       186.14
 1036.28        2980.75           1633          39.00       142.55
 1036.31        2981.00           1637          45.00       168.70
 1036.35        2981.25           1640          40.00       146.91
 1036.38        2981.50           1643          42.00       155.62
 1036.41        2981.75           1647          46.00       173.06
 1036.44        2982.00           1650          42.00       155.62
 1036.47        2982.25           1653          43.00       159.98
 1036.50        2982.50           1657          38.00       138.19
 1036.53        2982.75           1660          49.00       186.14
 1036.56        2983.00           1663          44.00       164.34
 1036.59        2983.25           1667          46.00       173.06
 1036.62        2983.50           1670          38.00       138.19
 1036.65        2983.75           1673          44.00       164.34
 1036.68        2984.00           1677          41.00       151.26
HS scan finished at 17:16:54
end
