************************************************************
  HS Scan of (1) Internal mercury lamp
************************************************************
Integration time is 0.2294 seconds per sample
dh071117Manchester 53.47 2.23 2.804185pr1000
************************************************************
Dead Time -------------------------  3E-08 
Number of Cycles Used -------------  4 
Starting Wavelength (Angstroms) ---  2950 
Final Wavelength (Angstoms) -------  2984 
Wavelength Increment (Angstroms) --  .25 
Filter Wheel #1 Position ---------- (1) Ground quartz diffuser (ND=2.32)
Filter Wheel #2 Position ---------- (1) Neutral Density 0.494



************************************************************
HS scan start time = 17:12:02
Dark Count =  7.3 


Time (GMT)  Wavelength (Ang)  Step Number  Raw Counts  Counts/Second

 1032.40        2950.00           1222          67.00       260.25
 1032.47        2950.25           1226          61.00       234.09
 1032.50        2950.50           1229          67.00       260.25
 1032.53        2950.75           1232          71.00       277.68
 1032.56        2951.00           1236          68.00       264.61
 1032.59        2951.25           1239          67.00       260.25
 1032.62        2951.50           1242          64.00       247.17
 1032.66        2951.75           1246          67.00       260.25
 1032.69        2952.00           1249          68.00       264.61
 1032.72        2952.25           1252          72.00       282.04
 1032.75        2952.50           1256          66.00       255.89
 1032.78        2952.75           1259          65.00       251.53
 1032.81        2953.00           1262          79.00       312.56
 1032.84        2953.25           1266          68.00       264.61
 1032.87        2953.50           1269          68.00       264.61
 1032.90        2953.75           1272          69.00       268.96
 1032.93        2954.00           1276          62.00       238.45
 1032.96        2954.25           1279          76.00       299.48
 1033.00        2954.50           1282          79.00       312.56
 1033.03        2954.75           1286          70.00       273.32
 1033.06        2955.00           1289          75.00       295.12
 1033.09        2955.25           1292          69.00       268.96
 1033.12        2955.50           1296          65.00       251.53
 1033.15        2955.75           1299          75.00       295.12
 1033.18        2956.00           1302          69.00       268.96
 1033.21        2956.25           1306          68.00       264.61
 1033.24        2956.50           1309          68.00       264.61
 1033.27        2956.75           1312          67.00       260.25
 1033.30        2957.00           1316          63.00       242.81
 1033.33        2957.25           1319          63.00       242.81
 1033.36        2957.50           1322          63.00       242.81
 1033.40        2957.75           1326          70.00       273.32
 1033.43        2958.00           1329          68.00       264.61
 1033.46        2958.25           1332          65.00       251.53
 1033.49        2958.50           1336          63.00       242.81
 1033.52        2958.75           1339          68.00       264.61
 1033.55        2959.00           1342          63.00       242.81
 1033.58        2959.25           1346          81.00       321.28
 1033.61        2959.50           1349          68.00       264.61
 1033.64        2959.75           1352          76.00       299.48
 1033.67        2960.00           1356          98.00       395.38
 1033.70        2960.25           1359         128.00       526.16
 1033.73        2960.50           1362         164.00       683.10
 1033.77        2960.75           1366         215.00       905.43
 1033.80        2961.00           1369         264.00      1119.04
 1033.83        2961.25           1372         313.00      1332.66
 1033.86        2961.50           1376         348.00      1485.25
 1033.89        2961.75           1379         508.00      2182.79
 1033.92        2962.00           1382         883.00      3817.79
 1033.95        2962.25           1386        2383.00     10359.37
 1033.98        2962.50           1389        3753.00     16336.25
 1034.01        2962.75           1392        5140.00     22389.49
 1034.04        2963.00           1396        7238.00     31549.91
 1034.08        2963.25           1399        8789.00     38325.21
 1034.11        2963.50           1402       10417.00     45439.85
 1034.14        2963.75           1406       12378.00     54013.79
 1034.17        2964.00           1409       14098.00     61537.66
 1034.20        2964.25           1412       15819.00     69069.31
 1034.23        2964.50           1416       17903.00     78194.11
 1034.26        2964.75           1419       19379.00     84659.81
 1034.29        2965.00           1422       20997.00     91750.46
 1034.32        2965.25           1426       22875.00     99984.29
 1034.35        2965.50           1429       24518.00    107191.10
 1034.38        2965.75           1432       25986.00    113633.00
 1034.41        2966.00           1436       28099.00    122909.60
 1034.44        2966.25           1439       29527.00    129181.90
 1034.47        2966.50           1442       30813.00    134832.40
 1034.51        2966.75           1446       32617.00    142762.30
 1034.54        2967.00           1449       33056.00    144692.60
 1034.57        2967.25           1452       33162.00    145158.70
 1034.60        2967.50           1456       33127.00    145004.80
 1034.63        2967.75           1459       33301.00    145769.90
 1034.66        2968.00           1462       33138.00    145053.10
 1034.69        2968.25           1466       32663.00    142964.50
 1034.72        2968.50           1469       31408.00    137447.40
 1034.75        2968.75           1472       29819.00    130464.70
 1034.79        2969.00           1476       27989.00    122426.60
 1034.82        2969.25           1479       26346.00    115213.20
 1034.85        2969.50           1482       24889.00    108818.90
 1034.88        2969.75           1486       22695.00     99194.91
 1034.91        2970.00           1489       21269.00     92942.74
 1034.94        2970.25           1492       19781.00     86421.24
 1034.97        2970.50           1496       17787.00     77686.07
 1035.00        2970.75           1499       16335.00     71328.15
 1035.03        2971.00           1502       14733.00     64316.22
 1035.06        2971.25           1506       12802.00     55868.19
 1035.10        2971.50           1509       11347.00     49505.47
 1035.13        2971.75           1513        9254.00     40357.02
 1035.16        2972.00           1516        7628.00     33253.30
 1035.19        2972.25           1519        6141.00     26759.49
 1035.22        2972.50           1523        4137.00     18011.91
 1035.25        2972.75           1526        2741.00     11921.00
 1035.28        2973.00           1529        1357.00      5884.65
 1035.31        2973.25           1533         525.00      2256.91
 1035.34        2973.50           1536         333.00      1419.85
 1035.37        2973.75           1539         278.00      1180.08
 1035.40        2974.00           1543         232.00       979.54
 1035.43        2974.25           1546         183.00       765.93
 1035.46        2974.50           1549         145.00       600.27
 1035.50        2974.75           1553         105.00       425.90
 1035.53        2975.00           1556          74.00       290.76
 1035.56        2975.25           1559          74.00       290.76
 1035.59        2975.50           1563          62.00       238.45
 1035.62        2975.75           1566          69.00       268.96
 1035.65        2976.00           1569          66.00       255.89
 1035.68        2976.25           1573          67.00       260.25
 1035.71        2976.50           1576          58.00       221.01
 1035.74        2976.75           1579          66.00       255.89
 1035.77        2977.00           1583          64.00       247.17
 1035.80        2977.25           1586          66.00       255.89
 1035.83        2977.50           1590          66.00       255.89
 1035.86        2977.75           1593          54.00       203.58
 1035.89        2978.00           1596          56.00       212.29
 1035.92        2978.25           1600          63.00       242.81
 1035.95        2978.50           1603          62.00       238.45
 1035.99        2978.75           1606          69.00       268.96
 1036.02        2979.00           1610          61.00       234.09
 1036.05        2979.25           1613          63.00       242.81
 1036.08        2979.50           1616          65.00       251.53
 1036.11        2979.75           1620          62.00       238.45
 1036.14        2980.00           1623          65.00       251.53
 1036.17        2980.25           1626          66.00       255.89
 1036.20        2980.50           1630          59.00       225.37
 1036.23        2980.75           1633          64.00       247.17
 1036.26        2981.00           1637          64.00       247.17
 1036.29        2981.25           1640          61.00       234.09
 1036.33        2981.50           1643          51.00       190.50
 1036.36        2981.75           1647          65.00       251.53
 1036.39        2982.00           1650          61.00       234.09
 1036.42        2982.25           1653          61.00       234.09
 1036.45        2982.50           1657          65.00       251.53
 1036.48        2982.75           1660          67.00       260.25
 1036.51        2983.00           1663          63.00       242.81
 1036.54        2983.25           1667          68.00       264.61
 1036.57        2983.50           1670          56.00       212.29
 1036.60        2983.75           1673          57.00       216.65
 1036.63        2984.00           1677          63.00       242.81
HS scan finished at 17:16:51
end
