************************************************************
  HS Scan of (1) Internal mercury lamp
************************************************************
Integration time is 0.2294 seconds per sample
dh081118Manchester 53.47 2.23 2.804185pr1000
************************************************************
Dead Time -------------------------  3E-08 
Number of Cycles Used -------------  4 
Starting Wavelength (Angstroms) ---  2950 
Final Wavelength (Angstoms) -------  2984 
Wavelength Increment (Angstroms) --  .25 
Filter Wheel #1 Position ---------- (1) Ground quartz diffuser (ND=2.32)
Filter Wheel #2 Position ---------- (1) Neutral Density 0.494



************************************************************
HS scan start time = 04:32:20
Dark Count =  7.3 


Time (GMT)  Wavelength (Ang)  Step Number  Raw Counts  Counts/Second

  272.71        2950.00           1222          50.00       186.14
  272.78        2950.25           1226          53.00       199.22
  272.81        2950.50           1229          49.00       181.78
  272.84        2950.75           1232          55.00       207.94
  272.87        2951.00           1236          60.00       229.73
  272.90        2951.25           1239          42.00       151.26
  272.93        2951.50           1242          44.00       159.98
  272.96        2951.75           1246          43.00       155.62
  272.99        2952.00           1249          46.00       168.70
  273.02        2952.25           1252          51.00       190.50
  273.05        2952.50           1256          56.00       212.29
  273.08        2952.75           1259          56.00       212.29
  273.11        2953.00           1262          41.00       146.91
  273.14        2953.25           1266          42.00       151.26
  273.18        2953.50           1269          47.00       173.06
  273.21        2953.75           1272          53.00       199.22
  273.24        2954.00           1276          55.00       207.94
  273.27        2954.25           1279          51.00       190.50
  273.30        2954.50           1282          51.00       190.50
  273.33        2954.75           1286          45.00       164.34
  273.36        2955.00           1289          44.00       159.98
  273.39        2955.25           1292          47.00       173.06
  273.42        2955.50           1296          50.00       186.14
  273.45        2955.75           1299          41.00       146.91
  273.48        2956.00           1302          56.00       212.29
  273.51        2956.25           1306          54.00       203.58
  273.54        2956.50           1309          48.00       177.42
  273.57        2956.75           1312          49.00       181.78
  273.61        2957.00           1316          48.00       177.42
  273.64        2957.25           1319          48.00       177.42
  273.67        2957.50           1322          49.00       181.78
  273.70        2957.75           1326          57.00       216.65
  273.73        2958.00           1329          51.00       190.50
  273.76        2958.25           1332          48.00       177.42
  273.79        2958.50           1336          56.00       212.29
  273.82        2958.75           1339          55.00       207.94
  273.85        2959.00           1342          48.00       177.42
  273.88        2959.25           1346          60.00       229.73
  273.91        2959.50           1349          53.00       199.22
  273.94        2959.75           1352          59.00       225.37
  273.98        2960.00           1356          80.00       316.92
  274.01        2960.25           1359          97.00       391.02
  274.04        2960.50           1362         120.00       491.29
  274.07        2960.75           1366         163.00       678.74
  274.10        2961.00           1369         186.00       779.01
  274.13        2961.25           1372         207.00       870.55
  274.16        2961.50           1376         275.00      1167.00
  274.19        2961.75           1379         400.00      1711.95
  274.22        2962.00           1382         953.00      4123.00
  274.25        2962.25           1386        2175.00      9452.11
  274.28        2962.50           1389        3211.00     13971.42
  274.31        2962.75           1392        4419.00     19242.58
  274.35        2963.00           1396        5980.00     26056.55
  274.38        2963.25           1399        7143.00     31135.00
  274.41        2963.50           1402        8275.00     36079.58
  274.44        2963.75           1406        9913.00     43236.96
  274.47        2964.00           1409       11045.00     48185.13
  274.50        2964.25           1412       12058.00     52614.37
  274.53        2964.50           1416       13583.00     59284.51
  274.56        2964.75           1419       14729.00     64298.72
  274.59        2965.00           1422       15876.00     69318.81
  274.62        2965.25           1426       17435.00     76144.53
  274.65        2965.50           1429       18559.00     81067.45
  274.68        2965.75           1432       19787.00     86447.52
  274.72        2966.00           1436       21390.00     93473.18
  274.75        2966.25           1439       22448.00     98111.81
  274.78        2966.50           1442       23361.00    102115.80
  274.81        2966.75           1446       24369.00    106537.40
  274.84        2967.00           1449       24642.00    107735.20
  274.87        2967.25           1452       24695.00    107967.70
  274.90        2967.50           1456       24671.00    107862.40
  274.93        2967.75           1459       24670.00    107858.00
  274.96        2968.00           1462       24453.00    106906.00
  275.00        2968.25           1466       23725.00    103712.30
  275.03        2968.50           1469       22792.00     99620.30
  275.06        2968.75           1472       21623.00     94494.61
  275.09        2969.00           1476       20153.00     88051.38
  275.12        2969.25           1479       19068.00     83297.26
  275.15        2969.50           1482       17840.00     77918.20
  275.18        2969.75           1486       16356.00     71420.08
  275.21        2970.00           1489       15184.00     66289.94
  275.24        2970.25           1492       14096.00     61528.91
  275.27        2970.50           1496       12773.00     55741.35
  275.30        2970.75           1499       11748.00     51258.80
  275.34        2971.00           1502       10589.00     46191.70
  275.37        2971.25           1506        9108.00     39719.06
  275.40        2971.50           1509        7936.00     34598.67
  275.43        2971.75           1513        6387.00     27833.61
  275.46        2972.00           1516        5230.00     22782.35
  275.49        2972.25           1519        4139.00     18020.64
  275.52        2972.50           1523        2662.00     11576.38
  275.55        2972.75           1526        1565.00      6791.71
  275.58        2973.00           1529         822.00      3551.82
  275.61        2973.25           1533         365.00      1559.36
  275.64        2973.50           1536         271.00      1149.56
  275.68        2973.75           1539         241.00      1018.78
  275.71        2974.00           1543         189.00       792.09
  275.74        2974.25           1546         150.00       622.07
  275.77        2974.50           1549         118.00       482.57
  275.80        2974.75           1553          83.00       329.99
  275.83        2975.00           1556          67.00       260.25
  275.86        2975.25           1559          60.00       229.73
  275.89        2975.50           1563          46.00       168.70
  275.92        2975.75           1566          44.00       159.98
  275.96        2976.00           1569          48.00       177.42
  275.99        2976.25           1573          51.00       190.50
  276.02        2976.50           1576          50.00       186.14
  276.05        2976.75           1579          47.00       173.06
  276.08        2977.00           1583          55.00       207.94
  276.11        2977.25           1586          42.00       151.26
  276.14        2977.50           1590          46.00       168.70
  276.17        2977.75           1593          48.00       177.42
  276.20        2978.00           1596          50.00       186.14
  276.23        2978.25           1600          56.00       212.29
  276.26        2978.50           1603          50.00       186.14
  276.29        2978.75           1606          56.00       212.29
  276.33        2979.00           1610          46.00       168.70
  276.36        2979.25           1613          50.00       186.14
  276.39        2979.50           1616          45.00       164.34
  276.42        2979.75           1620          45.00       164.34
  276.45        2980.00           1623          48.00       177.42
  276.48        2980.25           1626          48.00       177.42
  276.51        2980.50           1630          42.00       151.26
  276.54        2980.75           1633          40.00       142.55
  276.57        2981.00           1637          42.00       151.26
  276.60        2981.25           1640          50.00       186.14
  276.63        2981.50           1643          44.00       159.98
  276.66        2981.75           1647          45.00       164.34
  276.69        2982.00           1650          48.00       177.42
  276.72        2982.25           1653          41.00       146.91
  276.75        2982.50           1657          36.00       125.11
  276.79        2982.75           1660          38.00       133.83
  276.82        2983.00           1663          45.00       164.34
  276.85        2983.25           1667          51.00       190.50
  276.88        2983.50           1670          35.00       120.75
  276.91        2983.75           1673          45.00       164.34
  276.94        2984.00           1677          40.00       142.55
HS scan finished at 04:37:09
end
************************************************************
  HS Scan of (1) Internal mercury lamp
************************************************************
Integration time is 0.2294 seconds per sample
dh081118Manchester 53.47 2.23 2.804185pr1000
************************************************************
Dead Time -------------------------  3E-08 
Number of Cycles Used -------------  4 
Starting Wavelength (Angstroms) ---  2950 
Final Wavelength (Angstoms) -------  2984 
Wavelength Increment (Angstroms) --  .25 
Filter Wheel #1 Position ---------- (1) Ground quartz diffuser (ND=2.32)
Filter Wheel #2 Position ---------- (1) Neutral Density 0.494



************************************************************
HS scan start time = 17:12:07
Dark Count =  6.8 


Time (GMT)  Wavelength (Ang)  Step Number  Raw Counts  Counts/Second

 1032.48        2950.00           1222          49.00       183.96
 1032.55        2950.25           1226          50.00       188.32
 1032.58        2950.50           1229          54.00       205.76
 1032.61        2950.75           1232          55.00       210.11
 1032.64        2951.00           1236          41.00       149.09
 1032.67        2951.25           1239          40.00       144.73
 1032.70        2951.50           1242          47.00       175.24
 1032.73        2951.75           1246          45.00       166.52
 1032.76        2952.00           1249          51.00       192.68
 1032.79        2952.25           1252          55.00       210.11
 1032.82        2952.50           1256          52.00       197.04
 1032.86        2952.75           1259          47.00       175.24
 1032.89        2953.00           1262          46.00       170.88
 1032.92        2953.25           1266          50.00       188.32
 1032.95        2953.50           1269          51.00       192.68
 1032.98        2953.75           1272          46.00       170.88
 1033.01        2954.00           1276          49.00       183.96
 1033.04        2954.25           1279          49.00       183.96
 1033.07        2954.50           1282          48.00       179.60
 1033.10        2954.75           1286          51.00       192.68
 1033.13        2955.00           1289          42.00       153.44
 1033.16        2955.25           1292          46.00       170.88
 1033.19        2955.50           1296          48.00       179.60
 1033.22        2955.75           1299          44.00       162.16
 1033.25        2956.00           1302          50.00       188.32
 1033.29        2956.25           1306          53.00       201.40
 1033.32        2956.50           1309          44.00       162.16
 1033.35        2956.75           1312          49.00       183.96
 1033.38        2957.00           1316          42.00       153.44
 1033.41        2957.25           1319          44.00       162.16
 1033.44        2957.50           1322          52.00       197.04
 1033.47        2957.75           1326          53.00       201.40
 1033.50        2958.00           1329          51.00       192.68
 1033.53        2958.25           1332          46.00       170.88
 1033.56        2958.50           1336          49.00       183.96
 1033.59        2958.75           1339          53.00       201.40
 1033.62        2959.00           1342          46.00       170.88
 1033.66        2959.25           1346          50.00       188.32
 1033.69        2959.50           1349          46.00       170.88
 1033.72        2959.75           1352          62.00       240.63
 1033.75        2960.00           1356          74.00       292.94
 1033.78        2960.25           1359          96.00       388.85
 1033.81        2960.50           1362         124.00       510.91
 1033.84        2960.75           1366         176.00       737.59
 1033.87        2961.00           1369         195.00       820.42
 1033.90        2961.25           1372         231.00       977.36
 1033.93        2961.50           1376         269.00      1143.02
 1033.96        2961.75           1379         367.00      1570.26
 1033.99        2962.00           1382         709.00      3061.31
 1034.02        2962.25           1386        1771.00      7692.27
 1034.05        2962.50           1389        2889.00     12568.82
 1034.08        2962.75           1392        4017.00     17490.43
 1034.12        2963.00           1396        5436.00     23683.78
 1034.15        2963.25           1399        6519.00     28412.18
 1034.18        2963.50           1402        7661.00     33399.63
 1034.21        2963.75           1406        9223.00     40223.76
 1034.24        2964.00           1409       10272.00     44808.23
 1034.27        2964.25           1412       11582.00     50535.15
 1034.30        2964.50           1416       13118.00     57252.57
 1034.33        2964.75           1419       14202.00     61994.89
 1034.36        2965.00           1422       15442.00     67421.32
 1034.39        2965.25           1426       16974.00     74128.05
 1034.43        2965.50           1429       17889.00     78134.99
 1034.46        2965.75           1432       19208.00     83912.81
 1034.49        2966.00           1436       20503.00     89587.44
 1034.52        2966.25           1439       21651.00     94619.56
 1034.55        2966.50           1442       22707.00     99249.74
 1034.58        2966.75           1446       23832.00    104183.90
 1034.61        2967.00           1449       24302.00    106245.70
 1034.64        2967.25           1452       24605.00    107575.00
 1034.67        2967.50           1456       24470.00    106982.70
 1034.70        2967.75           1459       24390.00    106631.80
 1034.73        2968.00           1462       24354.00    106473.80
 1034.77        2968.25           1466       23910.00    104526.00
 1034.80        2968.50           1469       22898.00    100087.40
 1034.83        2968.75           1472       21950.00     95930.43
 1034.86        2969.00           1476       20455.00     89377.08
 1034.89        2969.25           1479       19412.00     84806.59
 1034.92        2969.50           1482       18277.00     79834.40
 1034.95        2969.75           1486       16793.00     73335.53
 1034.98        2970.00           1489       15699.00     68546.22
 1035.01        2970.25           1492       14524.00     63403.84
 1035.05        2970.50           1496       13072.00     57051.36
 1035.08        2970.75           1499       11784.00     51418.40
 1035.11        2971.00           1502       10703.00     46692.22
 1035.14        2971.25           1506        9162.00     39957.20
 1035.17        2971.50           1509        8193.00     35723.54
 1035.20        2971.75           1513        6809.00     29678.55
 1035.23        2972.00           1516        5508.00     23998.09
 1035.26        2972.25           1519        4442.00     19345.14
 1035.29        2972.50           1523        3082.00     13410.80
 1035.32        2972.75           1526        1989.00      8643.04
 1035.36        2973.00           1529         976.00      4225.47
 1035.39        2973.25           1533         362.00      1548.46
 1035.42        2973.50           1536         269.00      1143.02
 1035.45        2973.75           1539         220.00       929.41
 1035.48        2974.00           1543         179.00       750.67
 1035.51        2974.25           1546         137.00       567.58
 1035.54        2974.50           1549         107.00       436.80
 1035.57        2974.75           1553          74.00       292.94
 1035.60        2975.00           1556          58.00       223.19
 1035.63        2975.25           1559          54.00       205.76
 1035.66        2975.50           1563          43.00       157.80
 1035.70        2975.75           1566          38.00       136.01
 1035.73        2976.00           1569          48.00       179.60
 1035.76        2976.25           1573          54.00       205.76
 1035.79        2976.50           1576          34.00       118.57
 1035.82        2976.75           1579          52.00       197.04
 1035.85        2977.00           1583          47.00       175.24
 1035.88        2977.25           1586          39.00       140.37
 1035.91        2977.50           1590          44.00       162.16
 1035.94        2977.75           1593          42.00       153.44
 1035.97        2978.00           1596          53.00       201.40
 1036.00        2978.25           1600          51.00       192.68
 1036.03        2978.50           1603          45.00       166.52
 1036.06        2978.75           1606          45.00       166.52
 1036.09        2979.00           1610          47.00       175.24
 1036.12        2979.25           1613          46.00       170.88
 1036.15        2979.50           1616          47.00       175.24
 1036.18        2979.75           1620          53.00       201.40
 1036.22        2980.00           1623          45.00       166.52
 1036.25        2980.25           1626          43.00       157.80
 1036.28        2980.50           1630          41.00       149.09
 1036.31        2980.75           1633          39.00       140.37
 1036.34        2981.00           1637          48.00       179.60
 1036.37        2981.25           1640          48.00       179.60
 1036.40        2981.50           1643          43.00       157.80
 1036.43        2981.75           1647          45.00       166.52
 1036.46        2982.00           1650          47.00       175.24
 1036.49        2982.25           1653          42.00       153.44
 1036.52        2982.50           1657          48.00       179.60
 1036.55        2982.75           1660          53.00       201.40
 1036.58        2983.00           1663          37.00       131.65
 1036.62        2983.25           1667          40.00       144.73
 1036.65        2983.50           1670          39.00       140.37
 1036.68        2983.75           1673          47.00       175.24
 1036.71        2984.00           1677          43.00       157.80
HS scan finished at 17:16:56
end
