************************************************************
  HS Scan of (1) Internal mercury lamp
************************************************************
Integration time is 0.2294 seconds per sample
dh111117Manchester 53.47 2.23 2.804185pr1000
************************************************************
Dead Time -------------------------  3E-08 
Number of Cycles Used -------------  4 
Starting Wavelength (Angstroms) ---  2950 
Final Wavelength (Angstoms) -------  2984 
Wavelength Increment (Angstroms) --  .25 
Filter Wheel #1 Position ---------- (1) Ground quartz diffuser (ND=2.32)
Filter Wheel #2 Position ---------- (1) Neutral Density 0.494



************************************************************
HS scan start time = 04:37:39
Dark Count =  4.1 


Time (GMT)  Wavelength (Ang)  Step Number  Raw Counts  Counts/Second

  278.03        2950.00           1222          65.00       265.48
  278.09        2950.25           1226          64.00       261.12
  278.12        2950.50           1229          61.00       248.04
  278.16        2950.75           1232          65.00       265.48
  278.19        2951.00           1236          74.00       304.71
  278.22        2951.25           1239          71.00       291.63
  278.25        2951.50           1242          66.00       269.84
  278.28        2951.75           1246          60.00       243.68
  278.31        2952.00           1249          68.00       278.56
  278.34        2952.25           1252          69.00       282.91
  278.37        2952.50           1256          69.00       282.91
  278.40        2952.75           1259          61.00       248.04
  278.43        2953.00           1262          57.00       230.60
  278.46        2953.25           1266          68.00       278.56
  278.49        2953.50           1269          59.00       239.32
  278.53        2953.75           1272          87.00       361.38
  278.56        2954.00           1276          73.00       300.35
  278.59        2954.25           1279          63.00       256.76
  278.62        2954.50           1282          68.00       278.56
  278.65        2954.75           1286          79.00       326.51
  278.68        2955.00           1289          64.00       261.12
  278.71        2955.25           1292          61.00       248.04
  278.74        2955.50           1296          71.00       291.63
  278.77        2955.75           1299          69.00       282.91
  278.80        2956.00           1302          68.00       278.56
  278.83        2956.25           1306          67.00       274.20
  278.86        2956.50           1309          81.00       335.23
  278.90        2956.75           1312          73.00       300.35
  278.93        2957.00           1316          78.00       322.15
  278.96        2957.25           1319          73.00       300.35
  278.99        2957.50           1322          64.00       261.12
  279.02        2957.75           1326          64.00       261.12
  279.05        2958.00           1329          69.00       282.91
  279.08        2958.25           1332          77.00       317.79
  279.11        2958.50           1336          69.00       282.91
  279.14        2958.75           1339          59.00       239.32
  279.17        2959.00           1342          67.00       274.20
  279.20        2959.25           1346          72.00       295.99
  279.23        2959.50           1349          67.00       274.20
  279.26        2959.75           1352          86.00       357.02
  279.29        2960.00           1356         104.00       435.49
  279.33        2960.25           1359         128.00       540.11
  279.36        2960.50           1362         160.00       679.61
  279.39        2960.75           1366         231.00       989.13
  279.42        2961.00           1369         266.00      1141.71
  279.45        2961.25           1372         301.00      1294.30
  279.48        2961.50           1376         372.00      1603.83
  279.51        2961.75           1379         484.00      2092.11
  279.54        2962.00           1382        1042.00      4525.03
  279.57        2962.25           1386        2741.00     11934.96
  279.60        2962.50           1389        4298.00     18728.48
  279.63        2962.75           1392        5775.00     25175.51
  279.66        2963.00           1396        7795.00     33996.73
  279.69        2963.25           1399        9177.00     40034.54
  279.72        2963.50           1402       10788.00     47075.59
  279.76        2963.75           1406       12881.00     56227.73
  279.79        2964.00           1409       14334.00     62584.27
  279.82        2964.25           1412       15888.00     69385.35
  279.85        2964.50           1416       18022.00     78729.32
  279.88        2964.75           1419       19440.00     84941.11
  279.91        2965.00           1422       21422.00     93627.48
  279.94        2965.25           1426       23526.00    102853.50
  279.97        2965.50           1429       24831.00    108578.50
  280.00        2965.75           1432       26506.00    115929.50
  280.04        2966.00           1436       28504.00    124702.40
  280.07        2966.25           1439       30023.00    131375.10
  280.10        2966.50           1442       31465.00    137712.10
  280.13        2966.75           1446       33024.00    144565.90
  280.16        2967.00           1449       33495.00    146637.10
  280.19        2967.25           1452       33661.00    147367.10
  280.22        2967.50           1456       33584.00    147028.50
  280.25        2967.75           1459       33615.00    147164.90
  280.28        2968.00           1462       33282.00    145700.40
  280.31        2968.25           1466       32682.00    143062.10
  280.35        2968.50           1469       31486.00    137804.40
  280.38        2968.75           1472       29903.00    130847.90
  280.41        2969.00           1476       28022.00    122585.60
  280.44        2969.25           1479       26591.00    116302.70
  280.47        2969.50           1482       24899.00    108876.90
  280.50        2969.75           1486       23020.00    100634.20
  280.53        2970.00           1489       21521.00     94061.49
  280.56        2970.25           1492       19948.00     87167.06
  280.59        2970.50           1496       17833.00     77901.56
  280.62        2970.75           1499       16144.00     70506.00
  280.65        2971.00           1502       14755.00     64426.50
  280.68        2971.25           1506       12557.00     54810.64
  280.72        2971.50           1509       11095.00     48417.71
  280.75        2971.75           1513        8980.00     39173.74
  280.78        2972.00           1516        7305.00     31856.50
  280.81        2972.25           1519        5879.00     25629.55
  280.84        2972.50           1523        3876.00     16886.93
  280.87        2972.75           1526        2412.00     10499.82
  280.90        2973.00           1529        1167.00      5070.08
  280.93        2973.25           1533         479.00      2070.31
  280.96        2973.50           1536         357.00      1538.43
  280.99        2973.75           1539         310.00      1333.53
  281.02        2974.00           1543         258.00      1106.84
  281.06        2974.25           1546         199.00       849.63
  281.09        2974.50           1549         145.00       614.22
  281.12        2974.75           1553         107.00       448.57
  281.15        2975.00           1556          84.00       348.30
  281.18        2975.25           1559          77.00       317.79
  281.21        2975.50           1563          68.00       278.56
  281.24        2975.75           1566          69.00       282.91
  281.27        2976.00           1569          67.00       274.20
  281.30        2976.25           1573          67.00       274.20
  281.33        2976.50           1576          63.00       256.76
  281.36        2976.75           1579          60.00       243.68
  281.39        2977.00           1583          67.00       274.20
  281.42        2977.25           1586          61.00       248.04
  281.46        2977.50           1590          63.00       256.76
  281.49        2977.75           1593          56.00       226.24
  281.52        2978.00           1596          72.00       295.99
  281.55        2978.25           1600          79.00       326.51
  281.58        2978.50           1603          66.00       269.84
  281.61        2978.75           1606          61.00       248.04
  281.64        2979.00           1610          63.00       256.76
  281.67        2979.25           1613          61.00       248.04
  281.70        2979.50           1616          61.00       248.04
  281.73        2979.75           1620          55.00       221.88
  281.76        2980.00           1623          62.00       252.40
  281.79        2980.25           1626          67.00       274.20
  281.82        2980.50           1630          59.00       239.32
  281.85        2980.75           1633          68.00       278.56
  281.88        2981.00           1637          65.00       265.48
  281.92        2981.25           1640          59.00       239.32
  281.95        2981.50           1643          54.00       217.53
  281.98        2981.75           1647          60.00       243.68
  282.01        2982.00           1650          59.00       239.32
  282.04        2982.25           1653          61.00       248.04
  282.07        2982.50           1657          63.00       256.76
  282.10        2982.75           1660          58.00       234.96
  282.13        2983.00           1663          63.00       256.76
  282.16        2983.25           1667          56.00       226.24
  282.19        2983.50           1670          60.00       243.68
  282.22        2983.75           1673          58.00       234.96
  282.25        2984.00           1677          60.00       243.68
HS scan finished at 04:42:28
end
************************************************************
  HS Scan of (1) Internal mercury lamp
************************************************************
Integration time is 0.2294 seconds per sample
dh111117Manchester 53.47 2.23 2.804185pr1000
************************************************************
Dead Time -------------------------  3E-08 
Number of Cycles Used -------------  4 
Starting Wavelength (Angstroms) ---  2950 
Final Wavelength (Angstoms) -------  2984 
Wavelength Increment (Angstroms) --  .25 
Filter Wheel #1 Position ---------- (1) Ground quartz diffuser (ND=2.32)
Filter Wheel #2 Position ---------- (1) Neutral Density 0.494



************************************************************
HS scan start time = 17:12:03
Dark Count =  6.9 


Time (GMT)  Wavelength (Ang)  Step Number  Raw Counts  Counts/Second

 1032.41        2950.00           1222          64.00       248.91
 1032.48        2950.25           1226          66.00       257.63
 1032.51        2950.50           1229          60.00       231.48
 1032.54        2950.75           1232          66.00       257.63
 1032.57        2951.00           1236          69.00       270.71
 1032.60        2951.25           1239          69.00       270.71
 1032.63        2951.50           1242          66.00       257.63
 1032.66        2951.75           1246          64.00       248.91
 1032.69        2952.00           1249          73.00       288.15
 1032.73        2952.25           1252          67.00       261.99
 1032.76        2952.50           1256          60.00       231.48
 1032.79        2952.75           1259          65.00       253.27
 1032.82        2953.00           1262          70.00       275.07
 1032.85        2953.25           1266          62.00       240.19
 1032.88        2953.50           1269          63.00       244.55
 1032.91        2953.75           1272          59.00       227.12
 1032.94        2954.00           1276          61.00       235.83
 1032.97        2954.25           1279          71.00       279.43
 1033.00        2954.50           1282          64.00       248.91
 1033.03        2954.75           1286          70.00       275.07
 1033.06        2955.00           1289          68.00       266.35
 1033.10        2955.25           1292          71.00       279.43
 1033.13        2955.50           1296          67.00       261.99
 1033.16        2955.75           1299          67.00       261.99
 1033.19        2956.00           1302          70.00       275.07
 1033.22        2956.25           1306          66.00       257.63
 1033.25        2956.50           1309          72.00       283.79
 1033.28        2956.75           1312          61.00       235.83
 1033.31        2957.00           1316          84.00       336.10
 1033.34        2957.25           1319          62.00       240.19
 1033.37        2957.50           1322          70.00       275.07
 1033.40        2957.75           1326          71.00       279.43
 1033.43        2958.00           1329          63.00       244.55
 1033.46        2958.25           1332          66.00       257.63
 1033.49        2958.50           1336          65.00       253.27
 1033.52        2958.75           1339          66.00       257.63
 1033.56        2959.00           1342          68.00       266.35
 1033.59        2959.25           1346          67.00       261.99
 1033.62        2959.50           1349          72.00       283.79
 1033.65        2959.75           1352          76.00       301.22
 1033.68        2960.00           1356         116.00       475.60
 1033.71        2960.25           1359         160.00       667.41
 1033.74        2960.50           1362         188.00       789.47
 1033.77        2960.75           1366         237.00      1003.08
 1033.80        2961.00           1369         276.00      1173.10
 1033.83        2961.25           1372         311.00      1325.68
 1033.86        2961.50           1376         400.00      1713.69
 1033.90        2961.75           1379         613.00      2642.32
 1033.93        2962.00           1382        1260.00      5463.41
 1033.96        2962.25           1386        2936.00     12773.42
 1033.99        2962.50           1389        4402.00     19170.13
 1034.02        2962.75           1392        5738.00     25001.75
 1034.05        2963.00           1396        7785.00     33940.82
 1034.08        2963.25           1399        9312.00     40612.23
 1034.11        2963.50           1402       10995.00     47968.28
 1034.14        2963.75           1406       13110.00     57217.14
 1034.17        2964.00           1409       14921.00     65140.69
 1034.21        2964.25           1412       16456.00     71859.63
 1034.24        2964.50           1416       18260.00     79759.50
 1034.27        2964.75           1419       20092.00     87785.81
 1034.30        2965.00           1422       21424.00     93623.97
 1034.33        2965.25           1426       23773.00    103924.60
 1034.36        2965.50           1429       25157.00    109996.60
 1034.39        2965.75           1432       26649.00    116545.00
 1034.42        2966.00           1436       28858.00    126244.90
 1034.45        2966.25           1439       30013.00    131318.90
 1034.48        2966.50           1442       31709.00    138772.30
 1034.51        2966.75           1446       33085.00    144821.90
 1034.54        2967.00           1449       33279.00    145674.90
 1034.58        2967.25           1452       33294.00    145740.90
 1034.61        2967.50           1456       33403.00    146220.20
 1034.64        2967.75           1459       33294.00    145740.90
 1034.67        2968.00           1462       33229.00    145455.10
 1034.70        2968.25           1466       32171.00    140803.20
 1034.73        2968.50           1469       30821.00    134869.40
 1034.76        2968.75           1472       29474.00    128950.80
 1034.79        2969.00           1476       27437.00    120004.50
 1034.82        2969.25           1479       25808.00    112853.50
 1034.85        2969.50           1482       24343.00    106425.10
 1034.88        2969.75           1486       22174.00     96912.12
 1034.91        2970.00           1489       20746.00     90652.04
 1034.95        2970.25           1492       19267.00     84170.86
 1034.98        2970.50           1496       17303.00     75568.25
 1035.01        2970.75           1499       15784.00     68917.85
 1035.04        2971.00           1502       14182.00     61906.94
 1035.07        2971.25           1506       12105.00     52821.65
 1035.10        2971.50           1509       10517.00     45878.71
 1035.13        2971.75           1513        8493.00     37033.71
 1035.16        2972.00           1516        7121.00     31040.66
 1035.19        2972.25           1519        5561.00     24229.03
 1035.22        2972.50           1523        3578.00     15574.41
 1035.26        2972.75           1526        2052.00      8917.38
 1035.29        2973.00           1529         886.00      3832.61
 1035.32        2973.25           1533         401.00      1718.05
 1035.35        2973.50           1536         322.00      1373.64
 1035.38        2973.75           1539         267.00      1133.87
 1035.41        2974.00           1543         221.00       933.33
 1035.44        2974.25           1546         167.00       697.92
 1035.47        2974.50           1549         141.00       584.58
 1035.50        2974.75           1553         107.00       436.36
 1035.53        2975.00           1556          79.00       314.30
 1035.56        2975.25           1559         100.00       405.85
 1035.60        2975.50           1563          64.00       248.91
 1035.63        2975.75           1566          58.00       222.76
 1035.66        2976.00           1569          58.00       222.76
 1035.69        2976.25           1573          71.00       279.43
 1035.72        2976.50           1576          62.00       240.19
 1035.75        2976.75           1579          71.00       279.43
 1035.78        2977.00           1583          70.00       275.07
 1035.81        2977.25           1586          68.00       266.35
 1035.84        2977.50           1590          58.00       222.76
 1035.87        2977.75           1593          61.00       235.83
 1035.90        2978.00           1596          60.00       231.48
 1035.94        2978.25           1600          64.00       248.91
 1035.97        2978.50           1603          64.00       248.91
 1036.00        2978.75           1606          64.00       248.91
 1036.03        2979.00           1610          58.00       222.76
 1036.06        2979.25           1613          59.00       227.12
 1036.09        2979.50           1616          57.00       218.40
 1036.12        2979.75           1620          67.00       261.99
 1036.15        2980.00           1623          64.00       248.91
 1036.18        2980.25           1626          62.00       240.19
 1036.21        2980.50           1630          68.00       266.35
 1036.24        2980.75           1633          59.00       227.12
 1036.27        2981.00           1637          57.00       218.40
 1036.30        2981.25           1640          63.00       244.55
 1036.34        2981.50           1643          55.00       209.68
 1036.37        2981.75           1647          63.00       244.55
 1036.40        2982.00           1650          55.00       209.68
 1036.43        2982.25           1653          53.00       200.96
 1036.46        2982.50           1657          61.00       235.83
 1036.49        2982.75           1660          65.00       253.27
 1036.52        2983.00           1663          62.00       240.19
 1036.55        2983.25           1667          52.00       196.60
 1036.58        2983.50           1670          54.00       205.32
 1036.61        2983.75           1673          58.00       222.76
 1036.64        2984.00           1677          60.00       231.48
HS scan finished at 17:16:52
end
