************************************************************
  HS Scan of (1) Internal mercury lamp
************************************************************
Integration time is 0.2294 seconds per sample
dh101118Manchester 53.47 2.23 2.804185pr1000
************************************************************
Dead Time -------------------------  3E-08 
Number of Cycles Used -------------  4 
Starting Wavelength (Angstroms) ---  2950 
Final Wavelength (Angstoms) -------  2984 
Wavelength Increment (Angstroms) --  .25 
Filter Wheel #1 Position ---------- (1) Ground quartz diffuser (ND=2.32)
Filter Wheel #2 Position ---------- (1) Neutral Density 0.494



************************************************************
HS scan start time = 04:35:39
Dark Count =  7.5 


Time (GMT)  Wavelength (Ang)  Step Number  Raw Counts  Counts/Second

  276.02        2950.00           1222          46.00       167.83
  276.09        2950.25           1226          50.00       185.27
  276.12        2950.50           1229          52.00       193.99
  276.15        2950.75           1232          48.00       176.55
  276.18        2951.00           1236          52.00       193.99
  276.21        2951.25           1239          49.00       180.91
  276.24        2951.50           1242          43.00       154.75
  276.27        2951.75           1246          45.00       163.47
  276.30        2952.00           1249          50.00       185.27
  276.33        2952.25           1252          49.00       180.91
  276.36        2952.50           1256          48.00       176.55
  276.40        2952.75           1259          49.00       180.91
  276.43        2953.00           1262          52.00       193.99
  276.46        2953.25           1266          40.00       141.67
  276.49        2953.50           1269          45.00       163.47
  276.52        2953.75           1272          47.00       172.19
  276.55        2954.00           1276          45.00       163.47
  276.58        2954.25           1279          52.00       193.99
  276.61        2954.50           1282          48.00       176.55
  276.64        2954.75           1286          46.00       167.83
  276.67        2955.00           1289          42.00       150.39
  276.70        2955.25           1292          50.00       185.27
  276.73        2955.50           1296          39.00       137.32
  276.76        2955.75           1299          47.00       172.19
  276.80        2956.00           1302          46.00       167.83
  276.83        2956.25           1306          45.00       163.47
  276.86        2956.50           1309          48.00       176.55
  276.89        2956.75           1312          52.00       193.99
  276.92        2957.00           1316          43.00       154.75
  276.95        2957.25           1319          44.00       159.11
  276.98        2957.50           1322          55.00       207.06
  277.01        2957.75           1326          50.00       185.27
  277.04        2958.00           1329          45.00       163.47
  277.07        2958.25           1332          44.00       159.11
  277.10        2958.50           1336          52.00       193.99
  277.14        2958.75           1339          49.00       180.91
  277.17        2959.00           1342          42.00       150.39
  277.20        2959.25           1346          49.00       180.91
  277.23        2959.50           1349          49.00       180.91
  277.26        2959.75           1352          57.00       215.78
  277.29        2960.00           1356          78.00       307.33
  277.32        2960.25           1359         105.00       425.03
  277.35        2960.50           1362         109.00       442.46
  277.38        2960.75           1366         153.00       634.28
  277.41        2961.00           1369         192.00       804.29
  277.44        2961.25           1372         206.00       865.32
  277.47        2961.50           1376         260.00      1100.73
  277.51        2961.75           1379         304.00      1292.55
  277.54        2962.00           1382         526.00      2260.40
  277.57        2962.25           1386        1479.00      6415.80
  277.60        2962.50           1389        2554.00     11104.40
  277.63        2962.75           1392        3664.00     15947.03
  277.66        2963.00           1396        4988.00     21725.14
  277.69        2963.25           1399        6175.00     26907.07
  277.72        2963.50           1402        7371.00     32129.91
  277.75        2963.75           1406        8955.00     39049.65
  277.78        2964.00           1409       10140.00     44228.22
  277.81        2964.25           1412       11284.00     49229.15
  277.85        2964.50           1416       13022.00     56829.59
  277.88        2964.75           1419       14078.00     61449.27
  277.91        2965.00           1422       15459.00     67492.66
  277.94        2965.25           1426       16892.00     73765.94
  277.97        2965.50           1429       17866.00     78031.19
  278.00        2965.75           1432       19034.00     83147.43
  278.03        2966.00           1436       20650.00     90228.66
  278.06        2966.25           1439       21781.00     95186.43
  278.09        2966.50           1442       22892.00    100058.00
  278.13        2966.75           1446       24250.00    106014.50
  278.16        2967.00           1449       24789.00    108379.30
  278.19        2967.25           1452       24775.00    108317.90
  278.22        2967.50           1456       24777.00    108326.60
  278.25        2967.75           1459       24939.00    109037.40
  278.28        2968.00           1462       24829.00    108554.80
  278.31        2968.25           1466       24402.00    106681.30
  278.34        2968.50           1469       23782.00    103961.50
  278.37        2968.75           1472       22761.00     99483.48
  278.41        2969.00           1476       21152.00     92429.00
  278.44        2969.25           1479       19889.00     86893.62
  278.47        2969.50           1482       18788.00     82069.74
  278.50        2969.75           1486       17403.00     76003.53
  278.53        2970.00           1489       16215.00     70801.93
  278.56        2970.25           1492       15167.00     66214.66
  278.59        2970.50           1496       13522.00     59016.78
  278.62        2970.75           1499       12400.00     54109.13
  278.65        2971.00           1502       11220.00     48949.34
  278.69        2971.25           1506        9802.00     42750.96
  278.72        2971.50           1509        8801.00     38376.77
  278.75        2971.75           1513        7188.00     31330.66
  278.78        2972.00           1516        6127.00     26697.49
  278.81        2972.25           1519        5017.00     21851.72
  278.84        2972.50           1523        3430.00     14926.04
  278.87        2972.75           1526        2290.00      9952.84
  278.90        2973.00           1529        1304.00      5652.66
  278.93        2973.25           1533         447.00      1915.98
  278.97        2973.50           1536         299.00      1270.75
  279.00        2973.75           1539         232.00       978.67
  279.03        2974.00           1543         205.00       860.96
  279.06        2974.25           1546         149.00       616.84
  279.09        2974.50           1549         123.00       503.50
  279.12        2974.75           1553          71.00       276.81
  279.15        2975.00           1556          69.00       268.09
  279.18        2975.25           1559          57.00       215.78
  279.21        2975.50           1563          50.00       185.27
  279.24        2975.75           1566          47.00       172.19
  279.27        2976.00           1569          45.00       163.47
  279.30        2976.25           1573          43.00       154.75
  279.33        2976.50           1576          44.00       159.11
  279.36        2976.75           1579          47.00       172.19
  279.40        2977.00           1583          55.00       207.06
  279.43        2977.25           1586          51.00       189.63
  279.46        2977.50           1590          46.00       167.83
  279.49        2977.75           1593          46.00       167.83
  279.52        2978.00           1596          47.00       172.19
  279.55        2978.25           1600          40.00       141.67
  279.58        2978.50           1603          44.00       159.11
  279.61        2978.75           1606          46.00       167.83
  279.64        2979.00           1610          45.00       163.47
  279.67        2979.25           1613          40.00       141.67
  279.70        2979.50           1616          40.00       141.67
  279.73        2979.75           1620          54.00       202.70
  279.76        2980.00           1623          51.00       189.63
  279.80        2980.25           1626          41.00       146.03
  279.83        2980.50           1630          45.00       163.47
  279.86        2980.75           1633          40.00       141.67
  279.89        2981.00           1637          48.00       176.55
  279.92        2981.25           1640          41.00       146.03
  279.95        2981.50           1643          50.00       185.27
  279.98        2981.75           1647          41.00       146.03
  280.01        2982.00           1650          50.00       185.27
  280.04        2982.25           1653          48.00       176.55
  280.07        2982.50           1657          50.00       185.27
  280.10        2982.75           1660          49.00       180.91
  280.13        2983.00           1663          43.00       154.75
  280.16        2983.25           1667          49.00       180.91
  280.19        2983.50           1670          50.00       185.27
  280.23        2983.75           1673          46.00       167.83
  280.26        2984.00           1677          49.00       180.91
HS scan finished at 04:40:28
end
************************************************************
  HS Scan of (1) Internal mercury lamp
************************************************************
Integration time is 0.2294 seconds per sample
dh101118Manchester 53.47 2.23 2.804185pr1000
************************************************************
Dead Time -------------------------  3E-08 
Number of Cycles Used -------------  4 
Starting Wavelength (Angstroms) ---  2950 
Final Wavelength (Angstoms) -------  2984 
Wavelength Increment (Angstroms) --  .25 
Filter Wheel #1 Position ---------- (1) Ground quartz diffuser (ND=2.32)
Filter Wheel #2 Position ---------- (1) Neutral Density 0.494



************************************************************
HS scan start time = 17:11:59
Dark Count =  6.1 


Time (GMT)  Wavelength (Ang)  Step Number  Raw Counts  Counts/Second

 1032.36        2950.00           1222          53.00       204.45
 1032.43        2950.25           1226          48.00       182.65
 1032.46        2950.50           1229          51.00       195.73
 1032.49        2950.75           1232          51.00       195.73
 1032.52        2951.00           1236          43.00       160.86
 1032.55        2951.25           1239          46.00       173.93
 1032.58        2951.50           1242          47.00       178.29
 1032.61        2951.75           1246          52.00       200.09
 1032.64        2952.00           1249          46.00       173.93
 1032.67        2952.25           1252          44.00       165.21
 1032.71        2952.50           1256          44.00       165.21
 1032.74        2952.75           1259          50.00       191.37
 1032.77        2953.00           1262          52.00       200.09
 1032.80        2953.25           1266          46.00       173.93
 1032.83        2953.50           1269          57.00       221.88
 1032.86        2953.75           1272          44.00       165.21
 1032.89        2954.00           1276          49.00       187.01
 1032.92        2954.25           1279          47.00       178.29
 1032.95        2954.50           1282          43.00       160.86
 1032.98        2954.75           1286          46.00       173.93
 1033.01        2955.00           1289          49.00       187.01
 1033.04        2955.25           1292          49.00       187.01
 1033.07        2955.50           1296          46.00       173.93
 1033.11        2955.75           1299          48.00       182.65
 1033.14        2956.00           1302          47.00       178.29
 1033.17        2956.25           1306          48.00       182.65
 1033.20        2956.50           1309          52.00       200.09
 1033.23        2956.75           1312          43.00       160.86
 1033.26        2957.00           1316          49.00       187.01
 1033.29        2957.25           1319          51.00       195.73
 1033.32        2957.50           1322          49.00       187.01
 1033.36        2957.75           1326          49.00       187.01
 1033.39        2958.00           1329          49.00       187.01
 1033.42        2958.25           1332          58.00       226.24
 1033.45        2958.50           1336          54.00       208.81
 1033.48        2958.75           1339          51.00       195.73
 1033.51        2959.00           1342          57.00       221.88
 1033.54        2959.25           1346          42.00       156.50
 1033.57        2959.50           1349          55.00       213.17
 1033.60        2959.75           1352          56.00       217.53
 1033.63        2960.00           1356          79.00       317.79
 1033.66        2960.25           1359          95.00       387.54
 1033.69        2960.50           1362         128.00       531.39
 1033.73        2960.75           1366         169.00       710.13
 1033.76        2961.00           1369         193.00       814.75
 1033.79        2961.25           1372         226.00       958.62
 1033.82        2961.50           1376         268.00      1141.71
 1033.85        2961.75           1379         379.00      1625.62
 1033.88        2962.00           1382         787.00      3404.45
 1033.91        2962.25           1386        2039.00      8864.17
 1033.94        2962.50           1389        3183.00     13854.49
 1033.97        2962.75           1392        4260.00     18553.92
 1034.00        2963.00           1396        5708.00     24874.27
 1034.03        2963.25           1399        6895.00     30057.17
 1034.06        2963.50           1402        7950.00     34665.06
 1034.10        2963.75           1406        9578.00     41778.14
 1034.13        2964.00           1409       10757.00     46931.34
 1034.16        2964.25           1412       11920.00     52016.16
 1034.19        2964.50           1416       13474.00     58812.93
 1034.22        2964.75           1419       14474.00     63188.11
 1034.25        2965.00           1422       15504.00     67695.76
 1034.28        2965.25           1426       17254.00     75357.19
 1034.31        2965.50           1429       18282.00     79859.36
 1034.34        2965.75           1432       19529.00     85322.31
 1034.37        2966.00           1436       20972.00     91646.12
 1034.40        2966.25           1439       22031.00     96288.64
 1034.44        2966.50           1442       23156.00    101221.90
 1034.47        2966.75           1446       24244.00    105994.30
 1034.50        2967.00           1449       24448.00    106889.30
 1034.53        2967.25           1452       24533.00    107262.20
 1034.56        2967.50           1456       24681.00    107911.60
 1034.59        2967.75           1459       24637.00    107718.50
 1034.62        2968.00           1462       24390.00    106634.90
 1034.65        2968.25           1466       23940.00    104660.70
 1034.69        2968.50           1469       22951.00    100322.90
 1034.72        2968.75           1472       21789.00     95227.63
 1034.75        2969.00           1476       20303.00     88714.00
 1034.78        2969.25           1479       19052.00     83232.43
 1034.81        2969.50           1482       17969.00     78488.44
 1034.84        2969.75           1486       16526.00     72169.60
 1034.87        2970.00           1489       15340.00     66977.96
 1034.90        2970.25           1492       14357.00     62676.16
 1034.93        2970.50           1496       12897.00     56288.97
 1034.97        2970.75           1499       11699.00     51049.79
 1035.00        2971.00           1502       10725.00     46791.45
 1035.03        2971.25           1506        9191.00     40086.98
 1035.06        2971.50           1509        7954.00     34682.54
 1035.09        2971.75           1513        6428.00     28017.88
 1035.12        2972.00           1516        5247.00     22861.80
 1035.15        2972.25           1519        4230.00     18423.00
 1035.18        2972.50           1523        2695.00     11725.57
 1035.21        2972.75           1526        1648.00      7158.91
 1035.24        2973.00           1529         725.00      3134.12
 1035.27        2973.25           1533         320.00      1368.41
 1035.30        2973.50           1536         247.00      1050.16
 1035.34        2973.75           1539         224.00       949.90
 1035.37        2974.00           1543         184.00       775.52
 1035.40        2974.25           1546         134.00       557.55
 1035.43        2974.50           1549         113.00       466.00
 1035.46        2974.75           1553          77.00       309.07
 1035.49        2975.00           1556          59.00       230.60
 1035.52        2975.25           1559          44.00       165.21
 1035.55        2975.50           1563          48.00       182.65
 1035.58        2975.75           1566          49.00       187.01
 1035.62        2976.00           1569          52.00       200.09
 1035.65        2976.25           1573          36.00       130.34
 1035.68        2976.50           1576          46.00       173.93
 1035.71        2976.75           1579          41.00       152.14
 1035.74        2977.00           1583          51.00       195.73
 1035.77        2977.25           1586          40.00       147.78
 1035.80        2977.50           1590          53.00       204.45
 1035.83        2977.75           1593          47.00       178.29
 1035.86        2978.00           1596          44.00       165.21
 1035.89        2978.25           1600          38.00       139.06
 1035.92        2978.50           1603          40.00       147.78
 1035.95        2978.75           1606          43.00       160.86
 1035.98        2979.00           1610          48.00       182.65
 1036.01        2979.25           1613          47.00       178.29
 1036.04        2979.50           1616          52.00       200.09
 1036.08        2979.75           1620          45.00       169.57
 1036.11        2980.00           1623          43.00       160.86
 1036.14        2980.25           1626          40.00       147.78
 1036.17        2980.50           1630          44.00       165.21
 1036.20        2980.75           1633          54.00       208.81
 1036.23        2981.00           1637          40.00       147.78
 1036.26        2981.25           1640          41.00       152.14
 1036.29        2981.50           1643          44.00       165.21
 1036.32        2981.75           1647          41.00       152.14
 1036.35        2982.00           1650          43.00       160.86
 1036.38        2982.25           1653          49.00       187.01
 1036.41        2982.50           1657          44.00       165.21
 1036.44        2982.75           1660          53.00       204.45
 1036.47        2983.00           1663          44.00       165.21
 1036.50        2983.25           1667          39.00       143.42
 1036.53        2983.50           1670          43.00       160.86
 1036.57        2983.75           1673          41.00       152.14
 1036.60        2984.00           1677          47.00       178.29
HS scan finished at 17:16:49
end
